!@!!GADDS PLOTSO FILE: Chi integration type
!@!!Title/SampleName: map-cc
!@!!Comment: ?
!@!!User: Bruker Instrument Administrator
!@!!Site: University of Illinois Chicago
!@!!Frame: map-cc_01_000.gfrm
!@!!Wavelengths    1.54184   1.54056   1.54439
!@!!Frame angles: 2Theta: 63.000 Omega: 50.000 Phi: 0.000 Chi: 90.000
!@!!Integration range: 2Theta: 53.000 to 73.000  Gamma: -105.000 to -75.000
!@!!Integration method: bin normalized
!@!N
!@!SS
!@!M
!@!L 0.0 0.0 0.0 0.0
!@!XDegrees
!@!YCounts
53.000 10.736663
53.005 10.830385
53.010 10.516936
53.015 10.166448
53.020 9.763393
53.025 9.045259
53.030 8.49173
53.035 8.462564
53.040 8.586218
53.045 9.166946
53.050 9.782064
53.055 9.975924
53.060 10.73439
53.065 10.931451
53.070 10.377866
53.075 10.638959
53.080 10.487035
53.085 10.035366
53.090 10.390839
53.095 10.315825
53.100 10.64124
53.105 11.120496
53.110 10.9399
53.115 11.216138
53.120 11.278979
53.125 10.946996
53.130 10.639034
53.135 10.554004
53.140 10.249716
53.145 9.81528
53.150 9.664578
53.155 9.77612
53.160 9.791821
53.165 9.693794
53.170 9.661725
53.175 9.851174
53.180 10.03506
53.185 9.88582
53.190 10.018526
53.195 10.347612
53.200 10.57545
53.205 10.896179
53.210 10.602661
53.215 10.909484
53.220 11.136325
53.225 10.824616
53.230 10.822536
53.235 11.006363
53.240 11.495748
53.245 11.432271
53.250 11.284875
53.255 11.433172
53.260 11.315171
53.265 11.075321
53.270 10.568909
53.275 10.306665
53.280 10.300589
53.285 9.481374
53.290 8.917078
53.295 8.817226
53.300 8.881223
53.305 9.313394
53.310 9.482438
53.315 10.252371
53.320 10.967671
53.325 11.409636
53.330 11.167676
53.335 11.402382
53.340 10.783871
53.345 10.592405
53.350 10.374275
53.355 10.223549
53.360 10.690385
53.365 11.154701
53.370 11.257355
53.375 11.324893
53.380 11.331323
53.385 10.994206
53.390 10.637803
53.395 10.670182
53.400 10.689454
53.405 10.782411
53.410 10.855956
53.415 11.081097
53.420 11.157317
53.425 10.885504
53.430 11.133452
53.435 11.305906
53.440 11.328604
53.445 11.69897
53.450 11.545457
53.455 11.69983
53.460 12.270665
53.465 12.072673
53.470 12.196105
53.475 12.363857
53.480 11.987176
53.485 12.194299
53.490 11.924623
53.495 11.146088
53.500 10.655917
53.505 10.431424
53.510 9.985573
53.515 9.824683
53.520 9.96837
53.525 10.305285
53.530 10.494132
53.535 10.440623
53.540 10.399985
53.545 10.68937
53.550 11.118589
53.555 10.690706
53.560 10.919766
53.565 11.249485
53.570 11.303251
53.575 11.55055
53.580 11.172541
53.585 11.165119
53.590 11.674301
53.595 12.161295
53.600 12.196661
53.605 12.251564
53.610 12.506503
53.615 13.23315
53.620 13.309726
53.625 13.230324
53.630 12.63133
53.635 12.643159
53.640 12.570375
53.645 12.619232
53.650 12.43234
53.655 12.018935
53.660 11.650446
53.665 11.608748
53.670 11.486551
53.675 10.852298
53.680 10.362402
53.685 10.476315
53.690 10.799818
53.695 11.401009
53.700 11.703196
53.705 12.014954
53.710 12.242267
53.715 12.120157
53.720 12.021994
53.725 11.60661
53.730 11.240987
53.735 10.90851
53.740 10.478183
53.745 10.439058
53.750 9.793097
53.755 9.499779
53.760 9.74082
53.765 9.551863
53.770 9.467874
53.775 9.573472
53.780 9.720069
53.785 10.343024
53.790 10.511713
53.795 10.45065
53.800 10.57901
53.805 10.300113
53.810 10.657924
53.815 10.958632
53.820 11.04385
53.825 11.100704
53.830 10.993259
53.835 11.378049
53.840 11.509572
53.845 11.477193
53.850 11.075639
53.855 10.917591
53.860 10.614413
53.865 10.558926
53.870 10.317104
53.875 10.495994
53.880 10.151411
53.885 9.953557
53.890 9.889887
53.895 9.949312
53.900 9.934636
53.905 9.884809
53.910 9.980699
53.915 10.324685
53.920 10.390719
53.925 10.446961
53.930 10.808898
53.935 10.67923
53.940 10.003143
53.945 9.944047
53.950 9.96615
53.955 10.228645
53.960 10.25526
53.965 10.355223
53.970 10.637879
53.975 10.727774
53.980 10.572505
53.985 10.248394
53.990 9.684638
53.995 9.43896
54.000 9.12088
54.005 9.296493
54.010 9.614177
54.015 9.899123
54.020 10.724002
54.025 11.523532
54.030 11.964857
54.035 12.03827
54.040 12.160047
54.045 12.441544
54.050 12.133294
54.055 11.761045
54.060 11.132585
54.065 10.928883
54.070 11.257532
54.075 11.221952
54.080 10.399074
54.085 9.84833
54.090 10.322742
54.095 10.642453
54.100 10.636984
54.105 10.892895
54.110 11.420715
54.115 11.977201
54.120 12.197703
54.125 11.969617
54.130 12.03726
54.135 11.964717
54.140 11.224657
54.145 11.455452
54.150 11.691727
54.155 11.673789
54.160 11.690919
54.165 11.477076
54.170 11.375225
54.175 11.048624
54.180 10.325043
54.185 10.000334
54.190 10.040143
54.195 9.846143
54.200 9.9975
54.205 10.137577
54.210 10.382993
54.215 10.631401
54.220 10.598149
54.225 10.75605
54.230 11.020473
54.235 11.193089
54.240 11.262136
54.245 11.536448
54.250 11.729786
54.255 12.023263
54.260 11.920642
54.265 12.097339
54.270 12.399508
54.275 12.781649
54.280 12.602604
54.285 12.410359
54.290 12.329837
54.295 12.57511
54.300 12.478827
54.305 12.699235
54.310 12.464936
54.315 12.647099
54.320 13.118771
54.325 13.224422
54.330 13.245162
54.335 13.29425
54.340 12.758553
54.345 13.062813
54.350 12.973701
54.355 12.593213
54.360 12.356167
54.365 12.020485
54.370 11.539874
54.375 11.368988
54.380 11.010454
54.385 11.301784
54.390 11.498601
54.395 11.924209
54.400 12.220285
54.405 13.113048
54.410 13.75147
54.415 13.472838
54.420 12.717255
54.425 12.678806
54.430 12.298565
54.435 11.858507
54.440 11.036308
54.445 10.971844
54.450 11.409726
54.455 11.600235
54.460 11.528798
54.465 11.461069
54.470 11.91336
54.475 12.118646
54.480 11.742126
54.485 12.10015
54.490 12.587363
54.495 12.71418
54.500 12.451321
54.505 11.714701
54.510 11.598907
54.515 11.527725
54.520 11.22438
54.525 11.290121
54.530 11.205513
54.535 11.883018
54.540 12.921078
54.545 13.387752
54.550 13.281559
54.555 13.233586
54.560 13.349643
54.565 13.799395
54.570 13.812819
54.575 13.084848
54.580 12.954405
54.585 13.274522
54.590 13.514353
54.595 13.02388
54.600 12.748284
54.605 12.820138
54.610 12.93352
54.615 13.43171
54.620 13.153379
54.625 12.78484
54.630 12.924253
54.635 12.840992
54.640 12.444448
54.645 12.599895
54.650 11.965879
54.655 11.974388
54.660 11.587442
54.665 11.371552
54.670 11.342743
54.675 11.298241
54.680 10.918973
54.685 11.27216
54.690 11.641333
54.695 11.752287
54.700 11.533446
54.705 11.534718
54.710 11.742049
54.715 11.947569
54.720 12.072115
54.725 12.191929
54.730 13.035889
54.735 13.577377
54.740 13.547409
54.745 13.33269
54.750 13.042511
54.755 13.050161
54.760 13.275647
54.765 12.992866
54.770 12.882342
54.775 12.977229
54.780 12.707187
54.785 13.093925
54.790 12.769197
54.795 12.291183
54.800 11.911654
54.805 11.900216
54.810 12.279696
54.815 12.830243
54.820 12.827518
54.825 13.127795
54.830 13.389879
54.835 13.332014
54.840 13.139218
54.845 12.935263
54.850 12.608204
54.855 12.892864
54.860 12.800601
54.865 13.026225
54.870 13.01367
54.875 13.418852
54.880 13.266397
54.885 12.980531
54.890 12.622735
54.895 12.895607
54.900 12.748879
54.905 12.506723
54.910 12.642273
54.915 12.963176
54.920 13.213395
54.925 12.6051
54.930 12.224428
54.935 12.48103
54.940 12.756181
54.945 12.711748
54.950 12.907551
54.955 12.789183
54.960 13.106058
54.965 13.158563
54.970 13.435856
54.975 13.438932
54.980 13.115034
54.985 13.078778
54.990 12.911487
54.995 12.478494
55.000 12.281693
55.005 12.012973
55.010 11.836416
55.015 11.598825
55.020 11.209846
55.025 11.736944
55.030 12.184485
55.035 12.226457
55.040 11.999408
55.045 12.052518
55.050 12.22279
55.055 12.314093
55.060 12.001008
55.065 11.837696
55.070 12.223607
55.075 12.568746
55.080 12.431338
55.085 12.05012
55.090 12.079391
55.095 12.019372
55.100 11.904868
55.105 11.521084
55.110 11.534949
55.115 11.606861
55.120 11.562526
55.125 12.037508
55.130 12.795007
55.135 12.994164
55.140 13.110882
55.145 12.934693
55.150 13.052428
55.155 13.404422
55.160 12.711653
55.165 12.106374
55.170 11.689857
55.175 11.320622
55.180 11.738655
55.185 11.971706
55.190 12.001623
55.195 11.861974
55.200 11.798047
55.205 11.918324
55.210 12.157992
55.215 12.34376
55.220 11.957426
55.225 12.101179
55.230 11.872869
55.235 12.317422
55.240 12.549678
55.245 13.004013
55.250 13.430815
55.255 14.178137
55.260 14.176055
55.265 14.367672
55.270 14.225326
55.275 13.647345
55.280 12.752966
55.285 11.930824
55.290 11.411532
55.295 11.525096
55.300 11.270646
55.305 11.024964
55.310 11.490773
55.315 12.155974
55.320 12.193033
55.325 12.529885
55.330 12.477581
55.335 12.78548
55.340 12.967279
55.345 12.45184
55.350 12.061073
55.355 12.16382
55.360 11.750809
55.365 12.131906
55.370 11.827083
55.375 11.610678
55.380 11.66762
55.385 11.67793
55.390 11.534263
55.395 11.997386
55.400 12.383997
55.405 13.093312
55.410 13.435801
55.415 13.298332
55.420 13.296541
55.425 13.000901
55.430 12.727006
55.435 12.70014
55.440 12.668296
55.445 13.153705
55.450 13.549068
55.455 13.807515
55.460 14.231881
55.465 14.012441
55.470 13.834476
55.475 13.21957
55.480 13.147217
55.485 13.501864
55.490 13.503896
55.495 13.761872
55.500 13.765629
55.505 14.270094
55.510 14.935795
55.515 14.55572
55.520 14.202165
55.525 14.034171
55.530 13.787465
55.535 13.814856
55.540 13.332038
55.545 13.109827
55.550 13.330169
55.555 13.389329
55.560 13.230609
55.565 12.926807
55.570 12.471487
55.575 12.257303
55.580 12.267089
55.585 12.066201
55.590 12.277916
55.595 12.84266
55.600 13.306828
55.605 13.336339
55.610 13.427442
55.615 13.209094
55.620 13.455756
55.625 13.122343
55.630 12.436
55.635 11.780836
55.640 11.552862
55.645 11.386553
55.650 11.213107
55.655 11.179166
55.660 11.712161
55.665 11.933335
55.670 12.158754
55.675 12.206582
55.680 12.542754
55.685 12.837214
55.690 12.8477
55.695 12.681459
55.700 12.825188
55.705 12.861694
55.710 12.873833
55.715 12.906768
55.720 13.228249
55.725 13.400185
55.730 13.269555
55.735 12.917964
55.740 12.863452
55.745 12.371224
55.750 11.819239
55.755 11.270263
55.760 10.615623
55.765 10.73102
55.770 11.240389
55.775 11.605863
55.780 12.276759
55.785 12.273827
55.790 12.04333
55.795 12.226705
55.800 12.327166
55.805 12.490661
55.810 12.246713
55.815 11.981953
55.820 12.365127
55.825 12.868858
55.830 12.914559
55.835 13.113733
55.840 13.232403
55.845 13.771502
55.850 13.817887
55.855 13.762715
55.860 13.260794
55.865 13.015209
55.870 12.742208
55.875 13.011106
55.880 12.483714
55.885 12.489637
55.890 12.434525
55.895 12.90622
55.900 13.148136
55.905 13.176131
55.910 13.107618
55.915 13.396613
55.920 13.345309
55.925 13.502603
55.930 13.485905
55.935 13.767895
55.940 14.179858
55.945 14.89204
55.950 15.902497
55.955 16.384712
55.960 16.016109
55.965 15.520241
55.970 15.071964
55.975 14.452546
55.980 13.673064
55.985 12.714925
55.990 12.315054
55.995 12.514616
56.000 12.793629
56.005 12.589627
56.010 12.272452
56.015 12.124451
56.020 12.188337
56.025 12.571578
56.030 12.711764
56.035 12.447465
56.040 12.487445
56.045 12.769687
56.050 13.101685
56.055 13.103351
56.060 12.815434
56.065 12.828964
56.070 13.334387
56.075 13.524874
56.080 13.330125
56.085 13.095518
56.090 12.995305
56.095 12.847213
56.100 12.511567
56.105 12.510824
56.110 12.617399
56.115 12.973277
56.120 12.985884
56.125 13.011696
56.130 12.919654
56.135 13.177531
56.140 13.017062
56.145 13.072716
56.150 13.281416
56.155 13.524738
56.160 13.754373
56.165 13.785825
56.170 14.011024
56.175 13.871224
56.180 13.591641
56.185 13.496336
56.190 13.763311
56.195 14.19424
56.200 14.544548
56.205 14.752392
56.210 14.957899
56.215 14.905869
56.220 14.373662
56.225 13.36082
56.230 13.041075
56.235 12.90969
56.240 12.984644
56.245 12.862398
56.250 12.91017
56.255 13.437708
56.260 14.169174
56.265 14.275566
56.270 14.410009
56.275 14.284803
56.280 14.354366
56.285 14.298476
56.290 14.005496
56.295 14.135359
56.300 14.125299
56.305 13.830514
56.310 13.811448
56.315 14.006334
56.320 14.031246
56.325 13.680302
56.330 13.483366
56.335 13.527006
56.340 13.472224
56.345 13.535789
56.350 13.617464
56.355 14.358249
56.360 14.436738
56.365 13.827013
56.370 14.228857
56.375 13.986967
56.380 13.361115
56.385 13.524734
56.390 13.171761
56.395 13.560092
56.400 13.938033
56.405 13.607213
56.410 14.192011
56.415 14.705671
56.420 14.805903
56.425 14.948528
56.430 14.812806
56.435 14.94321
56.440 15.103745
56.445 15.382845
56.450 15.389528
56.455 15.039777
56.460 14.971308
56.465 14.893651
56.470 14.647735
56.475 14.418413
56.480 13.808944
56.485 13.343903
56.490 13.3762
56.495 13.458002
56.500 13.331864
56.505 13.199472
56.510 13.221479
56.515 13.882373
56.520 14.414175
56.525 14.683705
56.530 14.821055
56.535 15.36987
56.540 15.716238
56.545 15.700123
56.550 15.197397
56.555 15.127005
56.560 14.715639
56.565 15.015706
56.570 14.740693
56.575 14.254374
56.580 14.294802
56.585 13.77364
56.590 13.467103
56.595 13.576231
56.600 13.123678
56.605 13.189372
56.610 13.468496
56.615 13.574333
56.620 13.927929
56.625 14.116663
56.630 14.430259
56.635 14.681041
56.640 14.993412
56.645 14.983164
56.650 14.723446
56.655 14.619615
56.660 14.388541
56.665 14.064087
56.670 13.790466
56.675 14.002321
56.680 14.532003
56.685 14.970062
56.690 14.920141
56.695 14.773806
56.700 14.250339
56.705 13.792117
56.710 13.160291
56.715 12.100047
56.720 11.904908
56.725 12.043541
56.730 12.105506
56.735 12.146096
56.740 12.006435
56.745 12.414982
56.750 12.984824
56.755 13.678488
56.760 14.585905
56.765 14.878917
56.770 15.268261
56.775 15.89535
56.780 16.158676
56.785 16.759283
56.790 16.00555
56.795 15.657546
56.800 16.297113
56.805 16.835905
56.810 16.774773
56.815 16.212669
56.820 15.303326
56.825 14.994391
56.830 14.105023
56.835 12.956414
56.840 12.765902
56.845 12.763438
56.850 12.444593
56.855 12.550729
56.860 12.960467
56.865 13.561175
56.870 13.884078
56.875 13.665818
56.880 13.675391
56.885 13.938402
56.890 14.303281
56.895 14.772124
56.900 14.936064
56.905 15.063114
56.910 14.764105
56.915 14.950798
56.920 15.238945
56.925 15.786849
56.930 15.659909
56.935 15.889627
56.940 15.535851
56.945 15.481086
56.950 15.831839
56.955 15.310274
56.960 14.431575
56.965 14.224763
56.970 14.220819
56.975 14.685799
56.980 14.927626
56.985 14.807248
56.990 15.041713
56.995 15.308403
57.000 15.476242
57.005 15.406878
57.010 15.318716
57.015 15.493801
57.020 15.433043
57.025 15.582666
57.030 15.586924
57.035 15.385824
57.040 14.970845
57.045 14.882286
57.050 14.658501
57.055 14.920127
57.060 14.901778
57.065 14.924356
57.070 15.357439
57.075 15.519959
57.080 15.501144
57.085 15.402202
57.090 15.160875
57.095 14.558102
57.100 14.549751
57.105 14.929511
57.110 15.518472
57.115 16.016508
57.120 15.963976
57.125 15.920056
57.130 16.107914
57.135 15.653516
57.140 15.278283
57.145 15.517598
57.150 15.642817
57.155 15.759403
57.160 15.881263
57.165 16.440424
57.170 16.653311
57.175 16.425043
57.180 16.045992
57.185 15.653668
57.190 15.924664
57.195 15.382927
57.200 15.267284
57.205 15.573762
57.210 16.026037
57.215 16.24099
57.220 16.121574
57.225 16.252192
57.230 16.553534
57.235 16.486391
57.240 15.948616
57.245 15.38709
57.250 15.41523
57.255 15.379186
57.260 15.209074
57.265 15.1661
57.270 14.864859
57.275 14.859097
57.280 15.038423
57.285 14.527613
57.290 14.315771
57.295 14.602969
57.300 15.139099
57.305 15.560849
57.310 15.634394
57.315 14.89034
57.320 15.136538
57.325 15.575027
57.330 15.069592
57.335 14.924503
57.340 15.025042
57.345 16.101034
57.350 17.278957
57.355 17.571993
57.360 17.64617
57.365 18.150337
57.370 17.846876
57.375 17.460592
57.380 16.590591
57.385 16.226074
57.390 15.612639
57.395 15.363234
57.400 15.269258
57.405 15.934182
57.410 16.072107
57.415 15.725666
57.420 15.262522
57.425 15.699649
57.430 15.716684
57.435 15.519547
57.440 14.80872
57.445 14.384131
57.450 14.513316
57.455 14.973812
57.460 14.884477
57.465 14.865745
57.470 15.074802
57.475 15.705807
57.480 16.579195
57.485 17.156719
57.490 17.223209
57.495 17.146284
57.500 17.325537
57.505 17.295486
57.510 17.318111
57.515 17.235573
57.520 16.710062
57.525 16.289375
57.530 15.920911
57.535 15.609932
57.540 15.300432
57.545 14.71562
57.550 14.290499
57.555 14.058684
57.560 14.419369
57.565 14.294591
57.570 14.724244
57.575 15.153862
57.580 15.146394
57.585 15.402569
57.590 16.19062
57.595 16.372295
57.600 16.956194
57.605 16.818735
57.610 17.366196
57.615 17.490099
57.620 17.701551
57.625 17.457348
57.630 17.451815
57.635 17.480726
57.640 17.289045
57.645 17.01252
57.650 17.492716
57.655 18.020025
57.660 18.409481
57.665 18.470423
57.670 17.81348
57.675 17.412666
57.680 16.511454
57.685 16.061621
57.690 15.733869
57.695 16.215336
57.700 16.384724
57.705 17.276657
57.710 17.715691
57.715 18.336878
57.720 18.7085
57.725 18.170982
57.730 18.059587
57.735 18.05649
57.740 17.784481
57.745 17.978382
57.750 18.109674
57.755 18.241804
57.760 18.319145
57.765 18.135565
57.770 17.94158
57.775 17.55854
57.780 17.049885
57.785 17.143133
57.790 17.102724
57.795 17.107182
57.800 16.566425
57.805 16.960999
57.810 17.693859
57.815 17.758577
57.820 16.897833
57.825 16.459536
57.830 17.027365
57.835 17.902908
57.840 17.832644
57.845 17.586151
57.850 17.696659
57.855 18.225731
57.860 18.048836
57.865 17.432648
57.870 16.856766
57.875 16.739662
57.880 16.99682
57.885 17.251921
57.890 17.1052
57.895 16.742754
57.900 16.693483
57.905 17.002602
57.910 17.419937
57.915 17.379908
57.920 17.052711
57.925 17.192001
57.930 17.59853
57.935 17.92395
57.940 17.557951
57.945 16.815008
57.950 16.73653
57.955 17.111038
57.960 17.333305
57.965 16.873991
57.970 16.556068
57.975 17.262619
57.980 17.581635
57.985 17.870663
57.990 17.230623
57.995 17.441034
58.000 17.72126
58.005 17.904243
58.010 17.585115
58.015 17.359638
58.020 16.95936
58.025 17.35277
58.030 17.192905
58.035 17.498547
58.040 17.481361
58.045 17.093424
58.050 17.270452
58.055 17.845398
58.060 17.684631
58.065 17.546621
58.070 18.021793
58.075 18.410742
58.080 18.998838
58.085 19.447519
58.090 19.305237
58.095 19.673079
58.100 19.520144
58.105 18.693539
58.110 17.810095
58.115 16.996084
58.120 16.806934
58.125 17.220509
58.130 17.059149
58.135 17.615355
58.140 17.953466
58.145 18.883657
58.150 19.307825
58.155 19.254126
58.160 19.337423
58.165 19.614828
58.170 19.432497
58.175 19.119005
58.180 18.891588
58.185 18.791988
58.190 18.529184
58.195 18.268208
58.200 18.130915
58.205 18.082916
58.210 19.00511
58.215 19.815748
58.220 20.174213
58.225 20.073418
58.230 20.711349
58.235 21.254791
58.240 21.595222
58.245 21.455498
58.250 21.387356
58.255 21.911514
58.260 22.483688
58.265 22.504736
58.270 22.304239
58.275 22.359474
58.280 22.282192
58.285 22.276711
58.290 22.207958
58.295 22.513693
58.300 22.136066
58.305 22.450026
58.310 22.466051
58.315 22.642593
58.320 22.718235
58.325 23.24687
58.330 23.49935
58.335 24.209702
58.340 24.480316
58.345 24.971046
58.350 26.109024
58.355 26.283798
58.360 26.290491
58.365 26.268766
58.370 25.938164
58.375 26.275196
58.380 26.318693
58.385 25.676338
58.390 25.526249
58.395 25.196217
58.400 24.86043
58.405 25.402803
58.410 25.740604
58.415 25.89678
58.420 26.143278
58.425 26.440561
58.430 27.127106
58.435 27.730312
58.440 27.57111
58.445 27.727898
58.450 28.218821
58.455 28.542681
58.460 28.428045
58.465 28.538368
58.470 28.564838
58.475 28.966824
58.480 28.765337
58.485 28.861298
58.490 29.525433
58.495 29.875118
58.500 29.474319
58.505 29.701082
58.510 30.225985
58.515 30.221161
58.520 29.808372
58.525 30.153868
58.530 30.575281
58.535 30.801743
58.540 30.597359
58.545 30.230021
58.550 30.4643
58.555 31.069773
58.560 30.690531
58.565 30.731579
58.570 30.900328
58.575 31.025578
58.580 30.96265
58.585 31.271389
58.590 30.951811
58.595 31.203537
58.600 31.20101
58.605 31.34553
58.610 31.522602
58.615 31.48756
58.620 31.350533
58.625 31.399094
58.630 30.867937
58.635 30.534309
58.640 30.592831
58.645 30.493507
58.650 29.905287
58.655 29.95627
58.660 29.693169
58.665 29.301207
58.670 29.182283
58.675 29.207661
58.680 29.490242
58.685 29.048254
58.690 28.331282
58.695 29.172499
58.700 29.408915
58.705 29.134604
58.710 28.160721
58.715 27.85619
58.720 27.771042
58.725 27.672729
58.730 26.927235
58.735 27.093845
58.740 27.013039
58.745 27.68918
58.750 27.608891
58.755 27.671711
58.760 27.176003
58.765 26.561531
58.770 25.845245
58.775 26.228329
58.780 25.61062
58.785 24.800301
58.790 24.864676
58.795 24.909086
58.800 25.451918
58.805 26.179495
58.810 25.644892
58.815 25.334934
58.820 25.861546
58.825 25.823158
58.830 25.334415
58.835 23.801662
58.840 22.433809
58.845 21.985376
58.850 21.788782
58.855 21.445021
58.860 21.298191
58.865 21.136654
58.870 21.237289
58.875 21.75285
58.880 21.818995
58.885 22.169533
58.890 22.083158
58.895 22.329985
58.900 22.540642
58.905 22.332878
58.910 21.916836
58.915 21.434406
58.920 21.281858
58.925 20.743126
58.930 20.637356
58.935 20.401114
58.940 20.575556
58.945 20.903652
58.950 20.971777
58.955 20.449966
58.960 20.334984
58.965 20.350807
58.970 20.395275
58.975 19.838142
58.980 19.656912
58.985 20.140951
58.990 20.498503
58.995 20.463955
59.000 19.915209
59.005 19.793612
59.010 21.117361
59.015 21.049307
59.020 20.36466
59.025 20.56712
59.030 20.869701
59.035 21.372396
59.040 21.848034
59.045 20.884333
59.050 20.760397
59.055 21.643221
59.060 21.510708
59.065 20.922827
59.070 20.280651
59.075 19.846615
59.080 20.3358
59.085 20.036928
59.090 19.839788
59.095 19.774387
59.100 20.103413
59.105 20.267973
59.110 20.419441
59.115 20.119305
59.120 20.410597
59.125 20.04627
59.130 20.364868
59.135 20.699196
59.140 20.620604
59.145 20.156515
59.150 20.038485
59.155 19.587425
59.160 19.264347
59.165 18.979424
59.170 18.706619
59.175 18.537947
59.180 18.398434
59.185 17.831678
59.190 17.524807
59.195 17.107742
59.200 16.474844
59.205 16.148907
59.210 16.089331
59.215 16.246313
59.220 16.492188
59.225 16.726648
59.230 16.469542
59.235 16.501024
59.240 16.943022
59.245 17.22546
59.250 16.930962
59.255 16.775528
59.260 16.921616
59.265 17.909533
59.270 18.69425
59.275 18.660248
59.280 18.845631
59.285 18.938499
59.290 18.549007
59.295 18.468903
59.300 18.409719
59.305 17.955853
59.310 17.854706
59.315 17.429459
59.320 17.553602
59.325 17.910955
59.330 17.726879
59.335 17.603462
59.340 17.546125
59.345 17.619871
59.350 17.556496
59.355 17.852318
59.360 18.584429
59.365 19.362789
59.370 19.681198
59.375 19.958929
59.380 19.959469
59.385 20.15024
59.390 20.464607
59.395 20.485809
59.400 20.19626
59.405 19.532101
59.410 19.02177
59.415 18.962437
59.420 18.519012
59.425 17.535873
59.430 17.106527
59.435 16.828997
59.440 16.836834
59.445 16.565548
59.450 16.242081
59.455 16.133621
59.460 16.250937
59.465 16.472048
59.470 16.930262
59.475 17.297491
59.480 17.775938
59.485 18.357529
59.490 19.33778
59.495 19.117691
59.500 18.613461
59.505 17.866552
59.510 17.666157
59.515 17.60766
59.520 17.443577
59.525 16.890209
59.530 16.656494
59.535 16.797417
59.540 16.85553
59.545 16.710497
59.550 16.229277
59.555 16.316053
59.560 16.61916
59.565 17.050867
59.570 16.573856
59.575 16.082008
59.580 15.819655
59.585 16.046391
59.590 15.389727
59.595 15.254637
59.600 15.120983
59.605 15.620548
59.610 16.672201
59.615 17.214737
59.620 17.298695
59.625 17.37175
59.630 16.954393
59.635 17.0476
59.640 16.868788
59.645 16.447599
59.650 16.234163
59.655 16.248966
59.660 16.243156
59.665 16.321535
59.670 16.112171
59.675 16.526943
59.680 16.113035
59.685 15.596597
59.690 15.685838
59.695 15.801031
59.700 16.460844
59.705 16.516502
59.710 16.009403
59.715 17.038994
59.720 17.25141
59.725 17.255054
59.730 17.3552
59.735 16.861603
59.740 17.234697
59.745 17.76622
59.750 17.962189
59.755 17.824232
59.760 17.519253
59.765 17.13834
59.770 16.911057
59.775 16.505472
59.780 16.048735
59.785 15.915863
59.790 16.592587
59.795 16.709732
59.800 17.121819
59.805 17.322006
59.810 17.597246
59.815 18.253473
59.820 18.24575
59.825 18.358881
59.830 18.251905
59.835 18.53277
59.840 18.279402
59.845 17.795389
59.850 16.994463
59.855 16.85717
59.860 16.326611
59.865 16.248737
59.870 16.204546
59.875 16.425173
59.880 16.503979
59.885 16.658251
59.890 16.491787
59.895 16.689684
59.900 16.520584
59.905 15.658977
59.910 15.351382
59.915 15.624101
59.920 15.748928
59.925 16.299809
59.930 16.463142
59.935 16.994896
59.940 17.459757
59.945 17.782566
59.950 17.355894
59.955 17.310228
59.960 17.118853
59.965 17.448881
59.970 17.631035
59.975 17.8314
59.980 17.860041
59.985 18.372103
59.990 18.080826
59.995 17.381954
60.000 17.024399
60.005 16.964272
60.010 17.029568
60.015 17.052019
60.020 17.008162
60.025 16.786537
60.030 17.015985
60.035 17.058565
60.040 16.999933
60.045 17.209679
60.050 17.514612
60.055 17.259541
60.060 17.143635
60.065 17.325939
60.070 17.159864
60.075 16.98542
60.080 16.312431
60.085 15.818583
60.090 16.197563
60.095 16.215452
60.100 15.961408
60.105 16.36677
60.110 16.565359
60.115 16.816849
60.120 17.301264
60.125 17.039436
60.130 17.140907
60.135 17.051027
60.140 16.042471
60.145 15.636526
60.150 15.470822
60.155 15.043724
60.160 14.677726
60.165 15.064874
60.170 15.451561
60.175 15.534455
60.180 16.108095
60.185 16.413477
60.190 16.24844
60.195 16.138712
60.200 15.838951
60.205 15.9281
60.210 16.037025
60.215 15.951466
60.220 15.977535
60.225 16.052496
60.230 16.254219
60.235 15.788759
60.240 15.523803
60.245 16.126656
60.250 15.736437
60.255 15.682926
60.260 15.887481
60.265 16.269135
60.270 16.69182
60.275 16.946651
60.280 16.858986
60.285 16.608828
60.290 16.376564
60.295 16.131798
60.300 15.84213
60.305 15.197515
60.310 15.104223
60.315 15.041436
60.320 15.675007
60.325 15.792808
60.330 16.232843
60.335 16.594238
60.340 16.89419
60.345 16.693739
60.350 16.76335
60.355 16.951258
60.360 17.534338
60.365 18.004168
60.370 18.095875
60.375 18.024822
60.380 17.788252
60.385 17.541735
60.390 17.118652
60.395 16.995684
60.400 16.890509
60.405 17.051573
60.410 17.704967
60.415 17.800352
60.420 17.747337
60.425 18.005672
60.430 17.606537
60.435 17.359226
60.440 17.166588
60.445 16.641056
60.450 16.857136
60.455 16.539961
60.460 16.194139
60.465 16.792606
60.470 16.792702
60.475 16.812143
60.480 16.656328
60.485 16.432608
60.490 16.831657
60.495 16.964384
60.500 16.343061
60.505 16.889837
60.510 17.673069
60.515 18.083975
60.520 17.898003
60.525 17.613146
60.530 17.28425
60.535 17.109846
60.540 16.184978
60.545 15.602236
60.550 15.906106
60.555 16.389404
60.560 16.640438
60.565 17.289293
60.570 17.249111
60.575 17.057419
60.580 16.956926
60.585 16.888731
60.590 16.782892
60.595 16.577135
60.600 16.27932
60.605 16.459091
60.610 16.753122
60.615 16.685522
60.620 16.734047
60.625 17.137213
60.630 17.184706
60.635 17.133675
60.640 17.613573
60.645 18.098629
60.650 18.78454
60.655 19.171919
60.660 19.352842
60.665 19.517853
60.670 19.2682
60.675 18.511446
60.680 18.367601
60.685 17.474586
60.690 16.488338
60.695 15.612556
60.700 14.81426
60.705 15.202349
60.710 14.95988
60.715 14.085464
60.720 14.667341
60.725 15.336215
60.730 15.926448
60.735 16.520363
60.740 16.254906
60.745 16.802677
60.750 16.731625
60.755 16.633461
60.760 16.61791
60.765 16.808802
60.770 16.62892
60.775 16.579082
60.780 16.609129
60.785 16.783022
60.790 16.761597
60.795 16.533691
60.800 16.65
60.805 16.859798
60.810 16.942787
60.815 16.938831
60.820 17.150702
60.825 17.020916
60.830 16.859009
60.835 16.445522
60.840 16.560497
60.845 17.291233
60.850 17.908024
60.855 18.037754
60.860 18.202759
60.865 18.424826
60.870 18.196863
60.875 17.869068
60.880 16.996565
60.885 16.254669
60.890 16.521534
60.895 16.601458
60.900 16.632189
60.905 16.597912
60.910 17.090624
60.915 17.48629
60.920 17.447844
60.925 17.068998
60.930 16.695107
60.935 16.468943
60.940 16.278452
60.945 16.000305
60.950 15.858828
60.955 16.299212
60.960 16.149103
60.965 16.37475
60.970 16.290751
60.975 16.506964
60.980 16.425627
60.985 16.505535
60.990 16.626852
60.995 16.555101
61.000 16.314148
61.005 16.556215
61.010 16.565336
61.015 16.318066
61.020 15.981827
61.025 16.164268
61.030 16.518087
61.035 16.641932
61.040 16.782204
61.045 17.069939
61.050 17.476618
61.055 17.899145
61.060 17.647482
61.065 17.384808
61.070 17.783844
61.075 17.878834
61.080 17.763523
61.085 17.754742
61.090 17.701725
61.095 17.309534
61.100 17.160713
61.105 16.452267
61.110 16.26025
61.115 16.111734
61.120 16.216074
61.125 16.284103
61.130 16.600422
61.135 16.582678
61.140 16.762226
61.145 16.592875
61.150 15.923939
61.155 15.686591
61.160 15.395454
61.165 14.924235
61.170 15.02984
61.175 15.260348
61.180 16.316793
61.185 16.902126
61.190 16.875824
61.195 17.349493
61.200 17.688797
61.205 17.502499
61.210 17.109673
61.215 16.652727
61.220 16.58802
61.225 16.356308
61.230 16.795107
61.235 16.71575
61.240 16.965353
61.245 16.747677
61.250 16.539217
61.255 16.966427
61.260 16.541451
61.265 15.659342
61.270 15.955075
61.275 15.926654
61.280 16.151047
61.285 16.348364
61.290 16.407446
61.295 16.857817
61.300 17.546709
61.305 17.442356
61.310 17.433825
61.315 17.249681
61.320 16.787472
61.325 16.330721
61.330 16.144266
61.335 16.048174
61.340 16.149942
61.345 16.639601
61.350 16.629765
61.355 16.646646
61.360 16.775965
61.365 16.763268
61.370 17.160986
61.375 17.08783
61.380 16.851522
61.385 17.212015
61.390 17.153524
61.395 17.239361
61.400 17.070009
61.405 16.671473
61.410 16.631655
61.415 16.317865
61.420 16.492563
61.425 16.546133
61.430 16.030899
61.435 16.007738
61.440 16.003517
61.445 16.287844
61.450 16.651768
61.455 16.71443
61.460 17.089628
61.465 17.414383
61.470 17.152962
61.475 17.071445
61.480 17.034311
61.485 17.336168
61.490 17.04545
61.495 16.908895
61.500 17.427574
61.505 18.005402
61.510 18.158552
61.515 18.177977
61.520 18.165972
61.525 18.155462
61.530 18.023205
61.535 18.099459
61.540 17.361137
61.545 17.018764
61.550 16.614332
61.555 16.031151
61.560 16.251143
61.565 16.303988
61.570 16.223536
61.575 16.734772
61.580 16.567471
61.585 16.932604
61.590 17.858208
61.595 17.541569
61.600 17.393986
61.605 17.213451
61.610 17.003452
61.615 17.282124
61.620 16.965027
61.625 16.045776
61.630 15.916925
61.635 16.133537
61.640 16.227354
61.645 16.422752
61.650 16.456411
61.655 16.181345
61.660 16.302446
61.665 16.852139
61.670 16.654779
61.675 16.762682
61.680 16.917355
61.685 16.86813
61.690 17.06192
61.695 17.467026
61.700 17.076883
61.705 16.905962
61.710 16.830973
61.715 17.015011
61.720 17.550625
61.725 18.095219
61.730 18.0152
61.735 18.488922
61.740 18.989939
61.745 18.798906
61.750 18.353775
61.755 17.868568
61.760 17.438478
61.765 17.210232
61.770 17.081261
61.775 16.924984
61.780 16.912603
61.785 16.720522
61.790 17.145273
61.795 17.604284
61.800 17.630192
61.805 17.421776
61.810 17.650917
61.815 18.01742
61.820 17.986885
61.825 17.502443
61.830 17.025587
61.835 16.719334
61.840 16.343918
61.845 15.911292
61.850 15.70541
61.855 15.767417
61.860 16.087944
61.865 16.515251
61.870 16.886374
61.875 18.037741
61.880 18.576908
61.885 18.598106
61.890 19.063107
61.895 18.679033
61.900 18.600195
61.905 18.535151
61.910 17.887043
61.915 17.58667
61.920 18.098616
61.925 17.910551
61.930 18.178255
61.935 18.643534
61.940 18.581356
61.945 18.210875
61.950 18.021191
61.955 17.902164
61.960 17.693731
61.965 17.405985
61.970 17.322886
61.975 17.706144
61.980 17.994154
61.985 18.096485
61.990 17.979883
61.995 18.086945
62.000 18.516891
62.005 18.030058
62.010 17.534246
62.015 17.782928
62.020 17.760855
62.025 17.743629
62.030 17.203636
62.035 16.711128
62.040 16.954691
62.045 17.104515
62.050 17.249849
62.055 17.614511
62.060 17.306273
62.065 17.242586
62.070 16.93989
62.075 16.361706
62.080 16.301962
62.085 16.421923
62.090 16.135553
62.095 16.624968
62.100 17.783703
62.105 17.959194
62.110 18.82579
62.115 19.315809
62.120 19.16501
62.125 19.220268
62.130 19.199352
62.135 19.030926
62.140 19.296761
62.145 19.036001
62.150 18.6693
62.155 18.102921
62.160 18.353613
62.165 18.252234
62.170 18.378902
62.175 18.693029
62.180 18.592545
62.185 18.093233
62.190 17.941584
62.195 17.626768
62.200 17.226202
62.205 16.935513
62.210 16.787897
62.215 17.239363
62.220 17.689314
62.225 17.844097
62.230 17.705112
62.235 17.688744
62.240 17.555182
62.245 17.337509
62.250 17.126202
62.255 17.06004
62.260 17.367298
62.265 17.355522
62.270 17.421862
62.275 17.727087
62.280 17.722918
62.285 17.714357
62.290 17.607281
62.295 16.975851
62.300 16.914093
62.305 16.864231
62.310 16.338495
62.315 16.144629
62.320 15.573959
62.325 15.733836
62.330 15.743293
62.335 15.948442
62.340 16.157129
62.345 15.715189
62.350 15.148717
62.355 15.683475
62.360 15.619785
62.365 16.301565
62.370 16.032509
62.375 15.501167
62.380 15.959402
62.385 16.655628
62.390 16.642893
62.395 16.933157
62.400 17.114683
62.405 17.638811
62.410 18.124088
62.415 18.201305
62.420 18.100693
62.425 17.725271
62.430 17.791386
62.435 17.808006
62.440 17.728466
62.445 18.244261
62.450 18.815851
62.455 18.930099
62.460 18.95294
62.465 19.200314
62.470 19.149113
62.475 19.094141
62.480 19.128532
62.485 19.000219
62.490 19.323336
62.495 19.739548
62.500 19.220755
62.505 18.79504
62.510 18.473036
62.515 18.162312
62.520 18.076385
62.525 17.790152
62.530 17.455086
62.535 17.218264
62.540 17.787924
62.545 17.650318
62.550 17.509018
62.555 17.686033
62.560 17.881502
62.565 17.544796
62.570 17.544392
62.575 17.302216
62.580 17.645338
62.585 17.502747
62.590 16.923498
62.595 16.800871
62.600 16.965876
62.605 16.979057
62.610 16.57107
62.615 16.282345
62.620 16.579628
62.625 16.571154
62.630 16.789875
62.635 17.225798
62.640 17.273743
62.645 17.550436
62.650 17.502167
62.655 17.127232
62.660 17.265518
62.665 16.616589
62.670 16.137573
62.675 16.959047
62.680 17.320442
62.685 17.423218
62.690 18.180922
62.695 18.799738
62.700 19.012262
62.705 19.0527
62.710 18.856031
62.715 19.342995
62.720 19.467997
62.725 18.591377
62.730 18.331297
62.735 18.47818
62.740 18.160521
62.745 17.72073
62.750 16.853512
62.755 16.502861
62.760 16.231518
62.765 16.31814
62.770 16.15107
62.775 16.205559
62.780 16.14559
62.785 16.321836
62.790 16.359377
62.795 17.119625
62.800 17.599693
62.805 18.263332
62.810 18.0411
62.815 18.081356
62.820 17.9729
62.825 18.321161
62.830 18.066088
62.835 17.572931
62.840 17.550043
62.845 17.537432
62.850 17.080044
62.855 17.423899
62.860 17.598753
62.865 17.068239
62.870 16.920319
62.875 16.702211
62.880 17.31801
62.885 17.675999
62.890 16.941566
62.895 16.653231
62.900 16.836376
62.905 17.172815
62.910 16.918818
62.915 16.674648
62.920 16.94137
62.925 17.309786
62.930 17.253983
62.935 17.633904
62.940 17.410206
62.945 17.778173
62.950 17.754988
62.955 17.424999
62.960 17.223833
62.965 17.401648
62.970 17.528736
62.975 17.924795
62.980 18.321531
62.985 18.567738
62.990 18.645014
62.995 19.263666
63.000 19.051895
63.005 19.446735
63.010 19.209496
63.015 19.132273
63.020 19.241369
63.025 19.030075
63.030 18.836079
63.035 19.055899
63.040 18.201214
63.045 18.008366
63.050 17.800375
63.055 17.777401
63.060 17.429775
63.065 17.621674
63.070 17.756418
63.075 18.098593
63.080 18.159784
63.085 18.050303
63.090 17.887419
63.095 17.87155
63.100 17.510725
63.105 17.312592
63.110 17.59133
63.115 18.064377
63.120 18.25605
63.125 18.67716
63.130 19.003994
63.135 19.029564
63.140 18.754181
63.145 18.495853
63.150 18.227041
63.155 18.096464
63.160 18.363798
63.165 18.55842
63.170 18.382547
63.175 18.57419
63.180 18.625248
63.185 18.135096
63.190 17.684149
63.195 17.713102
63.200 18.424799
63.205 18.402981
63.210 17.982574
63.215 17.775373
63.220 17.655647
63.225 17.247265
63.230 16.20648
63.235 15.1961
63.240 15.219297
63.245 15.601494
63.250 15.781376
63.255 16.420176
63.260 17.925373
63.265 18.488724
63.270 18.615183
63.275 18.833965
63.280 19.600386
63.285 19.869843
63.290 19.646269
63.295 19.130899
63.300 19.503664
63.305 20.31501
63.310 20.359709
63.315 20.036108
63.320 19.693033
63.325 19.853825
63.330 20.016888
63.335 19.60887
63.340 19.272835
63.345 19.435972
63.350 19.934566
63.355 20.443542
63.360 20.385382
63.365 20.127903
63.370 19.959724
63.375 20.188606
63.380 20.441072
63.385 20.014906
63.390 19.779902
63.395 20.19845
63.400 20.779358
63.405 21.020741
63.410 20.198645
63.415 19.501688
63.420 19.449055
63.425 19.152498
63.430 19.297071
63.435 19.042156
63.440 18.757223
63.445 18.998806
63.450 19.362631
63.455 19.163038
63.460 18.937277
63.465 18.478544
63.470 18.821175
63.475 19.045719
63.480 19.52035
63.485 19.746468
63.490 19.885998
63.495 20.233145
63.500 20.083027
63.505 20.329044
63.510 20.685932
63.515 19.71269
63.520 19.164276
63.525 19.141535
63.530 19.622059
63.535 20.341925
63.540 19.969641
63.545 19.212818
63.550 19.335657
63.555 19.409065
63.560 18.732594
63.565 17.852612
63.570 17.371788
63.575 17.281284
63.580 17.86047
63.585 18.531019
63.590 18.830551
63.595 19.815563
63.600 19.963474
63.605 20.083225
63.610 20.026527
63.615 20.105001
63.620 19.80477
63.625 19.851856
63.630 20.661263
63.635 21.037506
63.640 20.949623
63.645 21.044722
63.650 20.706671
63.655 20.547266
63.660 20.514854
63.665 19.40411
63.670 19.333792
63.675 19.291025
63.680 19.785383
63.685 20.680046
63.690 20.766068
63.695 20.767878
63.700 20.675396
63.705 20.710297
63.710 21.082592
63.715 20.80267
63.720 20.144989
63.725 20.483492
63.730 20.681353
63.735 22.071455
63.740 22.673698
63.745 22.969755
63.750 22.58334
63.755 22.847507
63.760 23.08416
63.765 23.024687
63.770 21.557541
63.775 20.639574
63.780 19.779192
63.785 19.594486
63.790 19.835085
63.795 19.224787
63.800 19.205564
63.805 19.656355
63.810 19.559504
63.815 19.943779
63.820 20.121729
63.825 20.374088
63.830 20.985111
63.835 20.939466
63.840 21.835121
63.845 22.645428
63.850 22.86396
63.855 23.343472
63.860 23.576593
63.865 24.060684
63.870 24.633198
63.875 25.01124
63.880 25.043295
63.885 25.531534
63.890 25.526306
63.895 25.397308
63.900 24.893072
63.905 24.491377
63.910 24.207043
63.915 25.028387
63.920 25.102032
63.925 25.445364
63.930 25.312674
63.935 25.756456
63.940 25.878286
63.945 25.658913
63.950 25.437981
63.955 25.332176
63.960 26.075016
63.965 27.041134
63.970 26.758795
63.975 26.825132
63.980 27.290268
63.985 27.997854
63.990 28.98959
63.995 29.118073
64.000 29.548716
64.005 30.979425
64.010 31.684856
64.015 32.077793
64.020 32.092617
64.025 32.093529
64.030 31.776417
64.035 31.688354
64.040 31.582762
64.045 32.086239
64.050 32.549683
64.055 32.982922
64.060 32.656898
64.065 32.525764
64.070 32.237103
64.075 32.089104
64.080 31.611197
64.085 31.480627
64.090 31.194139
64.095 31.647049
64.100 31.839088
64.105 31.822054
64.110 31.721912
64.115 31.541124
64.120 31.751024
64.125 32.451656
64.130 32.392609
64.135 33.104694
64.140 32.844299
64.145 32.72287
64.150 33.517368
64.155 33.427265
64.160 33.094669
64.165 32.909233
64.170 32.921337
64.175 33.552841
64.180 33.856564
64.185 34.478596
64.190 34.588337
64.195 35.144646
64.200 35.662418
64.205 35.041653
64.210 34.893356
64.215 35.36438
64.220 35.028191
64.225 34.517681
64.230 33.719776
64.235 33.831703
64.240 34.743004
64.245 34.620846
64.250 33.773026
64.255 33.970924
64.260 34.415607
64.265 34.31937
64.270 33.6595
64.275 32.912609
64.280 32.724819
64.285 32.931835
64.290 33.110466
64.295 33.270527
64.300 33.071262
64.305 33.164738
64.310 33.155941
64.315 33.461678
64.320 33.336143
64.325 32.515903
64.330 32.692696
64.335 33.079918
64.340 33.33493
64.345 33.531521
64.350 34.266624
64.355 34.593819
64.360 34.524746
64.365 34.149601
64.370 33.626308
64.375 33.005409
64.380 32.670498
64.385 31.602646
64.390 31.125669
64.395 31.082207
64.400 31.270077
64.405 31.521542
64.410 32.382195
64.415 32.589844
64.420 33.104347
64.425 33.061047
64.430 32.557873
64.435 32.219223
64.440 32.409367
64.445 32.028835
64.450 31.089638
64.455 30.405788
64.460 30.531572
64.465 30.454353
64.470 30.332844
64.475 29.776917
64.480 29.897528
64.485 30.30584
64.490 30.775829
64.495 30.773987
64.500 30.921799
64.505 30.741329
64.510 30.509731
64.515 29.956617
64.520 29.409203
64.525 29.002924
64.530 28.777931
64.535 28.544252
64.540 27.466118
64.545 26.843365
64.550 26.990538
64.555 27.639791
64.560 27.751192
64.565 27.304852
64.570 27.275646
64.575 28.311878
64.580 29.006336
64.585 28.673717
64.590 28.455233
64.595 28.129314
64.600 28.070395
64.605 26.723036
64.610 25.678778
64.615 25.197567
64.620 24.759863
64.625 24.391628
64.630 24.483715
64.635 24.303135
64.640 24.933319
64.645 24.936798
64.650 25.017269
64.655 24.789619
64.660 24.357962
64.665 24.064014
64.670 24.049288
64.675 23.631571
64.680 23.344341
64.685 22.57091
64.690 22.043024
64.695 21.896778
64.700 22.285061
64.705 22.643328
64.710 23.223087
64.715 23.66143
64.720 23.987434
64.725 24.052206
64.730 24.277943
64.735 23.246567
64.740 22.76046
64.745 22.204468
64.750 21.998926
64.755 22.184109
64.760 22.642675
64.765 23.024618
64.770 23.704157
64.775 23.542957
64.780 23.658901
64.785 23.67169
64.790 23.441574
64.795 23.439352
64.800 22.628689
64.805 22.24173
64.810 22.296469
64.815 21.778004
64.820 21.679537
64.825 21.825804
64.830 21.406404
64.835 21.380531
64.840 21.455759
64.845 20.882492
64.850 21.063559
64.855 21.194881
64.860 20.820097
64.865 21.377672
64.870 21.304842
64.875 21.370165
64.880 21.874355
64.885 22.299789
64.890 22.399361
64.895 22.404058
64.900 22.084299
64.905 22.188713
64.910 22.178183
64.915 22.411839
64.920 22.89255
64.925 22.769562
64.930 22.438944
64.935 22.188829
64.940 22.265154
64.945 22.522291
64.950 22.767715
64.955 22.943531
64.960 23.369955
64.965 23.968245
64.970 24.501431
64.975 24.966928
64.980 25.098265
64.985 25.193991
64.990 25.03064
64.995 24.642252
65.000 24.338562
65.005 23.723454
65.010 23.835094
65.015 23.616549
65.020 23.186985
65.025 22.869661
65.030 22.577732
65.035 23.374239
65.040 23.823704
65.045 23.207708
65.050 23.20541
65.055 22.91996
65.060 23.030519
65.065 23.664244
65.070 23.851419
65.075 24.442873
65.080 24.878374
65.085 25.06665
65.090 25.838509
65.095 25.772032
65.100 25.352882
65.105 24.983673
65.110 24.878393
65.115 24.557701
65.120 24.579739
65.125 23.976902
65.130 24.091576
65.135 24.717909
65.140 24.559677
65.145 24.105709
65.150 24.41099
65.155 25.165077
65.160 25.844852
65.165 25.731665
65.170 25.985235
65.175 25.869631
65.180 26.048185
65.185 25.953505
65.190 24.876604
65.195 24.074551
65.200 24.028608
65.205 23.759302
65.210 23.904285
65.215 23.546217
65.220 23.410658
65.225 23.507273
65.230 23.574528
65.235 23.566385
65.240 23.671679
65.245 23.480213
65.250 23.936232
65.255 24.09642
65.260 24.562447
65.265 25.016674
65.270 24.822252
65.275 24.394308
65.280 24.600399
65.285 24.431421
65.290 24.048883
65.295 23.71545
65.300 23.334059
65.305 23.202917
65.310 23.140158
65.315 23.116411
65.320 23.233797
65.325 23.362009
65.330 23.167271
65.335 23.454172
65.340 23.921291
65.345 24.126007
65.350 24.533379
65.355 24.800072
65.360 24.845266
65.365 24.945642
65.370 25.046936
65.375 24.973091
65.380 24.909994
65.385 24.898312
65.390 25.318169
65.395 25.554556
65.400 25.266096
65.405 24.855324
65.410 25.234316
65.415 25.050121
65.420 24.469334
65.425 24.369375
65.430 24.718803
65.435 24.878601
65.440 24.851717
65.445 24.688745
65.450 24.603165
65.455 25.136845
65.460 25.67709
65.465 25.221695
65.470 25.128452
65.475 25.43058
65.480 25.756105
65.485 25.837938
65.490 25.727278
65.495 25.244383
65.500 26.174309
65.505 26.800676
65.510 26.77726
65.515 26.55546
65.520 26.750519
65.525 26.715549
65.530 26.491259
65.535 26.030313
65.540 26.119976
65.545 26.535446
65.550 27.350506
65.555 27.486086
65.560 27.899696
65.565 28.434614
65.570 28.836044
65.575 28.996984
65.580 29.473528
65.585 29.693144
65.590 29.578568
65.595 29.365526
65.600 29.365906
65.605 29.327509
65.610 30.095228
65.615 30.509939
65.620 31.146324
65.625 31.497721
65.630 31.595552
65.635 31.793865
65.640 31.4695
65.645 30.920143
65.650 31.083296
65.655 30.42174
65.660 30.771187
65.665 31.130161
65.670 30.966913
65.675 31.802347
65.680 31.828276
65.685 31.310871
65.690 31.708397
65.695 32.139431
65.700 32.705208
65.705 33.053596
65.710 32.864655
65.715 32.99123
65.720 32.56897
65.725 32.993114
65.730 32.916321
65.735 32.417076
65.740 32.071239
65.745 31.895475
65.750 32.240791
65.755 32.96941
65.760 32.744328
65.765 32.983238
65.770 33.170704
65.775 33.703072
65.780 33.700306
65.785 33.71653
65.790 34.572987
65.795 34.627628
65.800 34.054276
65.805 33.94994
65.810 33.104797
65.815 33.139507
65.820 33.401348
65.825 33.113003
65.830 32.97403
65.835 33.061634
65.840 33.732899
65.845 34.506119
65.850 35.584709
65.855 35.578064
65.860 35.135429
65.865 35.579975
65.870 36.084431
65.875 36.448341
65.880 36.674801
65.885 36.688671
65.890 36.751152
65.895 36.270699
65.900 36.215679
65.905 35.979191
65.910 35.249599
65.915 34.567863
65.920 33.593372
65.925 32.628578
65.930 32.583439
65.935 31.755846
65.940 31.919775
65.945 31.688669
65.950 31.917171
65.955 32.225922
65.960 32.940556
65.965 33.347439
65.970 34.158508
65.975 34.739399
65.980 35.524883
65.985 35.797867
65.990 35.825638
65.995 35.458336
66.000 35.35923
66.005 34.701057
66.010 34.071262
66.015 33.742687
66.020 34.139946
66.025 34.805702
66.030 35.066277
66.035 35.359009
66.040 35.649658
66.045 36.50705
66.050 36.88826
66.055 36.861626
66.060 36.629723
66.065 37.639145
66.070 37.110558
66.075 37.488449
66.080 36.964966
66.085 37.082699
66.090 37.089695
66.095 37.633247
66.100 37.43829
66.105 38.134064
66.110 38.095104
66.115 38.06348
66.120 38.420311
66.125 38.302776
66.130 37.509232
66.135 36.745121
66.140 36.179688
66.145 36.322723
66.150 36.436375
66.155 35.419254
66.160 34.828545
66.165 35.345779
66.170 35.674644
66.175 35.461803
66.180 35.471092
66.185 35.365356
66.190 35.072632
66.195 35.539261
66.200 35.70319
66.205 36.449959
66.210 36.623184
66.215 36.307064
66.220 35.866989
66.225 36.443119
66.230 36.11676
66.235 35.621353
66.240 34.851997
66.245 34.598404
66.250 34.450951
66.255 35.02737
66.260 35.66534
66.265 35.582489
66.270 35.713596
66.275 35.639065
66.280 34.887032
66.285 34.938385
66.290 34.417473
66.295 33.497814
66.300 33.685772
66.305 32.468803
66.310 31.99579
66.315 32.611996
66.320 32.103893
66.325 31.852381
66.330 31.789005
66.335 31.074146
66.340 32.088467
66.345 32.329411
66.350 32.352169
66.355 32.15741
66.360 31.613392
66.365 30.981966
66.370 31.399364
66.375 30.797768
66.380 30.60598
66.385 30.22979
66.390 30.471226
66.395 31.239519
66.400 32.184505
66.405 31.771223
66.410 31.310316
66.415 30.713087
66.420 30.874559
66.425 31.095669
66.430 30.208027
66.435 29.574755
66.440 28.790659
66.445 29.349823
66.450 29.25429
66.455 28.236694
66.460 28.168386
66.465 27.81772
66.470 28.088818
66.475 28.454611
66.480 28.100431
66.485 28.135843
66.490 28.097479
66.495 27.446129
66.500 27.928938
66.505 27.931984
66.510 27.613447
66.515 26.996992
66.520 26.506983
66.525 26.463678
66.530 25.817261
66.535 24.941528
66.540 25.081926
66.545 24.681313
66.550 23.844324
66.555 24.170317
66.560 24.032362
66.565 24.159607
66.570 24.19986
66.575 24.015985
66.580 24.263525
66.585 24.43709
66.590 23.82548
66.595 23.619444
66.600 23.640392
66.605 23.256475
66.610 22.301401
66.615 22.310518
66.620 22.545092
66.625 22.506977
66.630 22.680517
66.635 23.007463
66.640 23.124086
66.645 23.728764
66.650 23.70616
66.655 23.560287
66.660 23.792477
66.665 23.924957
66.670 23.609022
66.675 23.443594
66.680 23.376415
66.685 22.883341
66.690 21.975334
66.695 21.818136
66.700 21.233847
66.705 21.006554
66.710 20.328934
66.715 19.846586
66.720 20.124586
66.725 20.341047
66.730 19.81517
66.735 19.721159
66.740 19.670473
66.745 20.036852
66.750 19.9986
66.755 20.00795
66.760 20.621466
66.765 21.065632
66.770 21.213144
66.775 21.099669
66.780 20.836296
66.785 21.096745
66.790 20.570347
66.795 20.427053
66.800 20.151243
66.805 19.680828
66.810 19.8535
66.815 20.208527
66.820 20.227516
66.825 20.781776
66.830 20.617823
66.835 20.420631
66.840 20.517075
66.845 20.401625
66.850 19.99473
66.855 19.497021
66.860 18.964432
66.865 18.794689
66.870 19.066223
66.875 19.263666
66.880 18.919409
66.885 18.937513
66.890 18.800764
66.895 19.020294
66.900 18.923956
66.905 18.617929
66.910 18.524952
66.915 18.791609
66.920 18.856764
66.925 18.907152
66.930 19.019245
66.935 19.123796
66.940 19.141193
66.945 19.028137
66.950 19.34133
66.955 19.524778
66.960 20.262539
66.965 20.433056
66.970 20.577665
66.975 20.489578
66.980 20.195292
66.985 19.806931
66.990 19.870371
66.995 19.423874
67.000 18.785528
67.005 19.011627
67.010 19.779715
67.015 20.073252
67.020 19.701639
67.025 19.302391
67.030 19.264746
67.035 20.454601
67.040 20.236069
67.045 19.618965
67.050 20.117001
67.055 20.712282
67.060 20.898046
67.065 20.785315
67.070 20.24514
67.075 20.494219
67.080 20.866058
67.085 20.81245
67.090 20.994022
67.095 21.234303
67.100 21.391653
67.105 20.56675
67.110 20.325556
67.115 20.015167
67.120 20.128544
67.125 20.091702
67.130 20.035856
67.135 20.121922
67.140 21.41209
67.145 21.580137
67.150 21.093235
67.155 20.939144
67.160 21.316454
67.165 21.408756
67.170 20.990713
67.175 20.054787
67.180 20.055462
67.185 20.436218
67.190 20.484514
67.195 20.273575
67.200 20.147114
67.205 20.702291
67.210 20.534605
67.215 20.4818
67.220 20.639101
67.225 20.38245
67.230 19.916168
67.235 19.941483
67.240 19.120342
67.245 19.418665
67.250 19.372896
67.255 19.119604
67.260 19.494282
67.265 19.684439
67.270 19.397511
67.275 19.744207
67.280 20.014532
67.285 20.229933
67.290 20.059357
67.295 19.995298
67.300 20.246508
67.305 20.658846
67.310 20.625193
67.315 20.358343
67.320 20.058533
67.325 20.145185
67.330 20.303406
67.335 20.174164
67.340 20.462145
67.345 20.260029
67.350 20.627897
67.355 20.788986
67.360 20.487677
67.365 20.180439
67.370 19.638828
67.375 19.096079
67.380 18.275894
67.385 17.594458
67.390 17.027889
67.395 16.676573
67.400 16.256926
67.405 16.228928
67.410 16.029209
67.415 16.986902
67.420 17.702234
67.425 18.374306
67.430 18.856686
67.435 19.808556
67.440 19.984217
67.445 20.74041
67.450 21.269312
67.455 21.169722
67.460 20.789228
67.465 20.582012
67.470 19.616282
67.475 19.532936
67.480 19.297089
67.485 18.637762
67.490 18.317465
67.495 18.415897
67.500 18.670479
67.505 19.323359
67.510 19.801167
67.515 19.985775
67.520 19.824789
67.525 19.960629
67.530 20.125177
67.535 20.213797
67.540 19.936176
67.545 19.765408
67.550 19.166578
67.555 19.403534
67.560 19.578289
67.565 20.251202
67.570 20.43713
67.575 20.327782
67.580 19.862679
67.585 20.148277
67.590 20.356524
67.595 19.950945
67.600 19.042742
67.605 19.055325
67.610 18.981735
67.615 18.933254
67.620 18.817862
67.625 18.223703
67.630 18.350742
67.635 18.467773
67.640 18.485617
67.645 19.424986
67.650 19.768251
67.655 19.900923
67.660 20.326443
67.665 20.17429
67.670 20.591801
67.675 20.20174
67.680 19.550783
67.685 19.604012
67.690 19.454262
67.695 19.940222
67.700 20.137466
67.705 19.810814
67.710 19.723381
67.715 20.294916
67.720 20.486927
67.725 20.179682
67.730 20.150841
67.735 19.891939
67.740 20.178909
67.745 20.031324
67.750 19.384857
67.755 18.903503
67.760 18.688496
67.765 17.938435
67.770 18.080811
67.775 18.278488
67.780 18.519287
67.785 19.415442
67.790 19.648712
67.795 19.688385
67.800 20.184782
67.805 19.96846
67.810 19.741125
67.815 19.508146
67.820 19.35667
67.825 19.684805
67.830 20.018406
67.835 19.489254
67.840 19.232916
67.845 18.717682
67.850 18.791058
67.855 18.207142
67.860 18.182838
67.865 18.018476
67.870 18.583557
67.875 18.215977
67.880 18.393021
67.885 18.461611
67.890 19.065432
67.895 18.644186
67.900 18.029251
67.905 17.847147
67.910 17.8001
67.915 17.858374
67.920 17.43232
67.925 17.076611
67.930 18.089573
67.935 19.057865
67.940 19.609602
67.945 20.627348
67.950 20.899796
67.955 20.730665
67.960 20.847345
67.965 20.68482
67.970 20.482477
67.975 19.767706
67.980 19.323709
67.985 19.863211
67.990 20.065037
67.995 19.813097
68.000 19.731848
68.005 19.411688
68.010 19.776651
68.015 19.340755
68.020 18.601831
68.025 18.539064
68.030 18.72296
68.035 18.889729
68.040 19.06254
68.045 18.662977
68.050 18.909082
68.055 18.801373
68.060 18.657537
68.065 17.943872
68.070 17.68984
68.075 18.22674
68.080 18.800364
68.085 19.204166
68.090 19.627321
68.095 20.30526
68.100 20.926527
68.105 21.283615
68.110 21.284008
68.115 21.047115
68.120 21.218098
68.125 21.51853
68.130 21.12937
68.135 20.866085
68.140 20.406759
68.145 20.189653
68.150 20.153469
68.155 19.819038
68.160 19.636597
68.165 19.892424
68.170 20.828287
68.175 20.94278
68.180 21.006435
68.185 21.120298
68.190 20.703295
68.195 20.847097
68.200 20.840141
68.205 20.338444
68.210 20.543333
68.215 20.410212
68.220 20.548668
68.225 20.164
68.230 19.571144
68.235 19.274975
68.240 19.342997
68.245 19.363171
68.250 19.640791
68.255 19.56181
68.260 20.514799
68.265 20.959442
68.270 20.794981
68.275 20.681866
68.280 20.878094
68.285 20.351553
68.290 20.1975
68.295 20.067396
68.300 19.938141
68.305 20.180859
68.310 20.704575
68.315 21.24988
68.320 21.93623
68.325 22.390116
68.330 22.499731
68.335 22.573755
68.340 22.400177
68.345 21.884529
68.350 21.209944
68.355 21.065195
68.360 20.379827
68.365 19.88818
68.370 19.839348
68.375 19.872444
68.380 19.391031
68.385 19.622301
68.390 19.955103
68.395 20.323687
68.400 20.413233
68.405 20.04995
68.410 19.815687
68.415 20.030758
68.420 19.924465
68.425 20.237749
68.430 19.978876
68.435 19.878819
68.440 20.368113
68.445 20.999731
68.450 20.966444
68.455 20.506907
68.460 20.323603
68.465 20.980225
68.470 21.452801
68.475 20.793613
68.480 20.258511
68.485 20.498894
68.490 20.839039
68.495 20.113014
68.500 18.97051
68.505 18.835121
68.510 18.909687
68.515 18.916803
68.520 19.359911
68.525 19.082516
68.530 19.413832
68.535 19.54738
68.540 19.481112
68.545 20.043436
68.550 20.645857
68.555 21.245102
68.560 22.643873
68.565 23.767992
68.570 24.900375
68.575 24.865374
68.580 24.543213
68.585 24.287394
68.590 23.52405
68.595 22.571772
68.600 22.05987
68.605 22.176989
68.610 23.128523
68.615 23.744696
68.620 24.330765
68.625 24.137777
68.630 24.336597
68.635 25.012608
68.640 25.103413
68.645 24.939594
68.650 24.403429
68.655 23.900957
68.660 24.621986
68.665 24.87919
68.670 24.67837
68.675 24.626245
68.680 24.051291
68.685 23.930916
68.690 24.027088
68.695 24.376675
68.700 24.316004
68.705 24.212498
68.710 24.447172
68.715 24.874531
68.720 24.761824
68.725 23.986811
68.730 23.16881
68.735 23.094305
68.740 22.942259
68.745 22.741911
68.750 22.920252
68.755 23.453455
68.760 24.649887
68.765 25.248379
68.770 25.750124
68.775 25.889227
68.780 26.428761
68.785 26.490343
68.790 27.114658
68.795 27.011978
68.800 26.864157
68.805 26.426861
68.810 26.545841
68.815 26.384367
68.820 26.886364
68.825 26.90274
68.830 27.730307
68.835 28.240232
68.840 28.758574
68.845 28.851107
68.850 28.639181
68.855 28.721882
68.860 28.489733
68.865 28.256756
68.870 28.501726
68.875 28.448843
68.880 28.713987
68.885 29.219406
68.890 28.98044
68.895 28.816757
68.900 29.058163
68.905 29.29878
68.910 29.684263
68.915 29.420031
68.920 29.698948
68.925 29.895433
68.930 30.495602
68.935 30.354841
68.940 30.75667
68.945 31.039133
68.950 31.338062
68.955 31.145103
68.960 31.078478
68.965 31.280191
68.970 31.15472
68.975 30.714886
68.980 31.207596
68.985 31.36039
68.990 31.910357
68.995 31.387682
69.000 30.361483
69.005 31.466539
69.010 30.993404
69.015 29.926973
69.020 29.451471
69.025 29.122356
69.030 30.384527
69.035 30.617947
69.040 29.936113
69.045 31.049362
69.050 31.140181
69.055 31.833841
69.060 32.622055
69.065 32.605549
69.070 32.716984
69.075 32.833984
69.080 32.648258
69.085 33.475357
69.090 33.555332
69.095 33.117393
69.100 33.075016
69.105 33.443138
69.110 33.090408
69.115 32.387043
69.120 31.914894
69.125 32.360958
69.130 31.506414
69.135 31.443615
69.140 32.344517
69.145 32.533142
69.150 32.813648
69.155 32.383434
69.160 31.688288
69.165 32.42963
69.170 32.613415
69.175 32.087048
69.180 32.591099
69.185 33.633026
69.190 34.322781
69.195 34.47097
69.200 34.123325
69.205 33.578564
69.210 32.939854
69.215 32.248009
69.220 31.273979
69.225 31.430714
69.230 31.688414
69.235 32.188713
69.240 32.805931
69.245 33.557362
69.250 34.27911
69.255 34.138645
69.260 33.562939
69.265 33.405636
69.270 33.155704
69.275 33.32597
69.280 33.146931
69.285 32.702415
69.290 33.34454
69.295 33.429619
69.300 33.811832
69.305 33.571617
69.310 33.054291
69.315 32.848892
69.320 32.238789
69.325 31.844011
69.330 31.577354
69.335 31.346306
69.340 31.167929
69.345 31.249409
69.350 31.547926
69.355 31.51807
69.360 30.995333
69.365 30.742903
69.370 30.826309
69.375 29.844109
69.380 28.799402
69.385 28.471252
69.390 28.809404
69.395 28.55337
69.400 28.317722
69.405 28.535271
69.410 29.24214
69.415 29.562891
69.420 29.727066
69.425 31.084755
69.430 32.335423
69.435 32.425491
69.440 32.761902
69.445 33.4272
69.450 34.745708
69.455 34.508686
69.460 32.773033
69.465 31.555252
69.470 30.77803
69.475 30.5599
69.480 29.930315
69.485 29.117836
69.490 28.826155
69.495 28.946898
69.500 29.802656
69.505 30.246483
69.510 29.977633
69.515 30.195427
69.520 29.920073
69.525 30.02647
69.530 30.203972
69.535 29.867561
69.540 29.923094
69.545 29.49197
69.550 29.52935
69.555 28.970802
69.560 28.972157
69.565 29.307837
69.570 29.597523
69.575 29.984432
69.580 30.056252
69.585 29.013676
69.590 28.8181
69.595 28.462917
69.600 28.065155
69.605 27.725048
69.610 27.443335
69.615 27.224302
69.620 27.004059
69.625 26.875406
69.630 26.869766
69.635 26.666586
69.640 26.916862
69.645 26.707184
69.650 27.089272
69.655 27.372917
69.660 27.254473
69.665 27.257341
69.670 27.014549
69.675 26.560768
69.680 26.659607
69.685 26.628254
69.690 26.822369
69.695 26.991232
69.700 27.834187
69.705 27.864504
69.710 27.333925
69.715 26.673565
69.720 26.747681
69.725 27.044044
69.730 26.782557
69.735 25.677925
69.740 25.580141
69.745 26.113291
69.750 26.160034
69.755 25.634054
69.760 25.200264
69.765 24.700226
69.770 24.875254
69.775 24.9988
69.780 24.985437
69.785 24.908613
69.790 24.802122
69.795 24.900858
69.800 25.183798
69.805 24.765751
69.810 25.110937
69.815 24.771269
69.820 24.730791
69.825 24.644058
69.830 24.494129
69.835 25.28384
69.840 25.019356
69.845 24.223011
69.850 24.31872
69.855 23.814745
69.860 22.705036
69.865 22.41223
69.870 21.943613
69.875 22.212337
69.880 22.337965
69.885 22.557798
69.890 22.872169
69.895 23.423777
69.900 23.4076
69.905 23.229231
69.910 22.701065
69.915 22.807306
69.920 22.443069
69.925 22.403473
69.930 22.413242
69.935 21.980701
69.940 21.482733
69.945 20.912106
69.950 20.304312
69.955 20.596039
69.960 20.934597
69.965 20.907421
69.970 21.091864
69.975 21.559624
69.980 21.814497
69.985 21.5443
69.990 21.578791
69.995 21.300961
70.000 20.978188
70.005 21.023148
70.010 21.230488
70.015 21.385954
70.020 22.010145
70.025 22.088425
70.030 22.347012
70.035 22.957081
70.040 22.330589
70.045 22.235071
70.050 21.84461
70.055 21.26544
70.060 20.356312
70.065 19.640038
70.070 19.15962
70.075 18.974234
70.080 19.09679
70.085 19.385443
70.090 19.723022
70.095 20.088568
70.100 20.478992
70.105 20.885006
70.110 20.750713
70.115 20.777905
70.120 20.233452
70.125 20.465897
70.130 20.494595
70.135 20.168146
70.140 20.379295
70.145 20.514606
70.150 20.222509
70.155 20.466763
70.160 19.752356
70.165 19.435223
70.170 19.713877
70.175 19.453001
70.180 19.616058
70.185 19.376669
70.190 19.420803
70.195 20.026243
70.200 20.021614
70.205 19.753016
70.210 19.386784
70.215 19.522371
70.220 19.608059
70.225 19.222303
70.230 19.21295
70.235 19.519617
70.240 19.640667
70.245 19.839024
70.250 19.823111
70.255 19.964396
70.260 19.739239
70.265 20.137627
70.270 19.596317
70.275 19.026974
70.280 19.052067
70.285 19.426071
70.290 19.549288
70.295 19.129168
70.300 18.398609
70.305 18.551525
70.310 18.679359
70.315 18.592804
70.320 18.85062
70.325 18.93593
70.330 19.25712
70.335 19.586252
70.340 19.538391
70.345 19.565552
70.350 19.41284
70.355 19.180405
70.360 18.850439
70.365 18.633579
70.370 18.490326
70.375 19.093004
70.380 19.388927
70.385 19.438772
70.390 19.104387
70.395 19.143774
70.400 19.415415
70.405 19.55751
70.410 18.876036
70.415 18.244967
70.420 17.886339
70.425 18.425184
70.430 18.89403
70.435 18.935471
70.440 18.867447
70.445 18.458269
70.450 18.603342
70.455 18.132759
70.460 17.721878
70.465 17.857721
70.470 17.949549
70.475 18.385935
70.480 19.084106
70.485 18.925327
70.490 19.064278
70.495 18.704178
70.500 17.942835
70.505 17.770733
70.510 18.067024
70.515 18.461542
70.520 19.118492
70.525 19.389229
70.530 20.30464
70.535 20.873213
70.540 20.580294
70.545 20.419168
70.550 19.902626
70.555 20.115698
70.560 20.188416
70.565 19.915615
70.570 19.882689
70.575 19.987303
70.580 20.216471
70.585 20.124435
70.590 20.010931
70.595 19.931396
70.600 19.843109
70.605 19.980944
70.610 19.85009
70.615 19.234827
70.620 19.256193
70.625 19.103397
70.630 19.160875
70.635 19.219158
70.640 18.874763
70.645 18.413109
70.650 18.574297
70.655 18.739862
70.660 18.906097
70.665 18.494127
70.670 18.106844
70.675 18.367928
70.680 18.618891
70.685 18.701843
70.690 18.558014
70.695 18.634621
70.700 19.103472
70.705 19.586285
70.710 20.31654
70.715 20.669125
70.720 21.151163
70.725 21.371534
70.730 20.93277
70.735 20.461397
70.740 20.465828
70.745 20.345137
70.750 19.798471
70.755 20.019663
70.760 19.712574
70.765 20.135769
70.770 20.461784
70.775 20.215448
70.780 19.727226
70.785 19.80316
70.790 19.620255
70.795 19.325739
70.800 19.356106
70.805 18.837141
70.810 18.827471
70.815 19.061617
70.820 19.655252
70.825 19.505814
70.830 19.584906
70.835 19.420235
70.840 19.283978
70.845 19.579473
70.850 18.902443
70.855 17.710552
70.860 17.365097
70.865 17.633957
70.870 18.044615
70.875 17.777508
70.880 17.542837
70.885 17.830559
70.890 17.700775
70.895 17.748238
70.900 17.502831
70.905 17.227261
70.910 17.651285
70.915 17.2969
70.920 17.67061
70.925 18.776808
70.930 19.272133
70.935 19.51683
70.940 19.375475
70.945 19.148182
70.950 19.303457
70.955 19.15357
70.960 18.58181
70.965 18.175543
70.970 18.533234
70.975 18.225529
70.980 18.065014
70.985 18.187479
70.990 17.836567
70.995 18.146936
71.000 17.724361
71.005 17.700516
71.010 18.358871
71.015 19.081076
71.020 19.191299
71.025 19.122049
71.030 19.273478
71.035 19.499481
71.040 19.124023
71.045 19.118015
71.050 18.647547
71.055 18.221031
71.060 18.542421
71.065 18.653772
71.070 18.675955
71.075 18.879997
71.080 18.274187
71.085 18.141462
71.090 17.857124
71.095 17.33371
71.100 17.107773
71.105 16.970152
71.110 16.599129
71.115 16.903646
71.120 16.940052
71.125 17.342421
71.130 17.200546
71.135 17.003054
71.140 16.714666
71.145 16.950624
71.150 16.860109
71.155 17.508974
71.160 17.633533
71.165 17.526955
71.170 17.916306
71.175 18.033756
71.180 17.933517
71.185 18.463688
71.190 18.177221
71.195 18.613592
71.200 18.50518
71.205 18.730511
71.210 19.060148
71.215 18.932335
71.220 18.82687
71.225 18.481195
71.230 18.104729
71.235 18.245556
71.240 18.329979
71.245 18.503826
71.250 18.38785
71.255 18.097048
71.260 18.045162
71.265 18.334219
71.270 18.011856
71.275 17.56488
71.280 17.278086
71.285 17.736515
71.290 18.682154
71.295 18.932123
71.300 18.448002
71.305 18.95928
71.310 19.128016
71.315 19.762945
71.320 19.217432
71.325 18.592489
71.330 19.230915
71.335 19.613798
71.340 19.680082
71.345 19.841785
71.350 19.076128
71.355 18.85177
71.360 18.510691
71.365 17.929647
71.370 17.986431
71.375 18.133303
71.380 18.065084
71.385 18.613449
71.390 19.139133
71.395 19.857126
71.400 19.761374
71.405 19.602669
71.410 18.890953
71.415 18.5924
71.420 18.392387
71.425 18.072882
71.430 17.45509
71.435 17.442593
71.440 17.35327
71.445 17.827917
71.450 17.82601
71.455 18.035767
71.460 18.079527
71.465 18.225983
71.470 18.605152
71.475 18.553396
71.480 19.004169
71.485 19.020256
71.490 18.625618
71.495 18.501522
71.500 18.800978
71.505 18.831028
71.510 18.738192
71.515 18.26001
71.520 17.940432
71.525 18.399014
71.530 18.826683
71.535 18.282907
71.540 18.745113
71.545 19.325514
71.550 19.832226
71.555 19.897217
71.560 19.398417
71.565 19.197851
71.570 18.459225
71.575 17.810492
71.580 17.142099
71.585 16.846125
71.590 17.407145
71.595 17.418894
71.600 18.023794
71.605 19.465836
71.610 19.908674
71.615 20.362785
71.620 20.209915
71.625 19.976271
71.630 20.119211
71.635 19.524717
71.640 19.038616
71.645 19.185635
71.650 19.690388
71.655 19.832085
71.660 19.678061
71.665 20.040266
71.670 19.789492
71.675 18.879696
71.680 17.934465
71.685 17.649824
71.690 17.904428
71.695 18.146273
71.700 18.040173
71.705 18.761267
71.710 19.419418
71.715 20.041195
71.720 19.619961
71.725 18.637125
71.730 18.238016
71.735 18.347757
71.740 18.571247
71.745 18.544895
71.750 18.146957
71.755 18.380512
71.760 18.488035
71.765 18.360607
71.770 17.912552
71.775 17.128904
71.780 17.252649
71.785 17.40295
71.790 18.268173
71.795 18.878119
71.800 18.837414
71.805 18.738178
71.810 18.962671
71.815 18.875656
71.820 18.962219
71.825 18.325632
71.830 18.308895
71.835 18.29174
71.840 18.93362
71.845 18.593273
71.850 18.612165
71.855 18.302664
71.860 18.406715
71.865 18.721766
71.870 18.478569
71.875 18.245892
71.880 18.399334
71.885 18.623034
71.890 18.68325
71.895 18.374773
71.900 18.195868
71.905 18.565001
71.910 18.566162
71.915 18.907545
71.920 18.98979
71.925 19.219357
71.930 19.475006
71.935 19.846167
71.940 19.449524
71.945 19.541323
71.950 18.875969
71.955 18.648285
71.960 18.66296
71.965 18.669491
71.970 18.923958
71.975 19.276928
71.980 19.824137
71.985 20.417519
71.990 20.578497
71.995 20.858494
72.000 20.434769
72.005 20.276024
72.010 19.998274
72.015 19.682346
72.020 19.82939
72.025 19.782736
72.030 19.78867
72.035 19.992783
72.040 20.050259
72.045 20.399685
72.050 20.395401
72.055 19.669334
72.060 19.401443
72.065 18.941376
72.070 18.657282
72.075 18.695087
72.080 18.765625
72.085 18.063265
72.090 18.112053
72.095 17.697157
72.100 17.547766
72.105 17.501089
72.110 17.128576
72.115 16.453959
72.120 17.17701
72.125 17.64756
72.130 17.929476
72.135 17.612867
72.140 18.250793
72.145 18.163204
72.150 18.625586
72.155 19.217363
72.160 19.272156
72.165 19.463774
72.170 19.187876
72.175 18.803164
72.180 18.832796
72.185 18.41213
72.190 17.90757
72.195 18.11734
72.200 18.063486
72.205 18.359327
72.210 18.261026
72.215 18.036053
72.220 18.007851
72.225 18.210186
72.230 17.91823
72.235 18.433716
72.240 18.941452
72.245 19.015657
72.250 19.341743
72.255 18.828691
72.260 18.440285
72.265 18.773075
72.270 18.368151
72.275 18.148909
72.280 17.865042
72.285 17.551085
72.290 17.632818
72.295 17.477375
72.300 17.183619
72.305 17.891947
72.310 18.197094
72.315 19.126551
72.320 19.232319
72.325 18.979158
72.330 19.345598
72.335 19.139313
72.340 19.059547
72.345 18.815208
72.350 18.822327
72.355 19.285975
72.360 19.342407
72.365 19.337418
72.370 19.001259
72.375 18.725113
72.380 18.381718
72.385 17.871521
72.390 17.445322
72.395 17.57243
72.400 17.478704
72.405 17.237297
72.410 16.928698
72.415 17.323372
72.420 17.655659
72.425 17.391617
72.430 17.594517
72.435 18.022989
72.440 18.457651
72.445 18.416214
72.450 17.983179
72.455 17.614069
72.460 17.191217
72.465 16.888586
72.470 17.042463
72.475 17.770525
72.480 17.961349
72.485 18.326363
72.490 18.655779
72.495 19.151777
72.500 18.96364
72.505 18.467834
72.510 18.030233
72.515 18.324274
72.520 18.185762
72.525 18.227428
72.530 17.930374
72.535 17.728731
72.540 17.893341
72.545 17.775429
72.550 17.565372
72.555 17.594269
72.560 17.884926
72.565 18.893404
72.570 19.429401
72.575 19.093704
72.580 19.263838
72.585 19.133005
72.590 18.839317
72.595 19.220938
72.600 19.422493
72.605 19.378326
72.610 19.228239
72.615 18.998743
72.620 19.022709
72.625 19.450209
72.630 18.643581
72.635 17.989382
72.640 18.037374
72.645 17.598988
72.650 17.630814
72.655 17.060238
72.660 16.803257
72.665 16.521929
72.670 16.306292
72.675 16.357876
72.680 16.616037
72.685 16.980431
72.690 18.861662
72.695 19.123693
72.700 19.082636
72.705 19.121937
72.710 18.987259
72.715 18.723074
72.720 18.078211
72.725 16.890697
72.730 17.376417
72.735 17.752653
72.740 17.924271
72.745 17.960279
72.750 17.947678
72.755 17.839638
72.760 18.269709
72.765 17.929667
72.770 17.857405
72.775 17.882898
72.780 18.156315
72.785 18.71623
72.790 19.501131
72.795 19.056276
72.800 18.858459
72.805 18.578442
72.810 18.687065
72.815 18.861958
72.820 18.423252
72.825 18.201672
72.830 18.670057
72.835 19.094313
72.840 19.260242
72.845 18.681313
72.850 18.331997
72.855 18.709658
72.860 18.253864
72.865 17.495443
72.870 17.198328
72.875 17.078129
72.880 17.609533
72.885 17.564373
72.890 16.95266
72.895 16.684216
72.900 16.387529
72.905 16.471092
72.910 16.282795
72.915 15.54193
72.920 15.291441
72.925 15.518904
72.930 15.885473
72.935 16.709835
72.940 16.744698
72.945 17.061388
72.950 17.679804
72.955 18.202969
72.960 18.770401
72.965 18.565485
72.970 18.389393
72.975 18.716484
72.980 18.891588
72.985 18.798363
72.990 18.862663
72.995 18.891136
73.000 18.669941
