!@!!GADDS PLOTSO FILE: Chi integration type
!@!!Title/SampleName: map-0
!@!!Comment: ?
!@!!User: Bruker Instrument Administrator
!@!!Site: University of Illinois Chicago
!@!!Frame: map-0_01_000.gfrm
!@!!Wavelengths    1.54184   1.54056   1.54439
!@!!Frame angles: 2Theta: 63.000 Omega: 50.000 Phi: 0.000 Chi: 90.000
!@!!Integration range: 2Theta: 53.000 to 73.000  Gamma: -105.000 to -75.000
!@!!Integration method: bin normalized
!@!N
!@!SS
!@!M
!@!L 0.0 0.0 0.0 0.0
!@!XDegrees
!@!YCounts
53.000 7.131316
53.005 7.253932
53.010 7.374337
53.015 7.47195
53.020 7.624957
53.025 7.625907
53.030 7.407105
53.035 7.831052
53.040 8.007783
53.045 7.75734
53.050 7.380421
53.055 7.446577
53.060 7.504303
53.065 7.744545
53.070 7.395578
53.075 7.802836
53.080 8.1938
53.085 8.38452
53.090 8.582026
53.095 8.723835
53.100 8.801864
53.105 8.947852
53.110 8.646242
53.115 8.246469
53.120 8.222682
53.125 8.48487
53.130 8.651381
53.135 8.366974
53.140 8.424999
53.145 8.406678
53.150 8.755233
53.155 9.093901
53.160 9.371356
53.165 9.585374
53.170 9.506738
53.175 8.90567
53.180 8.859664
53.185 8.304003
53.190 8.049472
53.195 7.265243
53.200 7.203899
53.205 7.630281
53.210 7.839215
53.215 7.814378
53.220 7.526181
53.225 7.462862
53.230 7.635834
53.235 7.66123
53.240 7.475981
53.245 7.640934
53.250 7.653017
53.255 7.976208
53.260 8.006575
53.265 7.970806
53.270 7.94046
53.275 8.181713
53.280 8.256318
53.285 8.600337
53.290 8.610663
53.295 8.813766
53.300 9.323463
53.305 9.764911
53.310 9.831978
53.315 9.162754
53.320 8.555087
53.325 8.705758
53.330 8.527359
53.335 8.312618
53.340 7.809245
53.345 8.111349
53.350 8.508276
53.355 8.702813
53.360 8.724566
53.365 8.485849
53.370 8.580789
53.375 8.606337
53.380 8.757246
53.385 9.225165
53.390 9.475287
53.395 9.856628
53.400 10.027484
53.405 9.892647
53.410 9.793138
53.415 9.876897
53.420 9.354657
53.425 8.574788
53.430 8.151223
53.435 7.958575
53.440 8.348502
53.445 8.689659
53.450 8.511709
53.455 8.875096
53.460 9.15821
53.465 9.183628
53.470 9.309304
53.475 9.347683
53.480 9.000613
53.485 8.961869
53.490 8.696611
53.495 8.265913
53.500 8.168017
53.505 7.728018
53.510 7.63234
53.515 7.895752
53.520 7.934221
53.525 8.780297
53.530 9.356915
53.535 9.691833
53.540 9.487285
53.545 9.44588
53.550 9.276402
53.555 9.403111
53.560 8.74602
53.565 8.106937
53.570 8.057135
53.575 8.611381
53.580 8.485522
53.585 8.296677
53.590 8.148244
53.595 8.351681
53.600 8.812196
53.605 9.021087
53.610 9.033431
53.615 8.816529
53.620 9.125092
53.625 9.220173
53.630 9.429005
53.635 9.568015
53.640 9.056516
53.645 9.065372
53.650 9.442234
53.655 8.999636
53.660 9.29655
53.665 9.274262
53.670 9.033125
53.675 9.074807
53.680 8.916359
53.685 8.753107
53.690 8.671388
53.695 8.036315
53.700 8.141823
53.705 8.563915
53.710 8.872975
53.715 8.824229
53.720 8.763547
53.725 9.270678
53.730 9.563323
53.735 8.931208
53.740 8.437592
53.745 8.997618
53.750 9.147617
53.755 9.043981
53.760 8.650687
53.765 9.27421
53.770 9.650872
53.775 9.267718
53.780 8.906744
53.785 9.345203
53.790 9.469307
53.795 9.447229
53.800 8.949841
53.805 9.228026
53.810 9.19282
53.815 8.775215
53.820 8.657526
53.825 8.938102
53.830 8.942162
53.835 9.357553
53.840 9.328067
53.845 9.647263
53.850 10.046248
53.855 10.227206
53.860 9.760593
53.865 9.85929
53.870 9.512618
53.875 9.263697
53.880 8.770471
53.885 8.184232
53.890 7.763726
53.895 7.748829
53.900 7.265168
53.905 7.165782
53.910 7.430815
53.915 7.604383
53.920 8.047053
53.925 8.37159
53.930 8.552062
53.935 8.85342
53.940 8.989516
53.945 9.19813
53.950 9.229886
53.955 9.452654
53.960 9.300175
53.965 9.307556
53.970 9.316021
53.975 9.158277
53.980 9.40741
53.985 9.254857
53.990 8.871708
53.995 9.013677
54.000 8.708973
54.005 8.414565
54.010 8.479124
54.015 7.99537
54.020 8.25861
54.025 8.49264
54.030 8.945662
54.035 9.449074
54.040 9.765258
54.045 9.612255
54.050 9.785732
54.055 9.612343
54.060 9.907064
54.065 9.663087
54.070 9.226283
54.075 8.852791
54.080 9.008555
54.085 8.761285
54.090 8.442449
54.095 8.0897
54.100 8.068875
54.105 8.820684
54.110 9.056668
54.115 8.880497
54.120 8.84309
54.125 8.855562
54.130 8.945778
54.135 8.937426
54.140 8.171487
54.145 8.173995
54.150 8.441401
54.155 8.984832
54.160 9.195578
54.165 9.272351
54.170 9.361099
54.175 9.156165
54.180 8.686424
54.185 8.363014
54.190 8.023662
54.195 7.630412
54.200 7.614318
54.205 7.688697
54.210 8.260856
54.215 8.184186
54.220 8.201464
54.225 8.361624
54.230 8.37183
54.235 8.294465
54.240 8.270019
54.245 8.458548
54.250 8.868587
54.255 9.107595
54.260 9.337971
54.265 9.21215
54.270 9.533412
54.275 9.979178
54.280 10.221294
54.285 10.414365
54.290 10.350689
54.295 10.081725
54.300 10.076287
54.305 9.385471
54.310 8.564384
54.315 8.268511
54.320 8.005571
54.325 8.331141
54.330 8.898962
54.335 8.992191
54.340 9.263039
54.345 9.58206
54.350 10.111282
54.355 10.001591
54.360 9.666403
54.365 9.152691
54.370 9.121322
54.375 9.495589
54.380 9.594458
54.385 9.292622
54.390 9.391695
54.395 9.998322
54.400 10.12883
54.405 9.763213
54.410 9.477122
54.415 9.476353
54.420 9.603498
54.425 9.1605
54.430 8.673549
54.435 8.82313
54.440 9.564532
54.445 9.075192
54.450 8.84611
54.455 9.071513
54.460 9.45781
54.465 9.676033
54.470 9.889102
54.475 10.097053
54.480 10.835445
54.485 11.030951
54.490 10.908278
54.495 11.146983
54.500 11.223745
54.505 10.282214
54.510 9.905767
54.515 9.724456
54.520 10.04065
54.525 9.977361
54.530 10.177348
54.535 10.22766
54.540 10.576375
54.545 10.233351
54.550 10.340113
54.555 10.239856
54.560 9.937563
54.565 9.389965
54.570 9.157266
54.575 9.537218
54.580 9.651857
54.585 9.28472
54.590 9.142807
54.595 9.153301
54.600 9.578881
54.605 9.808331
54.610 9.472175
54.615 9.679484
54.620 9.393606
54.625 9.28214
54.630 9.179304
54.635 9.08488
54.640 9.005184
54.645 9.450652
54.650 9.633362
54.655 9.687048
54.660 9.759479
54.665 9.598041
54.670 9.422114
54.675 10.009912
54.680 9.917708
54.685 9.483998
54.690 9.316458
54.695 9.806729
54.700 9.945143
54.705 9.664813
54.710 8.647754
54.715 8.915676
54.720 9.489441
54.725 9.573868
54.730 9.575198
54.735 9.398148
54.740 9.587132
54.745 9.848239
54.750 9.36904
54.755 9.453961
54.760 9.566618
54.765 9.344112
54.770 9.394034
54.775 9.781442
54.780 9.835909
54.785 10.177622
54.790 10.30746
54.795 10.097065
54.800 10.84174
54.805 10.815589
54.810 10.276829
54.815 10.123116
54.820 9.723836
54.825 9.632964
54.830 9.788608
54.835 9.459555
54.840 10.131518
54.845 10.19925
54.850 10.271127
54.855 10.140971
54.860 9.816299
54.865 9.045485
54.870 8.536366
54.875 8.390334
54.880 9.043416
54.885 9.63982
54.890 9.862208
54.895 10.454038
54.900 10.74378
54.905 11.220528
54.910 10.8922
54.915 10.271472
54.920 9.900117
54.925 9.963923
54.930 9.919908
54.935 9.811446
54.940 9.265629
54.945 8.96169
54.950 9.165848
54.955 8.98773
54.960 9.047813
54.965 9.413901
54.970 10.068031
54.975 10.342544
54.980 10.36692
54.985 10.279564
54.990 10.300599
54.995 9.98404
55.000 9.902908
55.005 9.844957
55.010 9.622534
55.015 9.775165
55.020 9.970155
55.025 9.903688
55.030 10.047674
55.035 9.865964
55.040 9.816256
55.045 10.362333
55.050 10.035082
55.055 9.85811
55.060 9.771601
55.065 10.129593
55.070 10.155409
55.075 10.178219
55.080 10.434798
55.085 10.524274
55.090 10.4283
55.095 10.664067
55.100 10.08834
55.105 9.973165
55.110 10.131114
55.115 10.270141
55.120 10.671435
55.125 10.872637
55.130 10.708431
55.135 10.883224
55.140 10.729155
55.145 10.046311
55.150 9.284301
55.155 8.850951
55.160 9.098903
55.165 9.27288
55.170 9.463185
55.175 9.901009
55.180 10.463125
55.185 10.805766
55.190 10.868131
55.195 10.615319
55.200 10.835225
55.205 10.874021
55.210 10.965844
55.215 10.947283
55.220 11.282191
55.225 11.767248
55.230 11.661432
55.235 11.418978
55.240 11.001402
55.245 11.264281
55.250 11.260071
55.255 11.036998
55.260 11.218559
55.265 11.74205
55.270 12.420799
55.275 13.071466
55.280 12.934695
55.285 12.783543
55.290 12.958354
55.295 12.690297
55.300 12.403315
55.305 11.886971
55.310 11.643992
55.315 11.460923
55.320 11.085382
55.325 11.17213
55.330 11.089426
55.335 10.952533
55.340 10.845387
55.345 10.499686
55.350 10.986251
55.355 10.916713
55.360 10.618388
55.365 10.874437
55.370 11.014027
55.375 11.155379
55.380 11.037745
55.385 10.950886
55.390 11.439941
55.395 12.127539
55.400 12.280419
55.405 12.032095
55.410 12.132263
55.415 12.257524
55.420 12.05582
55.425 11.865709
55.430 11.125956
55.435 10.583028
55.440 10.342319
55.445 10.301936
55.450 10.678019
55.455 10.591463
55.460 10.285591
55.465 10.486588
55.470 11.216538
55.475 12.014883
55.480 12.071191
55.485 11.93787
55.490 12.221513
55.495 12.732243
55.500 11.967196
55.505 11.442252
55.510 10.930688
55.515 10.701071
55.520 10.808467
55.525 10.712736
55.530 10.498084
55.535 10.957028
55.540 11.042403
55.545 11.016888
55.550 11.197759
55.555 11.182579
55.560 11.169085
55.565 11.386189
55.570 11.08656
55.575 11.44686
55.580 11.422429
55.585 10.958476
55.590 10.978697
55.595 11.231855
55.600 11.256634
55.605 11.38137
55.610 11.194579
55.615 10.927808
55.620 10.823623
55.625 10.596067
55.630 10.618251
55.635 10.57871
55.640 10.018235
55.645 10.135015
55.650 10.772741
55.655 10.644905
55.660 10.054998
55.665 9.839948
55.670 10.522496
55.675 10.847461
55.680 10.594072
55.685 10.597187
55.690 11.098939
55.695 11.268003
55.700 11.799382
55.705 11.305429
55.710 10.777637
55.715 10.702059
55.720 10.834678
55.725 11.013225
55.730 11.240179
55.735 10.535481
55.740 10.465228
55.745 10.93586
55.750 11.263082
55.755 11.139735
55.760 11.049739
55.765 11.530927
55.770 11.95324
55.775 12.045371
55.780 12.064157
55.785 11.605764
55.790 11.192779
55.795 11.08566
55.800 10.605607
55.805 10.381276
55.810 10.530661
55.815 10.492117
55.820 10.643891
55.825 11.128207
55.830 11.082713
55.835 11.482022
55.840 11.82776
55.845 12.086024
55.850 12.42882
55.855 12.832106
55.860 13.166699
55.865 13.496958
55.870 13.164814
55.875 12.684829
55.880 12.391463
55.885 12.423941
55.890 11.907472
55.895 11.628773
55.900 11.305762
55.905 11.403081
55.910 12.056654
55.915 12.104376
55.920 12.030871
55.925 12.436715
55.930 12.428735
55.935 12.80341
55.940 12.765711
55.945 12.702967
55.950 12.945913
55.955 12.480355
55.960 11.835967
55.965 11.441324
55.970 11.013719
55.975 10.528211
55.980 9.96051
55.985 9.85728
55.990 9.895214
55.995 10.268519
56.000 10.655043
56.005 10.701934
56.010 11.006522
56.015 10.797465
56.020 10.374316
56.025 10.896757
56.030 11.046468
56.035 11.150747
56.040 11.651531
56.045 11.734074
56.050 12.143918
56.055 12.200669
56.060 11.670913
56.065 11.616683
56.070 11.333621
56.075 10.694696
56.080 10.88635
56.085 10.871208
56.090 10.957732
56.095 10.772092
56.100 10.797883
56.105 11.296807
56.110 12.108622
56.115 12.135224
56.120 12.654366
56.125 12.952059
56.130 12.935405
56.135 12.426145
56.140 12.488937
56.145 12.193399
56.150 12.639469
56.155 12.805631
56.160 12.756573
56.165 12.979074
56.170 12.623697
56.175 11.708447
56.180 10.957264
56.185 10.46431
56.190 9.994911
56.195 9.71321
56.200 10.034941
56.205 10.555369
56.210 11.179772
56.215 11.579103
56.220 11.413082
56.225 11.450774
56.230 11.742899
56.235 11.70289
56.240 11.892218
56.245 12.120643
56.250 12.288392
56.255 12.4849
56.260 12.623342
56.265 12.690665
56.270 12.075344
56.275 11.519157
56.280 11.014956
56.285 11.222412
56.290 11.100216
56.295 11.188646
56.300 11.037719
56.305 11.237859
56.310 11.357168
56.315 11.656057
56.320 11.402764
56.325 11.252582
56.330 11.12373
56.335 11.150345
56.340 11.118602
56.345 11.199671
56.350 10.770171
56.355 10.810597
56.360 10.885269
56.365 10.98664
56.370 11.671
56.375 12.421576
56.380 12.520086
56.385 12.822379
56.390 12.652108
56.395 12.78965
56.400 12.952806
56.405 12.995197
56.410 12.640106
56.415 12.764593
56.420 13.360871
56.425 13.755698
56.430 13.99385
56.435 13.23293
56.440 12.314336
56.445 12.481473
56.450 12.296043
56.455 11.866672
56.460 11.829021
56.465 11.652393
56.470 11.976029
56.475 12.28738
56.480 11.723557
56.485 11.498726
56.490 11.082053
56.495 10.977343
56.500 11.13358
56.505 10.634462
56.510 10.554915
56.515 10.928329
56.520 11.30946
56.525 11.434949
56.530 11.140022
56.535 11.705123
56.540 11.764039
56.545 11.492653
56.550 11.544118
56.555 11.298996
56.560 11.268962
56.565 11.524478
56.570 11.332912
56.575 11.82692
56.580 12.189676
56.585 12.445994
56.590 12.840299
56.595 13.085877
56.600 12.639231
56.605 12.478467
56.610 12.585099
56.615 12.723463
56.620 12.364061
56.625 12.016133
56.630 12.469309
56.635 12.775748
56.640 13.315112
56.645 13.260535
56.650 13.165493
56.655 13.476959
56.660 13.019643
56.665 12.641612
56.670 12.31731
56.675 11.816868
56.680 11.711669
56.685 11.710957
56.690 11.629345
56.695 11.965129
56.700 11.98957
56.705 12.133307
56.710 12.290652
56.715 12.226995
56.720 12.382048
56.725 12.711163
56.730 13.139088
56.735 13.041533
56.740 12.879295
56.745 12.834711
56.750 12.834208
56.755 12.643768
56.760 12.478045
56.765 12.291752
56.770 12.517867
56.775 12.841915
56.780 13.326154
56.785 13.426022
56.790 13.398783
56.795 12.831316
56.800 12.832221
56.805 13.228579
56.810 13.357168
56.815 12.928281
56.820 13.077296
56.825 13.422859
56.830 13.94344
56.835 14.206966
56.840 14.493187
56.845 14.24113
56.850 14.55325
56.855 14.474783
56.860 13.987279
56.865 13.783982
56.870 13.446135
56.875 13.093542
56.880 13.036926
56.885 12.518676
56.890 12.384295
56.895 12.790719
56.900 13.168529
56.905 13.051735
56.910 12.596724
56.915 12.742098
56.920 13.15197
56.925 13.450564
56.930 13.150135
56.935 12.949544
56.940 13.348446
56.945 13.482786
56.950 12.974011
56.955 12.44083
56.960 12.461546
56.965 12.58532
56.970 12.742671
56.975 12.78211
56.980 13.022093
56.985 13.123527
56.990 13.562014
56.995 13.522463
57.000 13.232175
57.005 12.632087
57.010 12.482051
57.015 12.652755
57.020 13.018805
57.025 13.013202
57.030 13.01823
57.035 13.330627
57.040 13.743726
57.045 13.687016
57.050 13.76594
57.055 14.092307
57.060 13.584318
57.065 13.639829
57.070 13.410233
57.075 14.043183
57.080 14.255363
57.085 13.460008
57.090 12.913367
57.095 13.274268
57.100 13.402304
57.105 13.385793
57.110 12.56121
57.115 12.540841
57.120 13.159454
57.125 13.447239
57.130 12.939945
57.135 12.674393
57.140 12.988926
57.145 13.266329
57.150 13.29184
57.155 13.389809
57.160 13.498488
57.165 13.549294
57.170 13.923423
57.175 13.781465
57.180 13.300317
57.185 12.546808
57.190 12.222408
57.195 12.316306
57.200 12.485427
57.205 12.195963
57.210 12.008892
57.215 12.348793
57.220 12.735413
57.225 12.686475
57.230 12.251678
57.235 11.794916
57.240 11.695044
57.245 12.179162
57.250 12.187161
57.255 12.514409
57.260 12.495089
57.265 12.693102
57.270 13.104826
57.275 13.103248
57.280 12.643173
57.285 12.357232
57.290 12.025579
57.295 12.114429
57.300 12.250535
57.305 12.087048
57.310 11.769139
57.315 11.275534
57.320 11.217255
57.325 10.859743
57.330 11.12433
57.335 11.686411
57.340 11.840811
57.345 12.450749
57.350 13.554912
57.355 14.066009
57.360 14.343023
57.365 14.381626
57.370 14.306491
57.375 14.914186
57.380 15.024461
57.385 14.479411
57.390 14.430771
57.395 14.599493
57.400 14.028713
57.405 13.502572
57.410 13.301966
57.415 12.848428
57.420 12.829566
57.425 12.735786
57.430 12.640475
57.435 13.08443
57.440 13.335442
57.445 13.071895
57.450 13.609471
57.455 13.613061
57.460 13.912992
57.465 13.879247
57.470 13.756288
57.475 13.753527
57.480 14.239574
57.485 14.451464
57.490 14.736349
57.495 14.196162
57.500 14.334897
57.505 14.188683
57.510 13.564563
57.515 12.98937
57.520 12.231782
57.525 11.98096
57.530 12.257633
57.535 12.112304
57.540 12.47604
57.545 12.777895
57.550 12.992322
57.555 13.349923
57.560 13.789823
57.565 13.682266
57.570 14.025876
57.575 14.130108
57.580 14.203238
57.585 14.502855
57.590 14.478641
57.595 14.235953
57.600 14.211742
57.605 13.855258
57.610 13.705438
57.615 13.4189
57.620 13.267365
57.625 13.883069
57.630 14.105173
57.635 14.462638
57.640 14.645917
57.645 14.608196
57.650 14.803808
57.655 14.781979
57.660 14.620453
57.665 14.695529
57.670 14.06479
57.675 14.006932
57.680 13.898542
57.685 13.696564
57.690 13.428398
57.695 13.143383
57.700 12.541228
57.705 12.698326
57.710 12.418295
57.715 12.452885
57.720 12.837706
57.725 12.872584
57.730 13.09236
57.735 13.725451
57.740 13.715693
57.745 13.662854
57.750 13.732203
57.755 13.722213
57.760 13.877908
57.765 13.947618
57.770 13.664968
57.775 13.859198
57.780 14.492801
57.785 14.718789
57.790 14.256688
57.795 13.841011
57.800 13.378413
57.805 13.664495
57.810 13.926132
57.815 13.495911
57.820 12.987017
57.825 13.260412
57.830 14.101122
57.835 14.971471
57.840 15.141192
57.845 14.803349
57.850 15.141193
57.855 15.526399
57.860 15.031738
57.865 13.59112
57.870 12.629296
57.875 12.392348
57.880 12.208132
57.885 12.392908
57.890 12.768537
57.895 13.171207
57.900 14.111393
57.905 14.677685
57.910 14.895095
57.915 15.445788
57.920 15.076631
57.925 15.081403
57.930 14.965381
57.935 14.238864
57.940 13.55122
57.945 13.03004
57.950 12.890347
57.955 12.700166
57.960 12.474344
57.965 12.50748
57.970 13.21009
57.975 14.352939
57.980 14.827591
57.985 15.048319
57.990 15.70644
57.995 15.821337
58.000 15.977776
58.005 15.774397
58.010 15.19171
58.015 15.052161
58.020 14.962048
58.025 14.308612
58.030 14.336585
58.035 14.600558
58.040 14.208451
58.045 14.36007
58.050 13.806422
58.055 13.808471
58.060 14.193559
58.065 13.790422
58.070 13.648242
58.075 13.689969
58.080 13.624979
58.085 13.494299
58.090 13.280141
58.095 13.032745
58.100 13.150425
58.105 13.49387
58.110 13.417241
58.115 13.789416
58.120 14.258584
58.125 14.309121
58.130 14.099209
58.135 14.065941
58.140 14.093747
58.145 14.312073
58.150 14.579699
58.155 14.146188
58.160 14.171392
58.165 14.260317
58.170 14.156475
58.175 13.842885
58.180 13.824148
58.185 13.780518
58.190 14.359526
58.195 14.006579
58.200 14.143854
58.205 13.788689
58.210 13.60729
58.215 13.796304
58.220 13.453634
58.225 13.38465
58.230 13.603253
58.235 13.954398
58.240 14.646482
58.245 14.869394
58.250 15.14257
58.255 15.472054
58.260 15.40081
58.265 15.299497
58.270 15.396603
58.275 14.994722
58.280 15.355944
58.285 15.244934
58.290 15.234385
58.295 15.349339
58.300 15.738415
58.305 15.52579
58.310 15.475778
58.315 14.805193
58.320 15.090412
58.325 15.115219
58.330 15.008175
58.335 14.6674
58.340 14.61635
58.345 14.503326
58.350 14.566603
58.355 14.496332
58.360 14.267457
58.365 14.275652
58.370 13.949902
58.375 14.119046
58.380 14.304374
58.385 13.655739
58.390 13.308818
58.395 13.570115
58.400 13.933546
58.405 14.721974
58.410 14.61676
58.415 14.885352
58.420 15.115077
58.425 14.731536
58.430 14.797418
58.435 14.356864
58.440 13.729561
58.445 13.916073
58.450 13.739948
58.455 14.035143
58.460 14.528515
58.465 14.720685
58.470 15.07398
58.475 15.057844
58.480 15.062114
58.485 14.99475
58.490 14.525888
58.495 14.396167
58.500 14.394135
58.505 14.112466
58.510 14.898352
58.515 15.031065
58.520 15.253152
58.525 15.733648
58.530 15.424054
58.535 14.731434
58.540 14.858929
58.545 14.164477
58.550 14.024606
58.555 14.280107
58.560 14.191308
58.565 14.244867
58.570 14.827518
58.575 14.703957
58.580 14.813601
58.585 14.398431
58.590 14.220941
58.595 14.01484
58.600 13.85146
58.605 13.77269
58.610 14.051093
58.615 14.096061
58.620 14.707384
58.625 14.964627
58.630 15.348486
58.635 15.880309
58.640 15.870579
58.645 15.985022
58.650 16.38726
58.655 15.85445
58.660 15.797501
58.665 16.034456
58.670 15.789896
58.675 16.267139
58.680 16.018627
58.685 16.028135
58.690 16.198439
58.695 15.879826
58.700 15.299774
58.705 14.964137
58.710 14.3426
58.715 14.200752
58.720 14.154399
58.725 13.905015
58.730 14.027577
58.735 14.774673
58.740 15.429568
58.745 16.095915
58.750 16.301895
58.755 16.330904
58.760 16.878193
58.765 17.04006
58.770 16.365936
58.775 16.127029
58.780 15.622916
58.785 15.59651
58.790 15.252044
58.795 14.459829
58.800 13.571047
58.805 13.966581
58.810 14.332632
58.815 14.125736
58.820 13.27576
58.825 13.813293
58.830 14.533731
58.835 15.180031
58.840 14.879023
58.845 14.628302
58.850 15.138224
58.855 15.826078
58.860 15.297783
58.865 14.82268
58.870 14.70388
58.875 14.805394
58.880 14.853224
58.885 14.738661
58.890 14.408252
58.895 14.2941
58.900 15.132116
58.905 14.559691
58.910 14.834599
58.915 14.702197
58.920 14.464335
58.925 14.869296
58.930 15.268784
58.935 15.228015
58.940 15.305345
58.945 15.48863
58.950 15.418273
58.955 15.04329
58.960 14.828158
58.965 14.700778
58.970 14.679467
58.975 15.046939
58.980 14.269016
58.985 14.132795
58.990 15.037419
58.995 14.990026
59.000 14.678778
59.005 14.503153
59.010 14.585743
59.015 14.738021
59.020 15.073265
59.025 14.591226
59.030 15.044548
59.035 15.706454
59.040 16.293438
59.045 16.648012
59.050 16.336966
59.055 15.674472
59.060 15.561112
59.065 15.054408
59.070 14.8772
59.075 14.926154
59.080 15.36904
59.085 15.691792
59.090 16.390829
59.095 16.693022
59.100 17.114344
59.105 17.081232
59.110 16.342966
59.115 15.202713
59.120 14.900023
59.125 14.389638
59.130 14.960354
59.135 14.867144
59.140 14.881224
59.145 15.570665
59.150 16.197641
59.155 16.609064
59.160 17.065498
59.165 16.438478
59.170 15.927509
59.175 15.673734
59.180 15.12073
59.185 15.204424
59.190 15.391318
59.195 15.495324
59.200 16.274294
59.205 16.730587
59.210 16.789677
59.215 16.358553
59.220 15.599633
59.225 15.605024
59.230 15.603966
59.235 15.46654
59.240 15.741269
59.245 16.206606
59.250 16.746365
59.255 17.483881
59.260 17.356899
59.265 16.930628
59.270 16.458319
59.275 15.803308
59.280 15.456303
59.285 15.195879
59.290 14.854297
59.295 14.724671
59.300 15.036736
59.305 14.932208
59.310 14.781141
59.315 15.049985
59.320 15.758181
59.325 15.859867
59.330 15.740424
59.335 15.873643
59.340 16.131844
59.345 16.161819
59.350 15.820911
59.355 16.179783
59.360 16.279684
59.365 16.384279
59.370 16.08988
59.375 16.180521
59.380 16.622709
59.385 16.683153
59.390 16.770876
59.395 16.819759
59.400 16.405205
59.405 16.26885
59.410 16.559164
59.415 16.451107
59.420 16.379627
59.425 15.632504
59.430 16.312269
59.435 16.718267
59.440 16.719067
59.445 16.550119
59.450 16.590794
59.455 16.817978
59.460 17.005985
59.465 15.611559
59.470 15.125395
59.475 14.97239
59.480 15.398925
59.485 15.810515
59.490 16.149906
59.495 16.109222
59.500 17.069572
59.505 17.664949
59.510 17.341972
59.515 16.932426
59.520 16.554367
59.525 16.18302
59.530 16.102644
59.535 15.797333
59.540 15.925385
59.545 16.172113
59.550 16.547274
59.555 16.821697
59.560 17.093687
59.565 17.554197
59.570 18.120188
59.575 18.418936
59.580 18.381338
59.585 17.532734
59.590 17.33596
59.595 17.288719
59.600 16.503822
59.605 16.239206
59.610 15.881856
59.615 15.933092
59.620 16.384823
59.625 16.485033
59.630 16.315409
59.635 16.654646
59.640 16.594553
59.645 16.7642
59.650 17.009195
59.655 16.623163
59.660 16.293041
59.665 16.438332
59.670 16.371929
59.675 16.11796
59.680 16.691902
59.685 17.632481
59.690 18.09779
59.695 17.82601
59.700 18.463823
59.705 18.665854
59.710 19.178513
59.715 18.79266
59.720 18.009073
59.725 18.039028
59.730 18.6112
59.735 18.995079
59.740 19.190996
59.745 18.764273
59.750 18.688665
59.755 18.450966
59.760 18.454615
59.765 18.655266
59.770 18.196186
59.775 18.126297
59.780 18.667234
59.785 19.089802
59.790 19.702057
59.795 19.869461
59.800 19.298616
59.805 18.772377
59.810 18.643991
59.815 17.824934
59.820 17.392084
59.825 17.068441
59.830 16.674942
59.835 17.225569
59.840 17.582344
59.845 18.041586
59.850 18.451857
59.855 18.577623
59.860 18.826658
59.865 19.078825
59.870 18.799248
59.875 18.913691
59.880 18.310963
59.885 17.922787
59.890 17.76569
59.895 17.38542
59.900 16.943897
59.905 16.944714
59.910 16.919689
59.915 17.318758
59.920 17.569927
59.925 17.620634
59.930 18.345104
59.935 18.789455
59.940 18.868387
59.945 18.613754
59.950 18.24025
59.955 17.79183
59.960 17.365952
59.965 17.256792
59.970 16.913912
59.975 17.285751
59.980 17.972193
59.985 18.662111
59.990 19.674137
59.995 20.760353
60.000 20.979773
60.005 21.586655
60.010 20.938875
60.015 20.514484
60.020 20.454628
60.025 20.386478
60.030 20.061602
60.035 19.924463
60.040 19.508978
60.045 20.934034
60.050 22.074154
60.055 21.539055
60.060 21.724142
60.065 21.983107
60.070 21.902815
60.075 21.65196
60.080 20.656061
60.085 19.9604
60.090 20.510895
60.095 19.999519
60.100 19.794035
60.105 19.917717
60.110 19.935209
60.115 19.998117
60.120 20.332205
60.125 20.311445
60.130 20.12846
60.135 20.38361
60.140 20.500574
60.145 20.891354
60.150 20.764282
60.155 20.071089
60.160 19.76786
60.165 19.926548
60.170 20.278534
60.175 20.330976
60.180 20.719479
60.185 21.295605
60.190 22.077387
60.195 22.367144
60.200 23.028618
60.205 22.914066
60.210 22.975454
60.215 22.865189
60.220 22.315426
60.225 21.71575
60.230 21.047829
60.235 19.772856
60.240 19.893511
60.245 19.91074
60.250 19.634109
60.255 19.721506
60.260 20.46487
60.265 20.842743
60.270 21.108992
60.275 20.711136
60.280 20.972782
60.285 21.095631
60.290 21.906818
60.295 21.561153
60.300 21.575836
60.305 21.635906
60.310 21.782148
60.315 21.729166
60.320 21.448402
60.325 20.693218
60.330 20.547028
60.335 20.873661
60.340 21.203537
60.345 20.837626
60.350 20.41238
60.355 20.620506
60.360 20.703253
60.365 21.54587
60.370 22.104389
60.375 22.063187
60.380 21.924906
60.385 21.632204
60.390 21.454638
60.395 21.708981
60.400 20.374277
60.405 19.239347
60.410 18.666029
60.415 19.267103
60.420 19.691286
60.425 19.161909
60.430 18.866768
60.435 18.790545
60.440 19.353079
60.445 19.520737
60.450 19.514919
60.455 20.194195
60.460 21.064352
60.465 21.36624
60.470 21.485779
60.475 21.467297
60.480 21.430197
60.485 21.362944
60.490 21.175699
60.495 20.817657
60.500 20.639147
60.505 21.227917
60.510 21.513042
60.515 22.040392
60.520 21.568129
60.525 21.759529
60.530 21.72139
60.535 21.12738
60.540 20.790056
60.545 20.522547
60.550 20.106468
60.555 20.251476
60.560 19.929438
60.565 19.955732
60.570 20.411158
60.575 20.166801
60.580 19.804346
60.585 20.122011
60.590 20.628809
60.595 20.977074
60.600 20.93335
60.605 20.554117
60.610 20.358166
60.615 20.447504
60.620 20.363783
60.625 19.690811
60.630 19.325558
60.635 19.576015
60.640 20.408827
60.645 20.266409
60.650 20.20603
60.655 19.745625
60.660 19.489208
60.665 18.954018
60.670 18.517958
60.675 17.218538
60.680 17.09675
60.685 16.705564
60.690 16.37154
60.695 16.262356
60.700 16.571476
60.705 16.486252
60.710 16.935923
60.715 16.96397
60.720 17.281355
60.725 17.65613
60.730 17.724943
60.735 17.533934
60.740 17.733385
60.745 17.891212
60.750 18.253271
60.755 18.552021
60.760 18.916016
60.765 19.294676
60.770 19.665823
60.775 19.425369
60.780 19.305796
60.785 19.045492
60.790 19.183142
60.795 18.367899
60.800 18.246811
60.805 18.011545
60.810 18.119547
60.815 18.676313
60.820 18.497391
60.825 17.840528
60.830 18.187328
60.835 18.264704
60.840 17.870119
60.845 18.274029
60.850 17.876545
60.855 17.890583
60.860 17.91798
60.865 18.054171
60.870 17.91147
60.875 18.308382
60.880 18.302397
60.885 18.224707
60.890 18.458153
60.895 18.43078
60.900 18.683554
60.905 18.765118
60.910 18.5576
60.915 17.36887
60.920 17.145418
60.925 17.177151
60.930 16.917274
60.935 16.062456
60.940 15.595738
60.945 15.501399
60.950 16.015862
60.955 16.175539
60.960 16.128433
60.965 16.110416
60.970 16.650396
60.975 17.110655
60.980 17.262709
60.985 17.879847
60.990 18.077349
60.995 17.750914
61.000 17.87925
61.005 17.794598
61.010 17.89481
61.015 17.692556
61.020 16.956806
61.025 16.601139
61.030 16.834707
61.035 17.179155
61.040 17.725077
61.045 17.498899
61.050 17.556412
61.055 18.456877
61.060 18.735851
61.065 18.444216
61.070 18.052061
61.075 17.612818
61.080 17.771826
61.085 18.015965
61.090 17.180965
61.095 16.386248
61.100 16.139191
61.105 16.272219
61.110 16.046629
61.115 15.388023
61.120 14.877405
61.125 14.702199
61.130 15.306615
61.135 15.637692
61.140 15.390935
61.145 15.68827
61.150 15.79869
61.155 15.763229
61.160 15.798042
61.165 15.281572
61.170 15.172919
61.175 15.086303
61.180 14.783876
61.185 15.027709
61.190 15.658463
61.195 16.411814
61.200 17.135212
61.205 17.452488
61.210 18.045572
61.215 18.320999
61.220 18.749685
61.225 18.400396
61.230 17.892422
61.235 17.793488
61.240 17.567429
61.245 17.119905
61.250 16.718367
61.255 16.389919
61.260 16.87006
61.265 17.385792
61.270 17.303745
61.275 17.553749
61.280 17.828461
61.285 18.132006
61.290 18.014915
61.295 17.306133
61.300 16.869537
61.305 17.098326
61.310 16.825062
61.315 16.682373
61.320 16.417042
61.325 16.121954
61.330 16.039845
61.335 16.234894
61.340 15.740165
61.345 15.163639
61.350 14.980997
61.355 15.630274
61.360 16.10216
61.365 16.256151
61.370 16.233122
61.375 16.659651
61.380 17.472363
61.385 17.66926
61.390 17.879726
61.395 17.366329
61.400 17.191553
61.405 17.8104
61.410 18.258997
61.415 18.116385
61.420 18.041597
61.425 17.874817
61.430 18.115896
61.435 17.823318
61.440 17.07555
61.445 16.697718
61.450 16.641874
61.455 16.632917
61.460 15.826778
61.465 15.804021
61.470 15.515761
61.475 15.868835
61.480 16.017115
61.485 16.019258
61.490 15.793988
61.495 16.401682
61.500 16.736946
61.505 16.762085
61.510 15.996369
61.515 15.759295
61.520 15.978276
61.525 16.144434
61.530 16.488638
61.535 16.384785
61.540 16.713259
61.545 17.176939
61.550 16.956007
61.555 17.0658
61.560 16.799213
61.565 16.636681
61.570 16.835413
61.575 17.001394
61.580 17.130093
61.585 17.27977
61.590 17.442513
61.595 17.728056
61.600 17.203535
61.605 16.908764
61.610 16.975809
61.615 16.589388
61.620 16.815519
61.625 16.582161
61.630 16.208513
61.635 16.162962
61.640 16.100716
61.645 15.67153
61.650 15.979377
61.655 15.928299
61.660 16.034561
61.665 16.151939
61.670 16.447443
61.675 16.719032
61.680 17.060562
61.685 17.257677
61.690 17.110428
61.695 17.294918
61.700 17.540375
61.705 17.642385
61.710 17.979837
61.715 17.35689
61.720 16.770025
61.725 16.340467
61.730 15.607405
61.735 15.556225
61.740 15.458708
61.745 15.23278
61.750 15.387627
61.755 15.432011
61.760 15.915383
61.765 16.283045
61.770 16.528936
61.775 16.040634
61.780 15.706409
61.785 16.044981
61.790 16.634062
61.795 16.886448
61.800 16.665508
61.805 16.419136
61.810 16.895521
61.815 17.199717
61.820 17.237196
61.825 16.98727
61.830 17.278461
61.835 17.565639
61.840 18.084146
61.845 18.026957
61.850 17.917131
61.855 18.00354
61.860 17.896662
61.865 17.609137
61.870 17.627277
61.875 17.442678
61.880 17.632618
61.885 18.183908
61.890 18.560888
61.895 18.827717
61.900 19.27383
61.905 19.623049
61.910 19.274521
61.915 19.163465
61.920 18.537809
61.925 17.828323
61.930 17.127268
61.935 16.629242
61.940 16.31098
61.945 16.489992
61.950 16.582764
61.955 16.388556
61.960 16.593891
61.965 16.93203
61.970 16.890438
61.975 16.430315
61.980 16.140398
61.985 15.881885
61.990 16.021732
61.995 16.130453
62.000 16.114416
62.005 16.002224
62.010 16.189989
62.015 15.833903
62.020 16.000992
62.025 15.917669
62.030 15.793869
62.035 15.891132
62.040 16.007307
62.045 16.066084
62.050 16.23605
62.055 15.88741
62.060 15.637965
62.065 15.309469
62.070 15.368708
62.075 15.473517
62.080 15.673107
62.085 16.028755
62.090 16.555475
62.095 17.134336
62.100 17.272177
62.105 16.688011
62.110 17.046946
62.115 17.162125
62.120 16.893665
62.125 16.515245
62.130 16.255762
62.135 16.767092
62.140 17.618172
62.145 17.563255
62.150 17.703192
62.155 18.112467
62.160 18.339018
62.165 18.594105
62.170 18.562243
62.175 18.31728
62.180 18.475357
62.185 18.091576
62.190 17.584124
62.195 17.496817
62.200 16.995157
62.205 16.448046
62.210 16.290174
62.215 16.477543
62.220 16.519793
62.225 16.272551
62.230 16.039442
62.235 15.896682
62.240 15.893483
62.245 15.597119
62.250 15.229625
62.255 14.967119
62.260 15.025701
62.265 14.946448
62.270 15.282846
62.275 15.408856
62.280 14.945753
62.285 14.62244
62.290 15.230527
62.295 15.755481
62.300 16.17391
62.305 16.098082
62.310 16.479813
62.315 16.996088
62.320 17.237064
62.325 17.457529
62.330 17.357084
62.335 17.213753
62.340 16.842234
62.345 16.354565
62.350 16.067707
62.355 16.329903
62.360 16.152861
62.365 15.777503
62.370 15.936739
62.375 16.437061
62.380 16.666245
62.385 16.684324
62.390 16.389292
62.395 16.543247
62.400 16.728086
62.405 16.727972
62.410 16.954388
62.415 17.157085
62.420 17.595917
62.425 17.425333
62.430 17.49412
62.435 17.396404
62.440 17.464119
62.445 17.291553
62.450 17.264883
62.455 16.791939
62.460 17.66894
62.465 17.894384
62.470 17.65591
62.475 17.286873
62.480 16.984776
62.485 16.882589
62.490 17.209858
62.495 16.835625
62.500 16.906693
62.505 17.150665
62.510 16.951317
62.515 17.338905
62.520 17.650953
62.525 18.246805
62.530 18.139202
62.535 18.200813
62.540 18.14584
62.545 18.245029
62.550 17.942043
62.555 17.580547
62.560 17.10581
62.565 17.128281
62.570 17.114813
62.575 17.664104
62.580 17.958385
62.585 18.527767
62.590 18.772589
62.595 18.302099
62.600 18.301317
62.605 17.520056
62.610 16.717777
62.615 16.675262
62.620 16.670965
62.625 16.509941
62.630 16.687361
62.635 16.390198
62.640 16.520159
62.645 16.925346
62.650 16.896736
62.655 15.947897
62.660 15.987246
62.665 15.905295
62.670 16.583958
62.675 17.296341
62.680 17.293694
62.685 17.498743
62.690 18.104666
62.695 17.789877
62.700 17.657938
62.705 16.850494
62.710 16.126005
62.715 15.852919
62.720 15.713239
62.725 16.14267
62.730 16.458944
62.735 16.372725
62.740 16.537214
62.745 17.247469
62.750 17.569225
62.755 17.760124
62.760 17.790644
62.765 17.927015
62.770 17.939663
62.775 17.678202
62.780 17.073065
62.785 17.264519
62.790 17.30201
62.795 16.828831
62.800 16.503603
62.805 16.496498
62.810 16.657413
62.815 16.670036
62.820 16.068514
62.825 15.96401
62.830 16.057568
62.835 16.023077
62.840 16.081402
62.845 16.153833
62.850 16.417768
62.855 16.571032
62.860 16.480259
62.865 16.34486
62.870 16.528563
62.875 16.979033
62.880 17.30093
62.885 16.889181
62.890 16.933678
62.895 16.793922
62.900 16.458063
62.905 16.102701
62.910 15.343545
62.915 15.154838
62.920 15.240963
62.925 15.095486
62.930 14.783356
62.935 14.842455
62.940 15.059033
62.945 15.434406
62.950 15.323353
62.955 15.122201
62.960 14.846992
62.965 15.164499
62.970 15.454285
62.975 15.636604
62.980 15.690189
62.985 15.669785
62.990 16.339195
62.995 16.815172
63.000 16.812986
63.005 16.548109
63.010 16.404219
63.015 16.374401
63.020 16.554325
63.025 16.086946
63.030 16.222565
63.035 16.463629
63.040 16.38142
63.045 16.836901
63.050 17.112318
63.055 17.17552
63.060 16.922405
63.065 17.13201
63.070 17.559666
63.075 17.874928
63.080 17.569033
63.085 17.285881
63.090 17.565334
63.095 17.351681
63.100 17.133045
63.105 16.693729
63.110 16.353497
63.115 16.780111
63.120 17.260509
63.125 17.577028
63.130 18.029236
63.135 17.370874
63.140 17.455626
63.145 17.518158
63.150 16.773884
63.155 16.649834
63.160 16.715155
63.165 17.29871
63.170 17.827776
63.175 17.819675
63.180 18.259789
63.185 18.266085
63.190 17.751755
63.195 17.165821
63.200 16.94626
63.205 16.985512
63.210 17.467924
63.215 17.843348
63.220 17.97546
63.225 17.951874
63.230 18.78504
63.235 18.89624
63.240 18.74168
63.245 18.07637
63.250 17.780855
63.255 17.949003
63.260 17.99198
63.265 16.973801
63.270 16.562738
63.275 17.040073
63.280 18.053318
63.285 17.677052
63.290 17.626387
63.295 17.369244
63.300 17.610659
63.305 17.615524
63.310 17.43334
63.315 16.814049
63.320 16.990137
63.325 17.141436
63.330 17.531752
63.335 17.803694
63.340 17.560459
63.345 17.000784
63.350 16.825089
63.355 16.562986
63.360 17.268942
63.365 17.012516
63.370 16.726395
63.375 17.139042
63.380 17.729328
63.385 17.572542
63.390 17.739908
63.395 17.189341
63.400 17.220333
63.405 17.679533
63.410 17.723244
63.415 17.644426
63.420 17.734882
63.425 17.399649
63.430 16.989471
63.435 17.236137
63.440 16.776546
63.445 16.746077
63.450 17.028574
63.455 17.295214
63.460 17.327705
63.465 17.224146
63.470 17.474115
63.475 17.56942
63.480 17.3451
63.485 17.206816
63.490 16.994921
63.495 17.534784
63.500 17.714008
63.505 17.125542
63.510 16.534986
63.515 15.909543
63.520 15.272612
63.525 14.925318
63.530 15.004784
63.535 15.154999
63.540 15.801399
63.545 16.533098
63.550 17.584543
63.555 17.915867
63.560 18.095728
63.565 17.601486
63.570 16.787704
63.575 16.542734
63.580 16.510075
63.585 16.372225
63.590 17.292618
63.595 17.710211
63.600 18.100452
63.605 18.707838
63.610 18.718836
63.615 18.277569
63.620 18.135698
63.625 17.685644
63.630 17.351263
63.635 17.974689
63.640 18.365622
63.645 18.210932
63.650 18.588745
63.655 19.043779
63.660 19.179203
63.665 19.361446
63.670 18.412762
63.675 17.793657
63.680 18.550293
63.685 18.836771
63.690 18.470348
63.695 18.158314
63.700 18.584871
63.705 19.179567
63.710 18.898247
63.715 18.180309
63.720 18.205217
63.725 19.006849
63.730 19.585117
63.735 19.336971
63.740 19.158178
63.745 19.427137
63.750 19.967941
63.755 19.332922
63.760 18.152254
63.765 17.575226
63.770 17.686424
63.775 17.823565
63.780 17.429369
63.785 16.763378
63.790 16.771219
63.795 16.812031
63.800 16.579733
63.805 16.528158
63.810 16.357594
63.815 16.543423
63.820 16.933323
63.825 16.959299
63.830 17.308044
63.835 17.257437
63.840 16.827511
63.845 16.918209
63.850 17.169792
63.855 16.646864
63.860 15.923228
63.865 15.139172
63.870 15.236154
63.875 15.565962
63.880 15.658343
63.885 15.744796
63.890 16.521339
63.895 17.511871
63.900 18.288246
63.905 17.910688
63.910 17.388548
63.915 17.336826
63.920 17.125437
63.925 16.570656
63.930 16.057869
63.935 15.701642
63.940 16.272251
63.945 16.721994
63.950 16.91902
63.955 17.187952
63.960 18.077143
63.965 18.67132
63.970 18.823029
63.975 18.418741
63.980 18.789804
63.985 19.226816
63.990 19.1749
63.995 19.131004
64.000 18.879375
64.005 18.711199
64.010 19.243105
64.015 19.308485
64.020 19.058989
64.025 19.499434
64.030 19.332781
64.035 19.54328
64.040 19.712448
64.045 19.52482
64.050 19.109539
64.055 18.941231
64.060 18.323004
64.065 18.090046
64.070 18.232378
64.075 18.156429
64.080 18.020329
64.085 18.174501
64.090 17.669575
64.095 17.507431
64.100 17.182228
64.105 17.195042
64.110 17.587606
64.115 17.272366
64.120 17.046865
64.125 17.117073
64.130 16.938334
64.135 17.32543
64.140 17.132504
64.145 16.929491
64.150 17.009684
64.155 17.505827
64.160 18.326969
64.165 18.739082
64.170 18.843454
64.175 18.77696
64.180 18.655334
64.185 18.588661
64.190 17.934774
64.195 17.434187
64.200 17.463923
64.205 17.390259
64.210 17.790016
64.215 17.895964
64.220 18.501665
64.225 18.87031
64.230 18.428083
64.235 17.504656
64.240 17.598221
64.245 17.064074
64.250 17.081337
64.255 16.979097
64.260 17.277065
64.265 17.696646
64.270 18.088764
64.275 18.499292
64.280 18.642803
64.285 18.373123
64.290 17.517975
64.295 17.366266
64.300 18.077816
64.305 18.566452
64.310 17.988398
64.315 17.606876
64.320 17.718845
64.325 18.224947
64.330 18.354609
64.335 17.974627
64.340 17.943623
64.345 18.774212
64.350 19.457907
64.355 19.394838
64.360 19.088507
64.365 19.3934
64.370 19.000448
64.375 18.296543
64.380 17.96167
64.385 18.750584
64.390 18.839813
64.395 19.108789
64.400 18.835033
64.405 18.746733
64.410 18.486183
64.415 17.855999
64.420 17.472996
64.425 17.67518
64.430 17.837254
64.435 18.347004
64.440 18.86499
64.445 18.904404
64.450 19.038061
64.455 18.570663
64.460 18.271807
64.465 18.454912
64.470 17.890772
64.475 18.090385
64.480 18.748648
64.485 19.21347
64.490 19.784126
64.495 20.234709
64.500 19.912804
64.505 19.704416
64.510 19.213409
64.515 19.052744
64.520 19.105665
64.525 18.98699
64.530 18.987774
64.535 18.79744
64.540 18.660446
64.545 19.053648
64.550 18.846272
64.555 18.362675
64.560 18.140539
64.565 17.984194
64.570 18.462156
64.575 18.97674
64.580 19.050026
64.585 19.116835
64.590 19.170139
64.595 19.706898
64.600 19.642015
64.605 19.341431
64.610 19.437372
64.615 19.260056
64.620 19.535406
64.625 20.114584
64.630 20.09366
64.635 20.545027
64.640 20.557772
64.645 20.123779
64.650 20.022133
64.655 19.906385
64.660 19.067595
64.665 18.724859
64.670 18.35733
64.675 18.250235
64.680 18.62829
64.685 18.42387
64.690 17.920111
64.695 18.612474
64.700 18.466759
64.705 18.679865
64.710 19.147577
64.715 18.780823
64.720 19.153572
64.725 19.826715
64.730 19.742956
64.735 20.353573
64.740 20.273655
64.745 20.395477
64.750 20.874088
64.755 20.612719
64.760 20.272858
64.765 20.543924
64.770 19.860371
64.775 19.453236
64.780 19.490292
64.785 19.618057
64.790 19.483011
64.795 19.742971
64.800 19.412724
64.805 19.766817
64.810 20.370972
64.815 19.421124
64.820 19.53182
64.825 19.654015
64.830 19.876719
64.835 20.173311
64.840 20.3582
64.845 20.133179
64.850 20.512735
64.855 20.567785
64.860 20.602959
64.865 20.260305
64.870 20.101809
64.875 20.19663
64.880 19.656748
64.885 19.74361
64.890 19.375021
64.895 19.441412
64.900 19.382584
64.905 19.15447
64.910 19.272781
64.915 20.163164
64.920 20.447918
64.925 21.109509
64.930 21.033556
64.935 20.962791
64.940 21.213373
64.945 20.733011
64.950 20.087994
64.955 19.798647
64.960 19.294741
64.965 19.547663
64.970 19.850773
64.975 19.72998
64.980 20.635984
64.985 21.180908
64.990 21.412624
64.995 21.867069
65.000 22.04612
65.005 21.964598
65.010 21.497627
65.015 20.942163
65.020 21.033016
65.025 21.132515
65.030 21.051867
65.035 20.824671
65.040 21.626919
65.045 22.259777
65.050 22.003471
65.055 21.967297
65.060 22.638105
65.065 23.069023
65.070 23.457344
65.075 23.216553
65.080 23.227314
65.085 23.603659
65.090 23.434729
65.095 23.217142
65.100 23.373812
65.105 23.229904
65.110 23.895887
65.115 24.157131
65.120 24.395788
65.125 24.223534
65.130 23.202074
65.135 22.749304
65.140 22.72925
65.145 21.868813
65.150 21.536949
65.155 21.430304
65.160 21.853291
65.165 22.10651
65.170 22.288744
65.175 21.666655
65.180 21.346607
65.185 21.360834
65.190 21.092094
65.195 21.357763
65.200 21.615877
65.205 21.620207
65.210 22.369223
65.215 22.953419
65.220 22.907478
65.225 23.302452
65.230 23.925076
65.235 23.392546
65.240 22.802427
65.245 21.985273
65.250 21.481281
65.255 21.343266
65.260 20.598986
65.265 20.274265
65.270 21.019144
65.275 21.446096
65.280 22.23222
65.285 22.32023
65.290 22.322239
65.295 22.544296
65.300 22.710833
65.305 22.55267
65.310 22.422573
65.315 22.014036
65.320 22.294706
65.325 23.097288
65.330 22.98675
65.335 22.61488
65.340 22.164457
65.345 22.454407
65.350 22.72839
65.355 22.679712
65.360 22.401161
65.365 22.316839
65.370 22.571671
65.375 23.577829
65.380 23.805923
65.385 23.773033
65.390 23.396183
65.395 23.705559
65.400 24.085575
65.405 25.039833
65.410 24.864025
65.415 24.85615
65.420 25.045115
65.425 25.141214
65.430 25.278784
65.435 25.377153
65.440 24.630676
65.445 24.456648
65.450 24.657997
65.455 24.87784
65.460 24.65703
65.465 24.4751
65.470 23.904362
65.475 24.083731
65.480 24.519464
65.485 24.294998
65.490 24.373981
65.495 24.882675
65.500 25.220327
65.505 25.327942
65.510 26.051315
65.515 26.197933
65.520 26.403282
65.525 26.028214
65.530 26.405693
65.535 26.791603
65.540 27.891968
65.545 28.253866
65.550 28.503029
65.555 28.825525
65.560 29.222057
65.565 28.493757
65.570 28.423615
65.575 27.578884
65.580 26.833712
65.585 26.502068
65.590 26.417828
65.595 27.155695
65.600 27.868387
65.605 28.078524
65.610 28.76602
65.615 29.485542
65.620 29.931952
65.625 30.147354
65.630 29.800224
65.635 29.854923
65.640 30.501434
65.645 31.304607
65.650 31.40712
65.655 31.601631
65.660 31.640717
65.665 32.20874
65.670 32.310837
65.675 32.426991
65.680 32.5984
65.685 32.595516
65.690 32.862617
65.695 33.690311
65.700 34.020111
65.705 34.141357
65.710 33.763264
65.715 33.306145
65.720 33.218361
65.725 33.290745
65.730 32.997196
65.735 32.722595
65.740 32.751751
65.745 32.817734
65.750 33.388031
65.755 33.781303
65.760 33.267117
65.765 33.525574
65.770 34.52095
65.775 35.099556
65.780 34.967812
65.785 35.625652
65.790 36.548084
65.795 37.977009
65.800 38.507671
65.805 38.319435
65.810 38.017475
65.815 38.265743
65.820 38.678219
65.825 38.23457
65.830 38.08786
65.835 37.942516
65.840 38.159531
65.845 38.807983
65.850 39.266701
65.855 38.813999
65.860 39.331017
65.865 39.397064
65.870 40.06992
65.875 39.626865
65.880 39.672115
65.885 39.124554
65.890 38.464287
65.895 37.953224
65.900 37.588734
65.905 37.213528
65.910 37.572765
65.915 37.745438
65.920 38.283825
65.925 38.86721
65.930 40.046883
65.935 40.98423
65.940 40.888336
65.945 40.509369
65.950 39.927162
65.955 39.47546
65.960 39.533657
65.965 38.174908
65.970 37.888519
65.975 37.762703
65.980 38.131535
65.985 38.833908
65.990 38.853397
65.995 38.688602
66.000 39.12656
66.005 39.478287
66.010 39.7598
66.015 39.362091
66.020 38.64769
66.025 38.934265
66.030 39.156067
66.035 38.486092
66.040 37.886078
66.045 37.612484
66.050 38.197548
66.055 38.494762
66.060 37.651138
66.065 36.943756
66.070 36.605434
66.075 36.246147
66.080 36.046062
66.085 35.29932
66.090 34.72813
66.095 35.029606
66.100 35.082382
66.105 34.791248
66.110 35.075554
66.115 34.763622
66.120 34.435535
66.125 34.530228
66.130 35.032391
66.135 35.261635
66.140 35.736343
66.145 35.503895
66.150 35.372047
66.155 35.87426
66.160 36.238361
66.165 35.865471
66.170 36.264538
66.175 35.577587
66.180 35.305351
66.185 35.07391
66.190 34.999481
66.195 35.251419
66.200 35.164402
66.205 34.454075
66.210 34.330128
66.215 34.330254
66.220 33.952232
66.225 33.073627
66.230 32.315437
66.235 31.536669
66.240 31.144493
66.245 31.718252
66.250 32.874741
66.255 33.653072
66.260 34.141571
66.265 34.512867
66.270 34.154255
66.275 34.332214
66.280 33.664124
66.285 32.514381
66.290 32.043247
66.295 32.037563
66.300 32.070702
66.305 32.468845
66.310 32.098316
66.315 32.540924
66.320 32.299805
66.325 32.787735
66.330 32.493752
66.335 30.996626
66.340 30.903055
66.345 30.328905
66.350 30.229527
66.355 30.821817
66.360 30.449633
66.365 30.129122
66.370 31.016361
66.375 31.375175
66.380 31.891748
66.385 30.852112
66.390 29.762207
66.395 29.672327
66.400 29.917486
66.405 29.527788
66.410 29.416157
66.415 29.522776
66.420 30.341915
66.425 30.520775
66.430 30.851248
66.435 30.854853
66.440 31.091326
66.445 30.613274
66.450 30.896391
66.455 30.837374
66.460 30.31739
66.465 29.203848
66.470 28.780315
66.475 28.854181
66.480 29.016006
66.485 27.848343
66.490 27.791309
66.495 28.786358
66.500 29.42522
66.505 29.791471
66.510 29.606485
66.515 28.79155
66.520 28.574181
66.525 27.375978
66.530 26.465328
66.535 26.154583
66.540 25.832962
66.545 25.919521
66.550 26.400751
66.555 26.799416
66.560 27.760386
66.565 27.878555
66.570 27.58819
66.575 26.781893
66.580 25.788244
66.585 24.955469
66.590 24.70141
66.595 24.467506
66.600 24.05422
66.605 24.402943
66.610 25.459965
66.615 26.089319
66.620 26.893959
66.625 27.16827
66.630 27.542997
66.635 27.670073
66.640 26.824034
66.645 26.405811
66.650 26.53232
66.655 26.233425
66.660 26.144531
66.665 25.272646
66.670 25.759838
66.675 26.107477
66.680 26.039375
66.685 25.875227
66.690 26.160309
66.695 26.067575
66.700 25.985712
66.705 25.647398
66.710 25.52586
66.715 25.355906
66.720 25.071503
66.725 24.751099
66.730 24.328644
66.735 24.929707
66.740 24.373793
66.745 24.479858
66.750 24.567162
66.755 24.125938
66.760 24.070141
66.765 24.749491
66.770 24.626289
66.775 25.258036
66.780 25.479389
66.785 24.775597
66.790 24.138161
66.795 23.715096
66.800 23.129194
66.805 23.101397
66.810 22.769331
66.815 22.30216
66.820 22.487856
66.825 22.636541
66.830 22.098553
66.835 22.566961
66.840 22.315845
66.845 21.92437
66.850 21.962831
66.855 22.359436
66.860 22.900295
66.865 23.122475
66.870 22.809118
66.875 22.496086
66.880 22.777386
66.885 22.847588
66.890 22.818727
66.895 23.552816
66.900 23.759686
66.905 23.981834
66.910 24.029911
66.915 23.540775
66.920 23.469538
66.925 23.456921
66.930 23.051138
66.935 22.846504
66.940 22.556952
66.945 22.840069
66.950 23.285019
66.955 23.06839
66.960 22.541601
66.965 22.035376
66.970 22.645134
66.975 22.949924
66.980 23.085409
66.985 23.298628
66.990 22.954422
66.995 23.279919
67.000 24.020201
67.005 23.580572
67.010 22.857718
67.015 22.634371
67.020 22.372639
67.025 22.584986
67.030 22.926632
67.035 22.399248
67.040 22.468035
67.045 22.76659
67.050 22.094669
67.055 21.58506
67.060 21.509668
67.065 20.601093
67.070 19.917503
67.075 20.786531
67.080 21.32103
67.085 22.095402
67.090 22.844423
67.095 23.291485
67.100 24.038486
67.105 24.172422
67.110 23.048901
67.115 23.012367
67.120 22.973484
67.125 22.805799
67.130 22.5264
67.135 22.303633
67.140 22.281721
67.145 22.443172
67.150 22.176407
67.155 22.297768
67.160 22.800129
67.165 23.013992
67.170 23.326418
67.175 22.74217
67.180 22.354378
67.185 22.370905
67.190 22.633308
67.195 22.16646
67.200 21.640549
67.205 21.405041
67.210 21.47196
67.215 21.343826
67.220 20.947254
67.225 20.79533
67.230 20.83774
67.235 20.366602
67.240 20.198004
67.245 19.823019
67.250 19.826231
67.255 19.946194
67.260 19.902555
67.265 19.867327
67.270 20.07329
67.275 20.775036
67.280 21.078983
67.285 20.874159
67.290 20.404486
67.295 20.285042
67.300 20.630251
67.305 21.532766
67.310 21.290939
67.315 21.28363
67.320 21.841856
67.325 22.002777
67.330 21.957258
67.335 21.646273
67.340 20.708033
67.345 20.321688
67.350 20.878418
67.355 20.84271
67.360 20.152258
67.365 20.495344
67.370 20.868986
67.375 21.189734
67.380 21.289742
67.385 21.002571
67.390 20.935209
67.395 21.476461
67.400 21.271753
67.405 21.185514
67.410 21.138206
67.415 21.532183
67.420 21.692692
67.425 21.836737
67.430 22.217623
67.435 22.297594
67.440 22.521
67.445 22.56319
67.450 22.239796
67.455 22.570295
67.460 22.283491
67.465 21.717514
67.470 21.40032
67.475 21.206591
67.480 21.599422
67.485 22.37373
67.490 21.978043
67.495 22.125687
67.500 22.430202
67.505 22.173269
67.510 22.410563
67.515 22.279114
67.520 22.580351
67.525 22.99868
67.530 23.336103
67.535 22.999619
67.540 22.64506
67.545 21.903044
67.550 22.040369
67.555 21.86787
67.560 21.665401
67.565 21.13769
67.570 21.539389
67.575 21.888632
67.580 22.057077
67.585 21.373186
67.590 20.985558
67.595 21.058718
67.600 21.339966
67.605 21.07221
67.610 20.969788
67.615 21.057858
67.620 20.640011
67.625 20.7964
67.630 20.57061
67.635 19.973028
67.640 20.142559
67.645 20.405193
67.650 20.76128
67.655 21.697374
67.660 21.392254
67.665 21.67963
67.670 22.385448
67.675 22.288925
67.680 22.345472
67.685 22.320927
67.690 21.78933
67.695 21.708311
67.700 21.945259
67.705 21.856041
67.710 21.780203
67.715 21.841375
67.720 22.127851
67.725 21.292204
67.730 21.609011
67.735 21.165512
67.740 20.673552
67.745 20.127632
67.750 20.433855
67.755 20.098303
67.760 20.481905
67.765 19.924881
67.770 19.994455
67.775 20.687233
67.780 20.925814
67.785 20.405518
67.790 20.169455
67.795 19.98889
67.800 19.996187
67.805 20.163399
67.810 20.107145
67.815 20.368279
67.820 20.40543
67.825 20.973547
67.830 21.787626
67.835 22.215881
67.840 21.957264
67.845 21.851021
67.850 22.400087
67.855 22.687256
67.860 22.251554
67.865 21.879187
67.870 21.750446
67.875 21.914776
67.880 21.579493
67.885 21.413162
67.890 21.865782
67.895 22.666258
67.900 23.451212
67.905 23.213394
67.910 23.411161
67.915 23.710836
67.920 23.371469
67.925 23.042217
67.930 22.116423
67.935 21.020151
67.940 20.715019
67.945 20.593966
67.950 20.298838
67.955 19.981256
67.960 19.790966
67.965 19.592695
67.970 19.283754
67.975 19.934505
67.980 19.995537
67.985 20.108173
67.990 20.100725
67.995 20.459755
68.000 20.981651
68.005 21.641817
68.010 21.414894
68.015 21.354267
68.020 21.684189
68.025 21.491884
68.030 20.892828
68.035 21.044437
68.040 21.015726
68.045 21.007189
68.050 20.906473
68.055 20.42499
68.060 20.244905
68.065 20.384729
68.070 20.864988
68.075 20.650475
68.080 20.32128
68.085 20.652376
68.090 21.105309
68.095 22.141279
68.100 22.518164
68.105 22.060865
68.110 22.032976
68.115 22.07169
68.120 22.535595
68.125 22.921997
68.130 22.320868
68.135 21.905266
68.140 22.044317
68.145 22.260321
68.150 22.315208
68.155 21.672598
68.160 21.321934
68.165 21.337444
68.170 21.725328
68.175 21.71862
68.180 21.00354
68.185 20.67198
68.190 20.950632
68.195 20.852655
68.200 21.284073
68.205 21.27047
68.210 21.700298
68.215 22.199125
68.220 22.290325
68.225 21.731764
68.230 21.065872
68.235 20.3046
68.240 19.493135
68.245 19.055021
68.250 19.049503
68.255 19.207901
68.260 20.008741
68.265 20.908745
68.270 21.818514
68.275 22.431137
68.280 22.142771
68.285 22.636127
68.290 22.994482
68.295 22.116903
68.300 21.756447
68.305 21.132477
68.310 21.104996
68.315 21.803858
68.320 22.08103
68.325 22.321655
68.330 22.587635
68.335 22.856028
68.340 23.026024
68.345 22.917458
68.350 22.174023
68.355 21.798193
68.360 21.564726
68.365 21.518044
68.370 21.603054
68.375 21.446236
68.380 21.733332
68.385 22.201012
68.390 21.44104
68.395 21.169376
68.400 21.15172
68.405 21.134792
68.410 21.286598
68.415 20.392805
68.420 20.669153
68.425 21.009542
68.430 21.245174
68.435 21.080042
68.440 20.948608
68.445 21.02289
68.450 22.105183
68.455 21.892132
68.460 21.627653
68.465 21.729321
68.470 21.863821
68.475 21.704329
68.480 21.743423
68.485 20.98452
68.490 21.270472
68.495 21.688284
68.500 21.769323
68.505 22.260256
68.510 22.21652
68.515 22.677973
68.520 23.166119
68.525 23.750502
68.530 23.287971
68.535 22.699039
68.540 22.451555
68.545 22.329487
68.550 22.141983
68.555 22.053688
68.560 21.515175
68.565 22.081085
68.570 22.53808
68.575 22.227806
68.580 22.27426
68.585 22.400265
68.590 22.269539
68.595 22.55707
68.600 22.546726
68.605 22.132763
68.610 22.791142
68.615 23.058159
68.620 22.710997
68.625 22.486397
68.630 21.823374
68.635 21.583807
68.640 21.687309
68.645 21.201077
68.650 20.422066
68.655 20.620716
68.660 20.736103
68.665 20.779753
68.670 20.472929
68.675 20.628014
68.680 21.031843
68.685 21.291965
68.690 20.920006
68.695 20.730616
68.700 20.968252
68.705 21.066793
68.710 21.302481
68.715 21.45645
68.720 21.427181
68.725 22.171967
68.730 22.216185
68.735 22.690439
68.740 23.032162
68.745 22.596678
68.750 23.124065
68.755 23.235998
68.760 22.599504
68.765 22.702587
68.770 22.150318
68.775 21.78866
68.780 21.350378
68.785 20.929764
68.790 20.906437
68.795 21.382469
68.800 20.999514
68.805 20.910345
68.810 21.343401
68.815 21.968643
68.820 22.252365
68.825 22.801689
68.830 23.062988
68.835 23.583963
68.840 24.234722
68.845 23.876568
68.850 24.025759
68.855 24.056904
68.860 23.38106
68.865 23.280148
68.870 23.637039
68.875 23.792837
68.880 23.59026
68.885 22.708712
68.890 22.509829
68.895 22.899385
68.900 22.967564
68.905 22.931791
68.910 22.590418
68.915 22.777851
68.920 23.311302
68.925 22.967003
68.930 22.423306
68.935 21.901016
68.940 22.211094
68.945 22.511854
68.950 22.399139
68.955 22.002239
68.960 22.188524
68.965 22.375746
68.970 22.397333
68.975 22.120735
68.980 22.029287
68.985 21.981075
68.990 22.231947
68.995 21.891466
69.000 21.590439
69.005 21.42317
69.010 20.975325
69.015 20.916458
69.020 20.896252
69.025 20.634844
69.030 21.050745
69.035 21.252007
69.040 21.836079
69.045 22.788679
69.050 23.360817
69.055 23.952927
69.060 24.616293
69.065 25.847212
69.070 26.210943
69.075 25.826208
69.080 25.492514
69.085 25.319212
69.090 25.713177
69.095 25.380777
69.100 25.002697
69.105 24.713413
69.110 24.525511
69.115 24.660164
69.120 24.828087
69.125 24.590014
69.130 24.44689
69.135 23.964109
69.140 24.61413
69.145 24.398684
69.150 24.45953
69.155 24.866806
69.160 25.024282
69.165 25.182068
69.170 25.870436
69.175 26.248844
69.180 26.855017
69.185 27.03492
69.190 26.878466
69.195 27.341335
69.200 27.148932
69.205 27.109604
69.210 27.29306
69.215 26.832193
69.220 25.821999
69.225 25.203976
69.230 24.390619
69.235 24.866009
69.240 24.026304
69.245 23.571369
69.250 23.745464
69.255 23.942631
69.260 24.554821
69.265 25.46965
69.270 25.335072
69.275 25.532387
69.280 25.665068
69.285 25.823183
69.290 25.879005
69.295 25.668375
69.300 25.320831
69.305 25.3458
69.310 26.94454
69.315 28.108709
69.320 28.630976
69.325 29.045252
69.330 29.252666
69.335 29.81612
69.340 29.715982
69.345 29.186777
69.350 28.475439
69.355 27.889175
69.360 27.434183
69.365 27.470692
69.370 27.595293
69.375 26.903347
69.380 26.774878
69.385 26.705475
69.390 27.836731
69.395 28.40247
69.400 28.12849
69.405 28.146105
69.410 28.561052
69.415 28.462339
69.420 28.44997
69.425 28.342398
69.430 28.225958
69.435 28.284599
69.440 28.658632
69.445 28.87019
69.450 29.205091
69.455 29.546478
69.460 29.360434
69.465 29.426355
69.470 29.671164
69.475 29.12689
69.480 28.937708
69.485 29.292667
69.490 29.790018
69.495 30.256662
69.500 30.372953
69.505 30.133238
69.510 30.384861
69.515 31.148096
69.520 31.113995
69.525 30.644855
69.530 29.560547
69.535 29.022263
69.540 28.911741
69.545 28.862478
69.550 28.116066
69.555 27.498083
69.560 28.063826
69.565 29.042534
69.570 29.568737
69.575 29.474392
69.580 29.25976
69.585 30.189735
69.590 30.05868
69.595 30.022232
69.600 29.875309
69.605 30.154718
69.610 29.7953
69.615 29.815313
69.620 29.014277
69.625 28.830116
69.630 28.734003
69.635 28.710442
69.640 28.739161
69.645 29.02076
69.650 28.868277
69.655 29.795757
69.660 29.479071
69.665 28.946547
69.670 28.678682
69.675 28.334196
69.680 28.776443
69.685 29.007683
69.690 27.927725
69.695 28.201653
69.700 28.220634
69.705 28.336424
69.710 28.543417
69.715 27.991613
69.720 28.005117
69.725 28.149822
69.730 27.85281
69.735 27.309265
69.740 27.376322
69.745 26.508566
69.750 25.540567
69.755 25.04134
69.760 25.001394
69.765 25.136791
69.770 25.471775
69.775 25.369864
69.780 25.924568
69.785 27.053921
69.790 26.859711
69.795 27.003498
69.800 27.233749
69.805 27.148775
69.810 27.319307
69.815 27.151371
69.820 27.349604
69.825 27.51771
69.830 27.155624
69.835 26.484751
69.840 25.702761
69.845 24.915447
69.850 24.543104
69.855 23.653688
69.860 23.174482
69.865 22.666246
69.870 22.437527
69.875 22.762201
69.880 22.546192
69.885 22.593309
69.890 22.671097
69.895 22.242664
69.900 22.216297
69.905 22.268005
69.910 21.990992
69.915 21.788931
69.920 21.533207
69.925 21.168711
69.930 20.477751
69.935 20.149574
69.940 19.584721
69.945 19.386183
69.950 19.401686
69.955 19.355526
69.960 19.422834
69.965 20.740604
69.970 21.019831
69.975 21.118988
69.980 20.93915
69.985 20.847288
69.990 21.053572
69.995 20.96372
70.000 21.183277
70.005 21.409803
70.010 21.827736
70.015 22.388557
70.020 22.327065
70.025 22.800518
70.030 22.065401
70.035 20.734634
70.040 20.972206
70.045 20.377459
70.050 20.599222
70.055 20.193245
70.060 19.361729
70.065 20.188654
70.070 20.4596
70.075 20.058981
70.080 20.461903
70.085 19.912222
70.090 20.634632
70.095 21.143604
70.100 20.633993
70.105 21.310711
70.110 21.64156
70.115 21.953636
70.120 22.411041
70.125 22.245197
70.130 22.628086
70.135 22.929945
70.140 22.704782
70.145 22.464853
70.150 22.411291
70.155 22.075319
70.160 21.901506
70.165 21.94359
70.170 21.828388
70.175 21.976648
70.180 21.832336
70.185 21.415466
70.190 21.20257
70.195 21.137735
70.200 21.184399
70.205 21.308287
70.210 21.151651
70.215 21.186752
70.220 21.160522
70.225 21.576063
70.230 21.608017
70.235 21.430666
70.240 21.40276
70.245 21.442863
70.250 21.821804
70.255 22.327883
70.260 21.536259
70.265 21.169811
70.270 21.011866
70.275 21.125788
70.280 20.954222
70.285 20.612545
70.290 20.718756
70.295 21.445889
70.300 21.655878
70.305 21.905384
70.310 21.744379
70.315 21.855782
70.320 21.861214
70.325 21.112949
70.330 20.968872
70.335 20.494308
70.340 20.730608
70.345 20.369291
70.350 20.188719
70.355 20.231489
70.360 19.994583
70.365 19.759439
70.370 19.850086
70.375 19.587711
70.380 20.003345
70.385 19.8622
70.390 19.630377
70.395 19.850916
70.400 20.553736
70.405 20.449499
70.410 19.724829
70.415 19.285143
70.420 19.537415
70.425 19.779413
70.430 19.403412
70.435 19.301725
70.440 19.203154
70.445 18.958004
70.450 18.537052
70.455 17.877108
70.460 17.671068
70.465 17.541952
70.470 17.658934
70.475 17.761139
70.480 18.649069
70.485 19.068819
70.490 19.597324
70.495 19.555973
70.500 19.603088
70.505 19.459045
70.510 19.911068
70.515 19.595406
70.520 19.564447
70.525 19.126041
70.530 18.838686
70.535 18.619898
70.540 18.363859
70.545 18.486858
70.550 19.113417
70.555 19.658991
70.560 20.654474
70.565 21.06604
70.570 21.089382
70.575 21.638969
70.580 21.131327
70.585 20.580084
70.590 20.274624
70.595 19.88238
70.600 19.95624
70.605 19.505751
70.610 19.212423
70.615 18.96241
70.620 19.615862
70.625 19.497173
70.630 19.730171
70.635 19.659678
70.640 19.45875
70.645 19.147682
70.650 19.406326
70.655 19.126289
70.660 19.023922
70.665 18.993464
70.670 19.695168
70.675 20.327286
70.680 20.790661
70.685 20.156662
70.690 20.342751
70.695 20.271505
70.700 19.77599
70.705 19.80304
70.710 19.544899
70.715 18.608486
70.720 18.953102
70.725 19.226259
70.730 19.303514
70.735 19.318851
70.740 18.918194
70.745 18.958769
70.750 19.459953
70.755 18.978661
70.760 18.68928
70.765 19.119339
70.770 18.871237
70.775 18.520458
70.780 18.764526
70.785 18.388138
70.790 18.532475
70.795 18.673697
70.800 18.445524
70.805 18.630587
70.810 19.134331
70.815 19.22584
70.820 20.021666
70.825 19.980505
70.830 19.746929
70.835 19.869112
70.840 20.103512
70.845 19.464167
70.850 19.497744
70.855 19.573008
70.860 20.092936
70.865 20.377325
70.870 20.736485
70.875 21.338736
70.880 21.619446
70.885 21.686693
70.890 21.634289
70.895 20.836649
70.900 20.384066
70.905 19.590694
70.910 19.138321
70.915 19.482117
70.920 19.113106
70.925 18.90251
70.930 18.459335
70.935 18.244883
70.940 18.595835
70.945 18.913767
70.950 18.804136
70.955 18.21303
70.960 18.37825
70.965 19.671911
70.970 20.5173
70.975 19.957737
70.980 19.363285
70.985 19.018688
70.990 18.856558
70.995 18.925028
71.000 18.149734
71.005 17.839136
71.010 18.59897
71.015 18.896049
71.020 19.436983
71.025 19.334328
71.030 18.80776
71.035 18.40202
71.040 18.192053
71.045 17.154703
71.050 17.027552
71.055 17.145346
71.060 17.661448
71.065 17.99004
71.070 18.130865
71.075 17.669392
71.080 17.835423
71.085 18.182726
71.090 17.91
71.095 18.503786
71.100 18.179855
71.105 18.083622
71.110 18.484358
71.115 18.842779
71.120 19.064152
71.125 18.952972
71.130 18.663088
71.135 18.978241
71.140 19.490721
71.145 19.52199
71.150 18.674032
71.155 18.494202
71.160 18.988682
71.165 18.890892
71.170 18.919775
71.175 18.720425
71.180 18.662523
71.185 18.439274
71.190 18.249004
71.195 17.895651
71.200 17.519621
71.205 17.961216
71.210 17.78401
71.215 17.897427
71.220 18.728405
71.225 18.864233
71.230 19.300285
71.235 19.814272
71.240 20.098022
71.245 20.51086
71.250 20.77177
71.255 20.341547
71.260 20.010626
71.265 19.940901
71.270 19.925209
71.275 19.574879
71.280 19.665764
71.285 19.268658
71.290 19.365496
71.295 19.251879
71.300 19.303185
71.305 19.836889
71.310 19.671909
71.315 19.176815
71.320 19.733999
71.325 19.038189
71.330 19.172153
71.335 19.014555
71.340 18.798895
71.345 19.478447
71.350 19.48875
71.355 19.109138
71.360 19.339375
71.365 19.391273
71.370 19.310516
71.375 19.214132
71.380 18.950718
71.385 19.426437
71.390 19.34963
71.395 19.209076
71.400 19.60643
71.405 19.069777
71.410 18.571505
71.415 19.364443
71.420 19.577055
71.425 20.251369
71.430 19.897726
71.435 19.47337
71.440 20.336565
71.445 20.652443
71.450 20.212906
71.455 19.867367
71.460 19.919989
71.465 20.685938
71.470 20.607523
71.475 20.462389
71.480 20.569151
71.485 21.165367
71.490 21.895187
71.495 21.815075
71.500 21.560293
71.505 21.322693
71.510 21.306812
71.515 21.027483
71.520 20.674387
71.525 20.102337
71.530 19.973192
71.535 20.224909
71.540 19.961239
71.545 19.42799
71.550 19.405687
71.555 19.033865
71.560 19.30077
71.565 18.892572
71.570 18.508608
71.575 18.613476
71.580 18.095881
71.585 17.707256
71.590 17.699316
71.595 17.918308
71.600 17.809246
71.605 18.076027
71.610 18.687941
71.615 19.161989
71.620 19.351395
71.625 18.962772
71.630 18.755058
71.635 18.693739
71.640 18.085012
71.645 17.587543
71.650 17.316792
71.655 17.44611
71.660 17.504351
71.665 17.609573
71.670 17.943027
71.675 18.036636
71.680 18.088715
71.685 18.566471
71.690 18.807005
71.695 19.126713
71.700 19.450853
71.705 19.389942
71.710 19.561272
71.715 19.365248
71.720 18.939886
71.725 18.619158
71.730 18.728233
71.735 18.640923
71.740 18.610184
71.745 18.555244
71.750 19.046902
71.755 18.851612
71.760 18.30752
71.765 17.941912
71.770 17.806761
71.775 18.035419
71.780 17.732227
71.785 17.719217
71.790 18.217499
71.795 18.623926
71.800 18.700993
71.805 18.823553
71.810 19.113758
71.815 19.124229
71.820 18.695263
71.825 18.557634
71.830 18.380716
71.835 18.434206
71.840 18.733721
71.845 19.157917
71.850 19.27644
71.855 19.333984
71.860 19.423708
71.865 19.55854
71.870 19.396721
71.875 20.054602
71.880 19.929615
71.885 19.698473
71.890 19.927694
71.895 20.2938
71.900 20.281691
71.905 19.910772
71.910 18.791697
71.915 18.210428
71.920 18.164501
71.925 17.81538
71.930 17.499365
71.935 17.225502
71.940 17.120237
71.945 17.48254
71.950 17.612833
71.955 17.874805
71.960 17.834816
71.965 17.655041
71.970 17.954908
71.975 18.237391
71.980 18.562405
71.985 18.574175
71.990 18.559805
71.995 18.662996
72.000 18.661144
72.005 18.869446
72.010 18.711666
72.015 19.392038
72.020 19.66819
72.025 20.039635
72.030 20.309324
72.035 20.679533
72.040 20.597404
72.045 21.063025
72.050 20.153683
72.055 19.830591
72.060 19.73568
72.065 19.802979
72.070 19.771065
72.075 19.551262
72.080 18.873713
72.085 18.781174
72.090 19.009979
72.095 18.855783
72.100 18.383684
72.105 18.14209
72.110 18.000908
72.115 18.214685
72.120 17.859262
72.125 17.499527
72.130 18.306654
72.135 18.79882
72.140 18.397385
72.145 18.177462
72.150 18.395586
72.155 18.750479
72.160 18.664133
72.165 18.249256
72.170 18.103052
72.175 18.170351
72.180 18.183353
72.185 18.600975
72.190 18.38199
72.195 18.656179
72.200 18.67803
72.205 18.844189
72.210 19.007639
72.215 18.74614
72.220 18.555851
72.225 18.689539
72.230 18.600065
72.235 18.424086
72.240 18.149555
72.245 18.396032
72.250 17.974215
72.255 18.070988
72.260 18.098398
72.265 17.916618
72.270 17.792608
72.275 17.522835
72.280 17.526436
72.285 17.705931
72.290 17.938667
72.295 18.142935
72.300 18.222189
72.305 18.400808
72.310 18.625662
72.315 19.20789
72.320 19.376749
72.325 18.735809
72.330 18.588961
72.335 18.529121
72.340 18.52976
72.345 18.39579
72.350 18.773085
72.355 18.988865
72.360 19.197147
72.365 19.146763
72.370 18.948252
72.375 19.096388
72.380 19.085281
72.385 19.02869
72.390 18.959654
72.395 18.668722
72.400 18.46817
72.405 18.902084
72.410 19.486359
72.415 19.257065
72.420 19.477697
72.425 19.677164
72.430 20.179527
72.435 20.835022
72.440 20.693628
72.445 20.370331
72.450 20.055435
72.455 19.422462
72.460 19.561813
72.465 18.885309
72.470 18.04677
72.475 17.721464
72.480 17.709692
72.485 17.513712
72.490 16.863029
72.495 16.548574
72.500 16.462912
72.505 16.611931
72.510 16.677622
72.515 17.053936
72.520 17.749302
72.525 18.356256
72.530 18.386274
72.535 18.655439
72.540 18.815725
72.545 18.83185
72.550 18.321579
72.555 17.802059
72.560 17.826319
72.565 17.658318
72.570 17.465811
72.575 16.851532
72.580 17.584833
72.585 18.111692
72.590 18.231899
72.595 18.352598
72.600 18.738581
72.605 19.072927
72.610 19.443529
72.615 19.030693
72.620 18.847021
72.625 18.80175
72.630 19.216841
72.635 19.306747
72.640 18.782618
72.645 18.435522
72.650 18.37042
72.655 18.595861
72.660 18.649302
72.665 18.124598
72.670 17.755297
72.675 18.022932
72.680 18.125488
72.685 17.831249
72.690 17.650803
72.695 17.3218
72.700 17.594187
72.705 17.868172
72.710 17.951147
72.715 17.93471
72.720 17.639194
72.725 18.055586
72.730 18.38728
72.735 18.318699
72.740 18.321487
72.745 18.041161
72.750 17.988457
72.755 17.797995
72.760 17.274633
72.765 17.078009
72.770 16.912786
72.775 16.487494
72.780 16.518663
72.785 16.774982
72.790 17.149143
72.795 16.925409
72.800 17.065908
72.805 17.055607
72.810 17.259335
72.815 17.18922
72.820 17.078899
72.825 16.545837
72.830 15.857754
72.835 15.77597
72.840 16.246246
72.845 16.313883
72.850 16.535786
72.855 16.707436
72.860 17.61912
72.865 17.759928
72.870 18.051691
72.875 17.867529
72.880 17.858696
72.885 17.056398
72.890 16.221977
72.895 15.543706
72.900 15.415936
72.905 15.424076
72.910 15.51946
72.915 15.981927
72.920 16.432421
72.925 17.058252
72.930 17.250702
72.935 17.234842
72.940 17.176331
72.945 17.224951
72.950 16.836271
72.955 17.130522
72.960 17.755903
72.965 18.049126
72.970 17.938406
72.975 17.535341
72.980 17.855465
72.985 17.894274
72.990 18.098486
72.995 17.189848
73.000 16.997705
