!@!!GADDS PLOTSO FILE: Chi integration type
!@!!Title/SampleName: map-104
!@!!Comment: ?
!@!!User: Bruker Instrument Administrator
!@!!Site: University of Illinois Chicago
!@!!Frame: map-104_01_000.gfrm
!@!!Wavelengths    1.54184   1.54056   1.54439
!@!!Frame angles: 2Theta: 63.000 Omega: 50.000 Phi: 0.000 Chi: 90.000
!@!!Integration range: 2Theta: 53.000 to 73.000  Gamma: -105.000 to -75.000
!@!!Integration method: bin normalized
!@!N
!@!SS
!@!M
!@!L 0.0 0.0 0.0 0.0
!@!XDegrees
!@!YCounts
53.000 8.639615
53.005 8.915718
53.010 8.941998
53.015 9.075323
53.020 9.526746
53.025 9.432644
53.030 9.341719
53.035 9.277332
53.040 9.209534
53.045 9.336103
53.050 9.157963
53.055 9.108349
53.060 8.97345
53.065 8.68213
53.070 9.114583
53.075 9.106942
53.080 8.686534
53.085 8.560838
53.090 8.711597
53.095 9.27339
53.100 9.929888
53.105 9.698748
53.110 9.719323
53.115 10.230814
53.120 10.278572
53.125 10.163497
53.130 10.437225
53.135 10.039426
53.140 9.640026
53.145 9.540044
53.150 9.160549
53.155 9.047504
53.160 8.64062
53.165 8.466464
53.170 9.03228
53.175 9.291208
53.180 9.154884
53.185 9.376218
53.190 9.413637
53.195 9.299026
53.200 9.246854
53.205 8.990289
53.210 9.250014
53.215 9.232606
53.220 9.150688
53.225 9.072864
53.230 9.250306
53.235 9.0378
53.240 9.158628
53.245 9.331329
53.250 9.661299
53.255 9.440852
53.260 9.565907
53.265 9.143007
53.270 8.951821
53.275 8.276142
53.280 8.059165
53.285 8.445298
53.290 9.379169
53.295 9.543278
53.300 10.184349
53.305 10.491589
53.310 10.668459
53.315 10.696051
53.320 10.164975
53.325 9.917977
53.330 10.016255
53.335 9.463436
53.340 9.463865
53.345 9.497645
53.350 9.399722
53.355 9.109414
53.360 9.203512
53.365 9.328695
53.370 9.656363
53.375 9.880603
53.380 10.252237
53.385 10.000917
53.390 9.708793
53.395 9.498443
53.400 9.31903
53.405 9.330097
53.410 9.438569
53.415 9.504951
53.420 10.090682
53.425 10.340554
53.430 10.290578
53.435 10.273559
53.440 10.247422
53.445 10.502183
53.450 10.67146
53.455 10.704385
53.460 11.086209
53.465 11.216692
53.470 11.252188
53.475 11.265437
53.480 10.917441
53.485 10.78542
53.490 10.992526
53.495 11.13587
53.500 11.20372
53.505 11.097322
53.510 11.184424
53.515 11.03822
53.520 11.001454
53.525 10.544473
53.530 10.48418
53.535 10.749504
53.540 10.778964
53.545 10.656843
53.550 11.065106
53.555 11.131731
53.560 11.1923
53.565 10.684426
53.570 10.160108
53.575 10.280585
53.580 10.142468
53.585 10.189822
53.590 10.247383
53.595 10.132795
53.600 9.970816
53.605 10.245672
53.610 10.557487
53.615 10.734654
53.620 10.558866
53.625 10.374923
53.630 10.81302
53.635 11.471718
53.640 11.209165
53.645 10.75331
53.650 10.531306
53.655 10.118415
53.660 10.491686
53.665 9.918771
53.670 9.56509
53.675 9.961883
53.680 9.969812
53.685 9.987039
53.690 10.331276
53.695 10.114022
53.700 10.167837
53.705 9.887361
53.710 9.825739
53.715 10.096304
53.720 10.311405
53.725 10.804317
53.730 11.250144
53.735 11.712836
53.740 11.954274
53.745 11.920501
53.750 11.498126
53.755 11.526834
53.760 11.352323
53.765 11.140216
53.770 10.840321
53.775 10.564512
53.780 10.547822
53.785 10.746999
53.790 10.523641
53.795 10.113478
53.800 9.708991
53.805 9.137914
53.810 9.181843
53.815 9.385915
53.820 9.211063
53.825 9.05387
53.830 8.925043
53.835 9.48963
53.840 9.995049
53.845 9.984875
53.850 9.704721
53.855 9.948239
53.860 10.222337
53.865 10.670062
53.870 10.818249
53.875 11.341267
53.880 11.657837
53.885 11.378934
53.890 11.138574
53.895 11.301863
53.900 10.979513
53.905 10.714727
53.910 10.291352
53.915 9.852293
53.920 9.847579
53.925 9.788072
53.930 10.237531
53.935 10.804978
53.940 10.72025
53.945 10.819065
53.950 10.923968
53.955 11.104527
53.960 10.994551
53.965 10.261918
53.970 9.673829
53.975 9.970488
53.980 10.237503
53.985 10.488923
53.990 10.597004
53.995 10.988646
54.000 11.681752
54.005 12.052356
54.010 11.964854
54.015 12.054724
54.020 12.385921
54.025 12.083138
54.030 11.217724
54.035 10.367435
54.040 10.11205
54.045 9.899028
54.050 9.496222
54.055 8.888499
54.060 8.555761
54.065 8.48805
54.070 8.806836
54.075 9.153277
54.080 9.308283
54.085 9.759534
54.090 10.389155
54.095 10.537294
54.100 10.830829
54.105 11.122405
54.110 11.149287
54.115 11.234124
54.120 10.88473
54.125 10.77444
54.130 10.992386
54.135 10.687561
54.140 10.37096
54.145 10.433559
54.150 10.220151
54.155 9.767884
54.160 9.864569
54.165 10.449677
54.170 10.955291
54.175 10.572509
54.180 10.417267
54.185 10.648086
54.190 10.905554
54.195 10.961915
54.200 10.479099
54.205 9.939306
54.210 10.020636
54.215 10.024488
54.220 9.962069
54.225 9.665088
54.230 9.397477
54.235 9.760547
54.240 10.525166
54.245 10.876842
54.250 10.879389
54.255 10.897475
54.260 11.253769
54.265 11.133724
54.270 11.562708
54.275 11.925945
54.280 11.639426
54.285 11.834749
54.290 12.217474
54.295 12.36074
54.300 12.330482
54.305 11.769177
54.310 11.326315
54.315 11.194311
54.320 11.447646
54.325 11.559669
54.330 11.567288
54.335 11.494843
54.340 11.669291
54.345 11.663342
54.350 11.301581
54.355 10.608472
54.360 10.497123
54.365 10.174377
54.370 10.266583
54.375 10.247014
54.380 10.225028
54.385 10.793652
54.390 10.753831
54.395 10.986707
54.400 11.042181
54.405 11.289016
54.410 11.544515
54.415 11.507298
54.420 11.591269
54.425 11.679633
54.430 11.976333
54.435 12.116318
54.440 11.91795
54.445 11.500874
54.450 11.39714
54.455 11.000809
54.460 10.762189
54.465 10.356409
54.470 10.084424
54.475 10.132167
54.480 10.276016
54.485 10.552376
54.490 10.567321
54.495 10.824889
54.500 11.038077
54.505 10.9645
54.510 10.929377
54.515 11.334713
54.520 11.243501
54.525 11.503723
54.530 11.436872
54.535 11.506186
54.540 11.874571
54.545 11.554111
54.550 11.766376
54.555 11.879132
54.560 11.647375
54.565 11.153563
54.570 10.946947
54.575 10.962089
54.580 11.050612
54.585 10.772552
54.590 10.686026
54.595 10.711442
54.600 11.032191
54.605 10.872718
54.610 10.491267
54.615 10.757893
54.620 10.474639
54.625 10.52449
54.630 11.181584
54.635 11.218923
54.640 11.286274
54.645 11.37565
54.650 11.400636
54.655 12.091779
54.660 12.038795
54.665 11.820293
54.670 11.76333
54.675 11.742819
54.680 12.002967
54.685 11.869004
54.690 11.418316
54.695 11.308117
54.700 11.27969
54.705 11.380503
54.710 11.462783
54.715 11.108356
54.720 11.104496
54.725 11.276052
54.730 11.17832
54.735 10.978413
54.740 11.051105
54.745 10.625136
54.750 10.648892
54.755 10.272878
54.760 10.027931
54.765 10.111536
54.770 10.200449
54.775 10.395823
54.780 10.298433
54.785 10.308369
54.790 10.562136
54.795 10.990928
54.800 11.045884
54.805 10.84059
54.810 10.763852
54.815 11.318662
54.820 11.87445
54.825 12.289693
54.830 12.138761
54.835 12.052086
54.840 11.796961
54.845 11.759903
54.850 11.760055
54.855 11.052035
54.860 11.042367
54.865 11.251181
54.870 11.978649
54.875 12.486525
54.880 12.648134
54.885 12.589886
54.890 12.86711
54.895 12.837209
54.900 12.49133
54.905 12.141596
54.910 12.232712
54.915 12.095019
54.920 11.913241
54.925 11.729279
54.930 11.698337
54.935 11.696958
54.940 11.593829
54.945 11.514527
54.950 11.891744
54.955 12.056189
54.960 11.621584
54.965 11.48353
54.970 11.491856
54.975 11.476213
54.980 11.333438
54.985 11.187699
54.990 11.01778
54.995 11.23755
55.000 11.235907
55.005 11.168205
55.010 11.236917
55.015 11.089011
55.020 11.057434
55.025 10.932323
55.030 10.730043
55.035 10.909307
55.040 10.966166
55.045 10.877242
55.050 11.150797
55.055 11.739219
55.060 12.491174
55.065 12.820599
55.070 12.883733
55.075 13.149292
55.080 13.015076
55.085 12.973374
55.090 12.380788
55.095 12.107292
55.100 12.140422
55.105 11.738476
55.110 11.96701
55.115 12.305603
55.120 12.797788
55.125 13.05648
55.130 12.902575
55.135 12.978815
55.140 13.145361
55.145 12.607501
55.150 12.216157
55.155 11.333361
55.160 11.254562
55.165 11.326547
55.170 11.676177
55.175 12.245296
55.180 12.339259
55.185 12.258906
55.190 12.076833
55.195 11.64193
55.200 11.546899
55.205 11.339035
55.210 10.984965
55.215 10.956582
55.220 10.719403
55.225 10.870605
55.230 10.941936
55.235 10.967847
55.240 10.438654
55.245 10.610695
55.250 11.136685
55.255 11.666975
55.260 12.199496
55.265 12.508108
55.270 12.753592
55.275 13.108539
55.280 13.161227
55.285 12.706115
55.290 12.801833
55.295 13.310126
55.300 13.06813
55.305 12.65769
55.310 12.431936
55.315 12.699492
55.320 12.748626
55.325 12.620859
55.330 11.757599
55.335 11.685208
55.340 11.514058
55.345 10.881982
55.350 10.382213
55.355 10.583037
55.360 10.643743
55.365 10.507912
55.370 10.538018
55.375 11.2637
55.380 12.311719
55.385 12.434828
55.390 12.81507
55.395 13.534039
55.400 13.919994
55.405 13.65529
55.410 13.283962
55.415 13.300477
55.420 13.571885
55.425 13.264986
55.430 12.942686
55.435 12.725803
55.440 12.883348
55.445 12.847081
55.450 11.980377
55.455 11.857756
55.460 11.751333
55.465 12.137842
55.470 12.874169
55.475 12.839067
55.480 13.379245
55.485 13.859466
55.490 13.650821
55.495 13.317247
55.500 12.891631
55.505 12.643269
55.510 12.313388
55.515 12.168658
55.520 12.31287
55.525 12.81214
55.530 12.549654
55.535 12.649641
55.540 12.490802
55.545 12.619452
55.550 12.855339
55.555 12.38294
55.560 11.595879
55.565 11.536662
55.570 11.448893
55.575 11.553233
55.580 11.830222
55.585 11.582913
55.590 11.803242
55.595 12.111616
55.600 12.086896
55.605 11.856605
55.610 11.743773
55.615 11.104312
55.620 10.638968
55.625 10.596327
55.630 10.721622
55.635 10.826408
55.640 10.926614
55.645 10.830016
55.650 10.89198
55.655 11.758238
55.660 11.89284
55.665 12.142535
55.670 12.224705
55.675 12.415412
55.680 12.923196
55.685 13.27606
55.690 13.383981
55.695 13.744183
55.700 14.020277
55.705 14.242871
55.710 14.161848
55.715 13.743774
55.720 13.566425
55.725 13.289891
55.730 13.214766
55.735 12.887659
55.740 12.377079
55.745 12.632791
55.750 12.416749
55.755 12.242468
55.760 12.414799
55.765 12.593122
55.770 12.990154
55.775 13.719266
55.780 13.464154
55.785 13.532036
55.790 13.190102
55.795 12.864625
55.800 12.42907
55.805 12.121814
55.810 12.069361
55.815 12.394368
55.820 12.501107
55.825 12.677146
55.830 12.547507
55.835 12.852375
55.840 13.228498
55.845 13.079954
55.850 13.23021
55.855 13.23033
55.860 13.371181
55.865 13.324484
55.870 12.421272
55.875 11.635009
55.880 12.068053
55.885 12.283368
55.890 12.121305
55.895 11.872531
55.900 11.985764
55.905 12.546203
55.910 12.721602
55.915 12.287357
55.920 12.199862
55.925 11.970847
55.930 12.040215
55.935 12.151533
55.940 12.623748
55.945 12.976619
55.950 13.153049
55.955 13.169959
55.960 12.992192
55.965 13.457057
55.970 13.28494
55.975 12.828829
55.980 12.599288
55.985 12.465523
55.990 12.550978
55.995 12.841215
56.000 12.189495
56.005 12.240142
56.010 12.623593
56.015 12.617805
56.020 12.62986
56.025 12.730989
56.030 12.743219
56.035 13.245968
56.040 13.683112
56.045 13.797495
56.050 13.685058
56.055 13.888701
56.060 13.654032
56.065 13.517351
56.070 13.289465
56.075 13.168278
56.080 12.710431
56.085 12.770629
56.090 12.64376
56.095 13.194671
56.100 13.017886
56.105 12.870749
56.110 13.287076
56.115 13.780964
56.120 13.941345
56.125 13.559536
56.130 13.643127
56.135 13.878716
56.140 13.891698
56.145 13.483043
56.150 13.042511
56.155 13.201183
56.160 13.677383
56.165 13.502513
56.170 13.491765
56.175 13.026893
56.180 12.341482
56.185 12.382792
56.190 12.628285
56.195 12.753908
56.200 12.95875
56.205 12.996622
56.210 13.146603
56.215 13.478381
56.220 13.260115
56.225 13.098101
56.230 13.187417
56.235 12.936939
56.240 13.103863
56.245 13.22629
56.250 13.332266
56.255 13.452294
56.260 12.94425
56.265 12.651993
56.270 12.563766
56.275 12.868488
56.280 12.980413
56.285 12.752636
56.290 12.80474
56.295 12.964622
56.300 13.254642
56.305 13.470893
56.310 13.081313
56.315 13.234531
56.320 13.365033
56.325 13.293358
56.330 13.383894
56.335 13.646282
56.340 13.958122
56.345 13.764036
56.350 13.339506
56.355 13.617778
56.360 13.796433
56.365 13.778635
56.370 13.243255
56.375 12.894656
56.380 13.090759
56.385 13.125592
56.390 13.370953
56.395 13.524932
56.400 13.793699
56.405 14.112304
56.410 13.754686
56.415 14.051578
56.420 14.873322
56.425 14.51741
56.430 15.061501
56.435 15.491632
56.440 15.62333
56.445 16.290752
56.450 15.766467
56.455 15.22158
56.460 15.233112
56.465 14.067523
56.470 13.323555
56.475 13.227119
56.480 13.554901
56.485 13.95937
56.490 14.746154
56.495 14.707633
56.500 14.586084
56.505 15.274271
56.510 14.961332
56.515 14.526337
56.520 14.036001
56.525 13.027953
56.530 12.621733
56.535 12.551764
56.540 11.964942
56.545 12.340831
56.550 12.73904
56.555 13.264571
56.560 14.017948
56.565 14.194482
56.570 14.09979
56.575 14.206629
56.580 14.135934
56.585 13.924098
56.590 13.650863
56.595 13.100013
56.600 13.301955
56.605 12.932192
56.610 12.151599
56.615 11.90441
56.620 11.832767
56.625 11.549504
56.630 11.645602
56.635 11.599776
56.640 12.114202
56.645 12.911219
56.650 12.772742
56.655 13.140899
56.660 13.43494
56.665 13.092665
56.670 13.492494
56.675 13.965239
56.680 14.304434
56.685 14.810109
56.690 14.833626
56.695 15.227989
56.700 15.546538
56.705 15.075467
56.710 14.288094
56.715 14.109535
56.720 13.815555
56.725 13.457299
56.730 13.583032
56.735 13.784229
56.740 14.383219
56.745 14.961535
56.750 15.076429
56.755 15.502934
56.760 15.733465
56.765 15.699959
56.770 15.6771
56.775 15.623131
56.780 15.729381
56.785 15.558984
56.790 15.122762
56.795 14.945648
56.800 15.193762
56.805 15.448808
56.810 15.443389
56.815 14.901894
56.820 14.687665
56.825 15.107237
56.830 14.660841
56.835 14.069371
56.840 13.804657
56.845 13.642751
56.850 14.20844
56.855 14.533018
56.860 14.132028
56.865 14.166296
56.870 14.16918
56.875 14.032473
56.880 13.460181
56.885 12.756051
56.890 12.381732
56.895 13.068979
56.900 13.498637
56.905 13.353514
56.910 13.44007
56.915 14.00041
56.920 14.042092
56.925 13.4652
56.930 12.892436
56.935 13.020364
56.940 12.964628
56.945 12.562908
56.950 12.236401
56.955 12.64489
56.960 13.3727
56.965 13.481959
56.970 13.624077
56.975 13.993491
56.980 14.4036
56.985 14.324727
56.990 14.028435
56.995 13.783261
57.000 13.733225
57.005 13.537788
57.010 13.549315
57.015 13.208978
57.020 13.131337
57.025 13.591601
57.030 13.621249
57.035 13.653619
57.040 13.73604
57.045 13.622684
57.050 13.742132
57.055 14.280107
57.060 14.422482
57.065 14.438836
57.070 14.314998
57.075 14.250165
57.080 14.613679
57.085 14.864565
57.090 14.622032
57.095 14.11012
57.100 14.237671
57.105 14.187299
57.110 14.061352
57.115 14.137264
57.120 14.279865
57.125 14.396686
57.130 15.124332
57.135 14.965363
57.140 14.452723
57.145 14.378756
57.150 14.208629
57.155 14.045237
57.160 13.76622
57.165 13.59609
57.170 13.731921
57.175 13.874453
57.180 13.884932
57.185 13.564354
57.190 13.383434
57.195 13.221565
57.200 13.320574
57.205 13.826232
57.210 14.222836
57.215 14.044806
57.220 14.20172
57.225 14.425219
57.230 14.593949
57.235 14.090263
57.240 14.164042
57.245 14.037175
57.250 14.432424
57.255 14.686824
57.260 14.810721
57.265 14.816775
57.270 14.827769
57.275 13.983835
57.280 13.960058
57.285 13.78601
57.290 13.979508
57.295 13.888505
57.300 13.782072
57.305 13.985573
57.310 14.489617
57.315 14.959556
57.320 14.87974
57.325 14.769135
57.330 14.9341
57.335 15.089438
57.340 15.048816
57.345 14.727741
57.350 14.051203
57.355 14.0604
57.360 13.691626
57.365 13.414424
57.370 13.339976
57.375 13.55322
57.380 14.190172
57.385 14.70551
57.390 14.45009
57.395 14.482121
57.400 14.747652
57.405 14.99147
57.410 14.568041
57.415 14.279419
57.420 15.142001
57.425 15.788713
57.430 15.578256
57.435 15.306441
57.440 15.515133
57.445 16.58864
57.450 17.38913
57.455 16.659687
57.460 16.566191
57.465 16.640051
57.470 16.274654
57.475 15.512056
57.480 14.537601
57.485 13.551605
57.490 13.288216
57.495 12.984284
57.500 13.319942
57.505 13.278774
57.510 13.279647
57.515 13.73301
57.520 14.133424
57.525 14.534217
57.530 14.690053
57.535 15.175412
57.540 15.358932
57.545 15.933215
57.550 15.671274
57.555 15.613511
57.560 15.733211
57.565 16.384722
57.570 16.211084
57.575 16.022932
57.580 15.174764
57.585 15.162958
57.590 14.82585
57.595 13.927655
57.600 13.140655
57.605 13.323873
57.610 13.893656
57.615 14.313652
57.620 14.428367
57.625 14.94989
57.630 15.152407
57.635 15.213279
57.640 14.955345
57.645 14.493531
57.650 14.568336
57.655 14.679014
57.660 14.115622
57.665 14.215134
57.670 13.65701
57.675 13.898075
57.680 14.333764
57.685 15.009582
57.690 15.235496
57.695 15.246492
57.700 15.633075
57.705 16.247038
57.710 15.897961
57.715 15.572807
57.720 15.160862
57.725 15.2766
57.730 14.994124
57.735 14.411477
57.740 14.258842
57.745 14.420118
57.750 14.669371
57.755 14.181184
57.760 14.418668
57.765 14.855672
57.770 14.94783
57.775 14.955006
57.780 14.82759
57.785 14.805181
57.790 14.857527
57.795 13.788911
57.800 14.482663
57.805 14.853199
57.810 14.925857
57.815 14.772073
57.820 14.194851
57.825 13.93072
57.830 14.798285
57.835 14.711067
57.840 14.721313
57.845 14.375079
57.850 14.527857
57.855 14.674819
57.860 15.111357
57.865 14.795374
57.870 14.176727
57.875 13.747244
57.880 13.769286
57.885 13.994377
57.890 14.73018
57.895 14.28299
57.900 14.418098
57.905 14.854362
57.910 14.841586
57.915 14.908706
57.920 14.87203
57.925 14.965652
57.930 15.334064
57.935 15.183483
57.940 15.490089
57.945 15.753156
57.950 15.905946
57.955 15.857896
57.960 15.575645
57.965 15.494786
57.970 15.33731
57.975 15.099078
57.980 14.89912
57.985 14.615323
57.990 14.368477
57.995 14.128914
58.000 14.134187
58.005 14.267904
58.010 14.214223
58.015 14.751992
58.020 15.424351
58.025 15.682001
58.030 15.835819
58.035 15.617917
58.040 15.844603
58.045 15.976847
58.050 15.887451
58.055 16.468332
58.060 16.863253
58.065 17.528349
58.070 18.003258
58.075 17.642557
58.080 17.549545
58.085 17.395285
58.090 16.472858
58.095 15.465049
58.100 15.106833
58.105 15.057544
58.110 15.556419
58.115 15.804844
58.120 15.591167
58.125 15.442183
58.130 15.632504
58.135 15.504114
58.140 15.149704
58.145 15.288954
58.150 15.466023
58.155 15.987361
58.160 16.195433
58.165 16.414358
58.170 16.373079
58.175 17.12709
58.180 17.057295
58.185 16.735008
58.190 16.04446
58.195 15.681409
58.200 15.86762
58.205 16.141506
58.210 15.958302
58.215 15.673737
58.220 16.042032
58.225 16.343296
58.230 16.363529
58.235 15.772882
58.240 15.423558
58.245 15.020528
58.250 15.309156
58.255 15.203457
58.260 15.585805
58.265 15.709986
58.270 16.02973
58.275 15.911002
58.280 15.555596
58.285 15.143353
58.290 14.988737
58.295 14.57513
58.300 14.491218
58.305 14.491871
58.310 14.517039
58.315 14.575976
58.320 14.452238
58.325 14.697721
58.330 15.276953
58.335 15.949255
58.340 15.93978
58.345 15.946231
58.350 16.221722
58.355 16.692965
58.360 16.720417
58.365 16.183605
58.370 16.289864
58.375 16.539349
58.380 16.050621
58.385 15.757875
58.390 15.319843
58.395 14.907608
58.400 15.122136
58.405 14.37898
58.410 14.575222
58.415 14.890417
58.420 15.211766
58.425 15.21493
58.430 15.314564
58.435 15.24291
58.440 15.656306
58.445 16.048555
58.450 16.499447
58.455 16.149937
58.460 16.108318
58.465 16.092249
58.470 16.206999
58.475 16.038477
58.480 15.452476
58.485 14.972816
58.490 14.894261
58.495 15.085095
58.500 15.545558
58.505 15.630471
58.510 15.91208
58.515 15.97192
58.520 16.328077
58.525 16.826481
58.530 16.220612
58.535 16.396645
58.540 16.506504
58.545 15.920818
58.550 15.934646
58.555 15.928175
58.560 16.131016
58.565 16.882627
58.570 16.302456
58.575 16.104158
58.580 16.37603
58.585 16.278986
58.590 16.271461
58.595 15.727085
58.600 15.534102
58.605 15.550138
58.610 15.601451
58.615 15.561607
58.620 15.678398
58.625 15.831293
58.630 16.221533
58.635 15.890786
58.640 15.998394
58.645 15.691484
58.650 15.979867
58.655 16.010864
58.660 15.783529
58.665 15.78216
58.670 15.514223
58.675 15.359241
58.680 15.417556
58.685 15.474097
58.690 15.53264
58.695 16.328312
58.700 16.359203
58.705 16.460953
58.710 16.416611
58.715 16.171801
58.720 15.600833
58.725 15.364911
58.730 15.018955
58.735 15.314878
58.740 15.595791
58.745 15.790717
58.750 15.714259
58.755 15.940598
58.760 15.765399
58.765 15.539763
58.770 15.336199
58.775 15.569554
58.780 16.007769
58.785 17.017092
58.790 17.364178
58.795 17.828066
58.800 17.571957
58.805 17.139894
58.810 16.349756
58.815 15.802949
58.820 15.590234
58.825 15.544513
58.830 15.147847
58.835 15.088715
58.840 15.041906
58.845 16.289085
58.850 16.42544
58.855 16.063816
58.860 15.492744
58.865 15.323343
58.870 15.426358
58.875 15.88848
58.880 15.295547
58.885 15.534425
58.890 15.623293
58.895 16.133774
58.900 15.922697
58.905 16.32144
58.910 16.376331
58.915 16.430204
58.920 16.776253
58.925 16.567995
58.930 16.215952
58.935 16.351757
58.940 16.029181
58.945 15.747079
58.950 15.56471
58.955 14.87967
58.960 14.99297
58.965 15.156157
58.970 15.138325
58.975 15.40624
58.980 15.773881
58.985 16.051657
58.990 16.808979
58.995 17.346418
59.000 17.506207
59.005 17.207771
59.010 17.310595
59.015 17.213573
59.020 16.679571
59.025 16.10811
59.030 15.91708
59.035 16.752077
59.040 17.355951
59.045 17.206326
59.050 17.711809
59.055 17.880148
59.060 17.707752
59.065 17.477882
59.070 17.111937
59.075 17.16287
59.080 17.392694
59.085 16.802732
59.090 17.015171
59.095 17.485344
59.100 17.092848
59.105 16.460617
59.110 16.243338
59.115 16.045952
59.120 15.864112
59.125 15.809906
59.130 15.641914
59.135 15.98462
59.140 16.487774
59.145 16.099123
59.150 15.768759
59.155 15.71579
59.160 15.488323
59.165 15.672416
59.170 15.907041
59.175 15.862636
59.180 16.514803
59.185 17.006178
59.190 17.823381
59.195 18.496321
59.200 18.628769
59.205 19.053282
59.210 19.669006
59.215 19.475231
59.220 19.391672
59.225 18.603897
59.230 18.214432
59.235 17.814404
59.240 17.543745
59.245 17.38109
59.250 17.403913
59.255 17.370579
59.260 17.719259
59.265 17.547501
59.270 17.4872
59.275 17.245258
59.280 16.8993
59.285 16.703878
59.290 16.291079
59.295 16.110798
59.300 16.296043
59.305 15.951798
59.310 15.657525
59.315 15.516111
59.320 15.46002
59.325 15.385462
59.330 15.323282
59.335 15.8297
59.340 16.428907
59.345 16.909641
59.350 17.278639
59.355 17.772913
59.360 18.790392
59.365 18.986792
59.370 18.600992
59.375 18.276268
59.380 18.006538
59.385 17.900471
59.390 17.77606
59.395 17.548374
59.400 17.351442
59.405 17.140881
59.410 17.532772
59.415 17.724617
59.420 17.691986
59.425 17.491442
59.430 17.442316
59.435 17.507215
59.440 17.726385
59.445 17.961119
59.450 18.237204
59.455 18.196312
59.460 18.454491
59.465 19.012941
59.470 19.085905
59.475 19.439205
59.480 19.364206
59.485 19.643494
59.490 19.744572
59.495 19.750153
59.500 19.065598
59.505 19.083416
59.510 18.751785
59.515 18.465248
59.520 18.344353
59.525 18.531231
59.530 18.211874
59.535 18.715252
59.540 18.975262
59.545 18.765081
59.550 18.986753
59.555 18.772388
59.560 19.166536
59.565 19.247854
59.570 18.709509
59.575 18.631311
59.580 19.450174
59.585 19.614832
59.590 20.013578
59.595 19.776964
59.600 19.759014
59.605 19.562599
59.610 18.996195
59.615 18.720629
59.620 18.80213
59.625 19.166327
59.630 19.405172
59.635 20.435442
59.640 21.387615
59.645 21.528252
59.650 20.977947
59.655 20.375998
59.660 19.522966
59.665 18.838482
59.670 18.478708
59.675 18.675219
59.680 19.088526
59.685 19.045412
59.690 19.630323
59.695 20.489363
59.700 21.134466
59.705 20.780201
59.710 20.28793
59.715 20.817068
59.720 21.804329
59.725 21.46686
59.730 20.800117
59.735 20.862265
59.740 21.334896
59.745 21.825359
59.750 21.559031
59.755 20.967216
59.760 20.93013
59.765 21.19129
59.770 20.959425
59.775 20.827971
59.780 20.848219
59.785 20.789263
59.790 20.953318
59.795 20.805695
59.800 20.805992
59.805 20.262758
59.810 20.151711
59.815 19.932446
59.820 19.807278
59.825 19.584614
59.830 20.087574
59.835 20.628532
59.840 21.906637
59.845 22.362637
59.850 22.636492
59.855 22.634354
59.860 22.880379
59.865 23.182436
59.870 23.444164
59.875 23.177031
59.880 22.964699
59.885 23.257233
59.890 23.748892
59.895 24.351133
59.900 24.142876
59.905 23.563122
59.910 23.81119
59.915 23.757744
59.920 23.645735
59.925 23.766134
59.930 23.303669
59.935 23.548403
59.940 23.524723
59.945 23.263401
59.950 23.463236
59.955 23.415871
59.960 23.145809
59.965 23.355598
59.970 22.447308
59.975 22.303385
59.980 21.648006
59.985 21.13695
59.990 21.533829
59.995 22.145279
60.000 22.280832
60.005 22.769753
60.010 23.426811
60.015 23.697531
60.020 24.140322
60.025 23.677416
60.030 22.903296
60.035 22.933422
60.040 23.178411
60.045 22.913866
60.050 23.378098
60.055 23.194225
60.060 23.27808
60.065 23.685339
60.070 23.434771
60.075 23.533203
60.080 23.7353
60.085 23.410969
60.090 23.609682
60.095 23.512976
60.100 23.54216
60.105 23.596273
60.110 23.251421
60.115 23.078669
60.120 22.883762
60.125 23.155077
60.130 23.629698
60.135 23.352755
60.140 23.304295
60.145 23.336847
60.150 23.789722
60.155 24.306664
60.160 24.332449
60.165 24.184019
60.170 24.370474
60.175 24.440809
60.180 24.104134
60.185 23.912039
60.190 24.068768
60.195 23.789797
60.200 23.627518
60.205 24.09543
60.210 24.303282
60.215 24.618704
60.220 24.265005
60.225 23.737915
60.230 23.459583
60.235 23.269112
60.240 22.952988
60.245 23.143478
60.250 23.666969
60.255 24.366974
60.260 24.789856
60.265 24.682129
60.270 24.541466
60.275 24.023829
60.280 23.492357
60.285 23.325998
60.290 22.704153
60.295 22.184275
60.300 22.530657
60.305 22.441528
60.310 22.682852
60.315 22.959049
60.320 22.444286
60.325 22.275043
60.330 21.925726
60.335 22.267265
60.340 22.788227
60.345 23.174009
60.350 23.625614
60.355 23.655867
60.360 23.133539
60.365 23.669336
60.370 23.752872
60.375 23.514172
60.380 22.596813
60.385 21.751778
60.390 21.548737
60.395 22.371138
60.400 21.636364
60.405 20.695183
60.410 20.463739
60.415 20.686821
60.420 20.713959
60.425 20.705919
60.430 20.576529
60.435 21.20475
60.440 21.217232
60.445 20.675781
60.450 20.244934
60.455 20.139812
60.460 20.240053
60.465 20.102879
60.470 19.764074
60.475 20.468155
60.480 21.32135
60.485 21.331326
60.490 21.591017
60.495 21.59506
60.500 21.934107
60.505 22.500841
60.510 22.396219
60.515 22.218298
60.520 22.0275
60.525 21.496546
60.530 21.13685
60.535 20.407391
60.540 19.701591
60.545 19.169121
60.550 19.264843
60.555 19.433338
60.560 19.71579
60.565 19.823586
60.570 20.300739
60.575 20.794714
60.580 21.126427
60.585 20.904819
60.590 20.180664
60.595 20.572689
60.600 21.13306
60.605 21.083368
60.610 20.234337
60.615 20.012442
60.620 20.063828
60.625 20.764626
60.630 20.170607
60.635 19.443796
60.640 19.011526
60.645 18.892742
60.650 18.578238
60.655 18.418482
60.660 17.920238
60.665 17.704159
60.670 17.615223
60.675 17.336716
60.680 17.6761
60.685 17.842836
60.690 18.047127
60.695 18.482996
60.700 18.948359
60.705 19.652155
60.710 20.345154
60.715 20.727217
60.720 20.676233
60.725 20.239523
60.730 20.164537
60.735 19.991573
60.740 19.192354
60.745 18.769175
60.750 18.381693
60.755 18.737402
60.760 18.717056
60.765 18.573395
60.770 18.529667
60.775 18.313528
60.780 18.278904
60.785 18.293482
60.790 17.686958
60.795 17.601509
60.800 17.294245
60.805 17.387098
60.810 17.850861
60.815 17.70134
60.820 17.753538
60.825 18.437004
60.830 18.648359
60.835 18.434179
60.840 17.9519
60.845 17.062906
60.850 17.001642
60.855 17.244555
60.860 17.146276
60.865 17.618654
60.870 17.851498
60.875 18.272125
60.880 18.981575
60.885 18.561615
60.890 18.394464
60.895 18.317854
60.900 17.995079
60.905 18.165812
60.910 18.107622
60.915 18.661861
60.920 18.782576
60.925 18.960659
60.930 19.011766
60.935 19.098845
60.940 18.553171
60.945 18.364492
60.950 18.432045
60.955 18.53166
60.960 18.281652
60.965 17.865585
60.970 17.568419
60.975 18.034283
60.980 18.360792
60.985 18.133091
60.990 17.968718
60.995 18.218126
61.000 18.582905
61.005 18.598845
61.010 18.046438
61.015 17.813292
61.020 16.893295
61.025 15.861664
61.030 15.32686
61.035 15.499066
61.040 15.639619
61.045 15.866892
61.050 15.689169
61.055 16.314829
61.060 16.994459
61.065 16.744181
61.070 16.490337
61.075 16.624916
61.080 16.542101
61.085 17.158859
61.090 17.14666
61.095 17.197163
61.100 17.973093
61.105 17.828381
61.110 17.524574
61.115 17.789265
61.120 17.127071
61.125 17.430071
61.130 17.554886
61.135 17.200788
61.140 17.171955
61.145 18.108999
61.150 17.754436
61.155 17.708216
61.160 16.845919
61.165 16.432901
61.170 16.329803
61.175 16.534784
61.180 16.190758
61.185 16.469065
61.190 16.538706
61.195 17.158895
61.200 18.19718
61.205 18.959988
61.210 19.240587
61.215 19.265963
61.220 19.169277
61.225 19.43137
61.230 20.050278
61.235 19.253983
61.240 18.523623
61.245 18.536165
61.250 18.499199
61.255 18.488108
61.260 18.101706
61.265 17.403324
61.270 17.211729
61.275 16.82954
61.280 16.126402
61.285 16.154846
61.290 16.555702
61.295 16.943209
61.300 17.069811
61.305 16.974506
61.310 17.038389
61.315 17.429031
61.320 17.045855
61.325 16.407265
61.330 16.094231
61.335 15.571789
61.340 16.176294
61.345 15.948295
61.350 15.679151
61.355 16.118666
61.360 16.039854
61.365 16.253197
61.370 16.771976
61.375 16.5851
61.380 16.651012
61.385 16.890102
61.390 16.834471
61.395 16.913597
61.400 16.777546
61.405 16.79874
61.410 17.062784
61.415 17.151453
61.420 17.27091
61.425 17.079052
61.430 16.994322
61.435 16.793985
61.440 16.465494
61.445 16.416452
61.450 16.187506
61.455 15.85593
61.460 16.420635
61.465 16.642012
61.470 16.730057
61.475 16.21402
61.480 15.959949
61.485 16.15262
61.490 16.674532
61.495 16.309996
61.500 16.272228
61.505 16.189384
61.510 16.400307
61.515 16.74865
61.520 16.661848
61.525 16.703159
61.530 17.05035
61.535 17.371632
61.540 18.111
61.545 18.83968
61.550 18.9137
61.555 18.615852
61.560 17.971752
61.565 17.75919
61.570 17.813717
61.575 17.427511
61.580 17.099731
61.585 16.885649
61.590 17.206173
61.595 17.386011
61.600 17.15263
61.605 16.623774
61.610 16.606407
61.615 16.297876
61.620 16.521774
61.625 16.415407
61.630 16.473429
61.635 16.517893
61.640 16.270933
61.645 16.944853
61.650 17.004164
61.655 16.768879
61.660 16.65473
61.665 16.608768
61.670 17.183037
61.675 17.972178
61.680 17.023386
61.685 16.91099
61.690 16.842388
61.695 17.362762
61.700 17.526085
61.705 17.047871
61.710 16.644501
61.715 16.690718
61.720 17.276762
61.725 17.195316
61.730 16.761595
61.735 16.676296
61.740 16.714884
61.745 16.911373
61.750 17.309002
61.755 16.95417
61.760 16.912325
61.765 16.609419
61.770 16.532635
61.775 16.708048
61.780 16.783195
61.785 17.289602
61.790 17.666964
61.795 17.859261
61.800 17.991346
61.805 17.896263
61.810 18.0033
61.815 17.956976
61.820 17.224237
61.825 17.220472
61.830 17.314905
61.835 17.51889
61.840 17.846636
61.845 17.724741
61.850 17.792229
61.855 17.692421
61.860 17.817034
61.865 17.727175
61.870 17.496151
61.875 17.463631
61.880 17.55345
61.885 17.595776
61.890 17.857704
61.895 17.804468
61.900 17.882215
61.905 17.938168
61.910 18.468952
61.915 18.533228
61.920 18.29768
61.925 17.963186
61.930 18.114054
61.935 17.723488
61.940 17.836748
61.945 17.53919
61.950 17.491682
61.955 17.944956
61.960 17.801863
61.965 17.607006
61.970 18.611797
61.975 18.765936
61.980 18.673763
61.985 18.31731
61.990 17.888937
61.995 17.837919
62.000 17.250042
62.005 16.767326
62.010 16.652987
62.015 16.26577
62.020 16.232584
62.025 16.195889
62.030 16.404392
62.035 17.191866
62.040 17.324833
62.045 17.234243
62.050 17.908834
62.055 18.011087
62.060 18.154617
62.065 18.393209
62.070 18.320784
62.075 18.798903
62.080 18.841734
62.085 18.351994
62.090 18.502682
62.095 18.454596
62.100 18.279945
62.105 17.297548
62.110 16.568235
62.115 16.761658
62.120 17.241638
62.125 17.841621
62.130 18.053001
62.135 18.117558
62.140 18.307468
62.145 18.355173
62.150 17.881474
62.155 17.40749
62.160 17.256001
62.165 17.083942
62.170 17.520508
62.175 18.623278
62.180 19.020224
62.185 18.901472
62.190 18.893763
62.195 18.480072
62.200 18.086031
62.205 17.435884
62.210 16.87307
62.215 16.953224
62.220 17.275528
62.225 17.663017
62.230 17.946493
62.235 17.731035
62.240 17.434183
62.245 17.295357
62.250 17.041563
62.255 16.456316
62.260 15.702922
62.265 15.212224
62.270 15.495399
62.275 16.220877
62.280 16.103552
62.285 16.377144
62.290 16.773066
62.295 17.342228
62.300 17.821611
62.305 17.702267
62.310 17.089705
62.315 17.399899
62.320 17.428755
62.325 17.773045
62.330 18.041788
62.335 17.90048
62.340 17.869684
62.345 17.579809
62.350 16.639303
62.355 16.542934
62.360 15.447618
62.365 15.278945
62.370 15.259431
62.375 15.355252
62.380 15.930257
62.385 16.375923
62.390 16.728586
62.395 17.967381
62.400 18.368317
62.405 18.495956
62.410 18.642565
62.415 18.684385
62.420 18.735779
62.425 18.577452
62.430 18.258045
62.435 17.432829
62.440 17.187826
62.445 17.003181
62.450 17.250029
62.455 18.22094
62.460 18.4874
62.465 18.549778
62.470 19.242579
62.475 19.454809
62.480 19.320621
62.485 18.723459
62.490 17.749727
62.495 17.510057
62.500 17.27387
62.505 16.931866
62.510 17.017467
62.515 17.254288
62.520 17.285486
62.525 17.352585
62.530 16.977709
62.535 16.544523
62.540 16.493019
62.545 16.779448
62.550 16.797344
62.555 17.06319
62.560 16.828358
62.565 16.68977
62.570 17.551031
62.575 17.535086
62.580 17.19338
62.585 16.278996
62.590 16.018736
62.595 15.272681
62.600 15.519802
62.605 14.879004
62.610 14.720541
62.615 14.952293
62.620 15.639178
62.625 15.88765
62.630 16.518152
62.635 16.232462
62.640 16.190544
62.645 15.865484
62.650 15.89027
62.655 15.876451
62.660 15.617889
62.665 15.548748
62.670 16.251856
62.675 16.794247
62.680 16.964788
62.685 17.046591
62.690 17.594078
62.695 17.900898
62.700 18.500965
62.705 18.350437
62.710 19.05757
62.715 19.77553
62.720 19.937346
62.725 19.987967
62.730 20.213825
62.735 20.249502
62.740 20.216099
62.745 19.040003
62.750 18.79413
62.755 18.680084
62.760 18.23403
62.765 17.87569
62.770 17.349634
62.775 16.642458
62.780 16.828135
62.785 16.553812
62.790 16.27627
62.795 16.37468
62.800 16.693546
62.805 17.011827
62.810 17.810223
62.815 18.247169
62.820 18.32707
62.825 18.879162
62.830 19.02331
62.835 18.520197
62.840 18.740208
62.845 18.497202
62.850 18.027473
62.855 17.965508
62.860 17.640352
62.865 17.161282
62.870 17.505207
62.875 17.708555
62.880 17.940983
62.885 17.663694
62.890 17.117897
62.895 17.220177
62.900 17.540539
62.905 17.697596
62.910 17.293741
62.915 17.131744
62.920 17.83765
62.925 18.182728
62.930 18.246313
62.935 17.981201
62.940 17.040176
62.945 16.42856
62.950 16.506632
62.955 16.556896
62.960 16.584763
62.965 16.012827
62.970 15.734536
62.975 15.967829
62.980 16.367527
62.985 15.873858
62.990 15.685619
62.995 16.089142
63.000 16.777336
63.005 17.836237
63.010 18.265762
63.015 18.039639
63.020 18.12289
63.025 18.154028
63.030 17.632708
63.035 17.293283
63.040 16.779413
63.045 16.997726
63.050 16.784618
63.055 16.523617
63.060 16.766298
63.065 17.013039
63.070 16.980671
63.075 16.819508
63.080 16.691696
63.085 16.925285
63.090 16.551649
63.095 16.480614
63.100 16.416943
63.105 16.706139
63.110 16.350569
63.115 16.015251
63.120 16.438166
63.125 17.578403
63.130 17.484734
63.135 17.748613
63.140 17.74012
63.145 18.021393
63.150 18.026892
63.155 17.357809
63.160 16.651918
63.165 16.851896
63.170 16.769121
63.175 17.060009
63.180 17.240952
63.185 17.92564
63.190 18.31624
63.195 18.481007
63.200 18.170719
63.205 17.754313
63.210 17.189163
63.215 16.959276
63.220 16.053738
63.225 15.807388
63.230 15.647674
63.235 15.87743
63.240 16.527103
63.245 17.030512
63.250 17.325815
63.255 18.122833
63.260 18.914238
63.265 18.938581
63.270 18.690681
63.275 17.956659
63.280 17.524643
63.285 17.447523
63.290 16.947676
63.295 16.359985
63.300 16.358063
63.305 16.775791
63.310 17.285837
63.315 18.05913
63.320 18.584167
63.325 18.974813
63.330 19.444775
63.335 19.457619
63.340 19.269098
63.345 19.357859
63.350 18.802649
63.355 18.486122
63.360 18.278538
63.365 17.920309
63.370 17.880432
63.375 17.764515
63.380 17.391897
63.385 17.20153
63.390 17.537619
63.395 17.581089
63.400 17.640074
63.405 17.205618
63.410 17.233431
63.415 17.11787
63.420 16.744553
63.425 16.099697
63.430 16.400509
63.435 16.91976
63.440 17.310606
63.445 17.263905
63.450 17.188299
63.455 17.577433
63.460 17.173973
63.465 17.062588
63.470 17.518805
63.475 17.750324
63.480 17.686329
63.485 18.388191
63.490 18.963079
63.495 19.305418
63.500 19.108927
63.505 18.818579
63.510 19.04458
63.515 19.246864
63.520 18.484009
63.525 17.737114
63.530 17.945776
63.535 17.494293
63.540 17.462524
63.545 16.941034
63.550 16.97843
63.555 17.439899
63.560 17.583057
63.565 17.328066
63.570 17.310049
63.575 17.49885
63.580 17.999502
63.585 18.137415
63.590 18.145226
63.595 17.713516
63.600 18.064938
63.605 18.35886
63.610 17.620216
63.615 17.257746
63.620 17.103184
63.625 16.999216
63.630 17.639542
63.635 17.599537
63.640 18.12697
63.645 18.423244
63.650 17.761263
63.655 17.315914
63.660 17.360445
63.665 17.670195
63.670 17.864609
63.675 17.408108
63.680 17.27047
63.685 18.0303
63.690 18.965515
63.695 19.156923
63.700 18.812757
63.705 18.184616
63.710 18.219175
63.715 18.072653
63.720 17.573492
63.725 17.338568
63.730 17.550215
63.735 17.611216
63.740 17.673927
63.745 17.314133
63.750 17.266079
63.755 17.328135
63.760 17.192287
63.765 16.415609
63.770 16.780487
63.775 16.936075
63.780 17.510492
63.785 17.842535
63.790 17.74511
63.795 17.551733
63.800 18.083475
63.805 18.343651
63.810 18.272516
63.815 18.271864
63.820 18.564556
63.825 18.525436
63.830 18.756315
63.835 18.512388
63.840 17.804489
63.845 17.375992
63.850 16.800755
63.855 16.907093
63.860 17.350775
63.865 17.556238
63.870 17.18055
63.875 17.329361
63.880 18.011684
63.885 18.8617
63.890 19.208603
63.895 19.078432
63.900 18.661489
63.905 18.730721
63.910 18.562925
63.915 18.281233
63.920 17.521347
63.925 17.278866
63.930 17.018457
63.935 17.077311
63.940 17.154734
63.945 17.056431
63.950 17.327957
63.955 17.678741
63.960 18.029013
63.965 18.497625
63.970 19.052059
63.975 19.326883
63.980 19.691853
63.985 19.117104
63.990 18.780376
63.995 17.993813
64.000 17.335501
64.005 17.467274
64.010 17.943075
64.015 18.087839
64.020 18.609034
64.025 18.673733
64.030 18.955925
64.035 19.15922
64.040 19.130203
64.045 18.78145
64.050 18.806967
64.055 19.262291
64.060 19.422796
64.065 19.318607
64.070 19.739668
64.075 19.422344
64.080 18.955029
64.085 18.761015
64.090 18.48432
64.095 18.189287
64.100 17.930027
64.105 17.298161
64.110 17.474627
64.115 17.864935
64.120 17.663942
64.125 17.513906
64.130 17.915167
64.135 18.442617
64.140 18.660526
64.145 18.391939
64.150 18.349297
64.155 18.550535
64.160 18.539127
64.165 18.286825
64.170 17.985405
64.175 18.065966
64.180 18.215099
64.185 17.935986
64.190 17.996607
64.195 17.969101
64.200 18.201674
64.205 18.615276
64.210 18.250965
64.215 17.902351
64.220 18.565037
64.225 18.760946
64.230 19.111685
64.235 19.007322
64.240 18.646194
64.245 18.50498
64.250 18.541311
64.255 18.416883
64.260 18.270723
64.265 17.989462
64.270 17.866846
64.275 17.922033
64.280 18.630657
64.285 18.69565
64.290 17.9596
64.295 18.471148
64.300 19.392447
64.305 19.685368
64.310 20.503622
64.315 20.262024
64.320 20.268051
64.325 20.380199
64.330 19.482353
64.335 18.802858
64.340 18.810135
64.345 18.222353
64.350 18.315434
64.355 18.188148
64.360 17.988249
64.365 17.876799
64.370 17.228481
64.375 16.494259
64.380 16.346882
64.385 16.591421
64.390 16.988586
64.395 17.521139
64.400 17.975588
64.405 18.675632
64.410 19.199661
64.415 18.932816
64.420 19.48654
64.425 19.303293
64.430 18.708229
64.435 18.453272
64.440 18.250441
64.445 18.304708
64.450 18.54743
64.455 17.981197
64.460 18.538092
64.465 19.384336
64.470 19.391369
64.475 19.558289
64.480 19.948397
64.485 19.6868
64.490 19.43321
64.495 19.856848
64.500 20.122175
64.505 20.364508
64.510 20.14481
64.515 20.007938
64.520 20.465923
64.525 20.380478
64.530 19.299774
64.535 19.027075
64.540 19.513617
64.545 19.400673
64.550 19.545576
64.555 19.245516
64.560 19.181257
64.565 19.339676
64.570 18.912954
64.575 18.75103
64.580 18.878174
64.585 18.764385
64.590 19.200447
64.595 19.756594
64.600 19.657921
64.605 20.007357
64.610 20.181122
64.615 20.431417
64.620 20.007212
64.625 20.02882
64.630 19.77338
64.635 19.712336
64.640 19.711126
64.645 18.967646
64.650 19.241278
64.655 19.687382
64.660 19.775984
64.665 19.606819
64.670 19.25942
64.675 19.19742
64.680 19.94626
64.685 19.351761
64.690 18.836395
64.695 18.81179
64.700 18.886869
64.705 19.32482
64.710 19.554499
64.715 19.151484
64.720 19.504637
64.725 19.56204
64.730 19.695889
64.735 19.848494
64.740 20.85906
64.745 21.012489
64.750 21.227026
64.755 21.429686
64.760 21.706383
64.765 21.776749
64.770 21.172594
64.775 20.086119
64.780 19.812897
64.785 19.677265
64.790 20.007092
64.795 19.587849
64.800 19.908995
64.805 20.294035
64.810 20.967054
64.815 21.257046
64.820 21.124598
64.825 20.862209
64.830 20.545912
64.835 20.314058
64.840 20.814255
64.845 20.788155
64.850 20.553385
64.855 20.645767
64.860 20.848984
64.865 21.635117
64.870 21.935987
64.875 22.443483
64.880 22.374186
64.885 22.150362
64.890 22.430042
64.895 22.659378
64.900 22.224064
64.905 22.140583
64.910 21.710749
64.915 21.858068
64.920 22.216103
64.925 21.969263
64.930 21.712009
64.935 21.48019
64.940 21.393934
64.945 21.341276
64.950 21.355791
64.955 21.816957
64.960 22.208849
64.965 22.124929
64.970 22.641033
64.975 22.751701
64.980 22.59486
64.985 22.14093
64.990 21.505854
64.995 21.551252
65.000 21.995607
65.005 21.902193
65.010 21.911562
65.015 22.627014
65.020 23.766777
65.025 23.723528
65.030 23.783758
65.035 23.788383
65.040 24.300966
65.045 24.656599
65.050 23.95129
65.055 23.441759
65.060 23.555412
65.065 23.250158
65.070 22.837975
65.075 22.235792
65.080 21.660772
65.085 21.975159
65.090 22.241882
65.095 22.403606
65.100 22.840914
65.105 22.72785
65.110 22.437773
65.115 22.645784
65.120 22.661133
65.125 22.522371
65.130 21.937029
65.135 21.37768
65.140 21.938211
65.145 22.333431
65.150 22.402477
65.155 22.539465
65.160 22.71822
65.165 23.935762
65.170 24.917929
65.175 25.164579
65.180 24.964542
65.185 24.368973
65.190 23.625446
65.195 23.467012
65.200 23.325718
65.205 23.147697
65.210 23.127317
65.215 22.826788
65.220 22.741146
65.225 23.00326
65.230 23.278677
65.235 23.509136
65.240 23.4986
65.245 22.876698
65.250 23.075539
65.255 23.276957
65.260 22.858139
65.265 22.199171
65.270 21.601482
65.275 21.228006
65.280 21.85199
65.285 22.029638
65.290 22.418201
65.295 23.358345
65.300 23.817867
65.305 23.788944
65.310 23.988615
65.315 23.741991
65.320 24.097721
65.325 23.849106
65.330 23.417955
65.335 23.132723
65.340 23.251541
65.345 23.385149
65.350 24.050491
65.355 23.704735
65.360 23.833935
65.365 24.141319
65.370 24.327797
65.375 23.996567
65.380 23.41029
65.385 22.695732
65.390 23.114708
65.395 23.64538
65.400 23.728134
65.405 24.096874
65.410 25.192671
65.415 25.457848
65.420 25.768074
65.425 25.340111
65.430 24.94017
65.435 25.094076
65.440 25.33794
65.445 24.66321
65.450 24.46171
65.455 24.620184
65.460 24.600277
65.465 25.01063
65.470 25.285603
65.475 24.952185
65.480 25.18869
65.485 25.927219
65.490 25.999908
65.495 26.44278
65.500 25.81333
65.505 25.95116
65.510 26.330553
65.515 26.661558
65.520 26.667528
65.525 27.258247
65.530 27.355717
65.535 27.709913
65.540 27.85177
65.545 28.960104
65.550 29.523075
65.555 29.38493
65.560 29.446157
65.565 29.311993
65.570 29.190552
65.575 29.764215
65.580 29.62562
65.585 29.786634
65.590 29.699425
65.595 29.55361
65.600 29.599289
65.605 29.824738
65.610 29.536516
65.615 29.357565
65.620 29.490789
65.625 29.953058
65.630 30.064665
65.635 30.898319
65.640 31.114145
65.645 31.863182
65.650 31.816904
65.655 31.916992
65.660 31.865641
65.665 32.688313
65.670 32.607563
65.675 32.574013
65.680 32.9044
65.685 33.802292
65.690 34.067703
65.695 34.359478
65.700 34.786087
65.705 35.43446
65.710 35.515545
65.715 34.219292
65.720 32.859314
65.725 32.440994
65.730 32.939449
65.735 32.915733
65.740 33.036125
65.745 33.326817
65.750 34.231823
65.755 35.161007
65.760 36.172951
65.765 35.890865
65.770 35.299271
65.775 35.510338
65.780 35.796059
65.785 35.998856
65.790 35.946072
65.795 35.779869
65.800 36.324223
65.805 37.2719
65.810 36.993519
65.815 36.07077
65.820 36.450356
65.825 36.62999
65.830 36.690216
65.835 36.67852
65.840 36.783436
65.845 36.959736
65.850 37.867882
65.855 38.799557
65.860 39.136158
65.865 38.810799
65.870 38.679054
65.875 38.399033
65.880 38.442345
65.885 38.750957
65.890 39.004803
65.895 39.780113
65.900 40.430107
65.905 40.617458
65.910 40.860737
65.915 41.479832
65.920 41.643929
65.925 40.95541
65.930 40.251694
65.935 39.942085
65.940 39.620926
65.945 39.789673
65.950 39.307907
65.955 39.249359
65.960 39.770096
65.965 40.204647
65.970 40.297295
65.975 40.166428
65.980 40.195396
65.985 39.860752
65.990 39.6973
65.995 39.366364
66.000 39.903214
66.005 39.858536
66.010 40.084187
66.015 39.562775
66.020 39.872505
66.025 39.918743
66.030 39.183189
66.035 38.727638
66.040 39.156349
66.045 39.31908
66.050 39.481701
66.055 39.834187
66.060 40.098225
66.065 39.981251
66.070 40.076778
66.075 39.346424
66.080 38.730865
66.085 38.088036
66.090 36.721596
66.095 35.984882
66.100 36.404972
66.105 36.375099
66.110 36.972561
66.115 38.019958
66.120 38.880222
66.125 39.761379
66.130 39.987118
66.135 40.538715
66.140 40.501377
66.145 39.868359
66.150 38.724648
66.155 38.462391
66.160 38.296516
66.165 37.619141
66.170 36.500282
66.175 36.642899
66.180 37.150745
66.185 37.072853
66.190 36.566685
66.195 36.216866
66.200 37.008144
66.205 36.864563
66.210 36.99815
66.215 36.646275
66.220 36.506187
66.225 36.61401
66.230 36.928444
66.235 37.001968
66.240 37.647736
66.245 37.939369
66.250 38.433983
66.255 38.770424
66.260 39.059238
66.265 39.247055
66.270 39.170963
66.275 38.089775
66.280 37.055752
66.285 36.971867
66.290 36.208874
66.295 35.551708
66.300 34.877304
66.305 34.448952
66.310 34.210182
66.315 33.165371
66.320 32.877846
66.325 32.498474
66.330 32.133461
66.335 32.137886
66.340 31.519562
66.345 31.353514
66.350 31.534973
66.355 31.270834
66.360 32.287796
66.365 32.494278
66.370 32.30592
66.375 32.793644
66.380 32.992462
66.385 32.885849
66.390 32.617924
66.395 32.665287
66.400 32.292286
66.405 32.385086
66.410 32.319962
66.415 31.40383
66.420 31.325949
66.425 31.202137
66.430 30.347191
66.435 29.89278
66.440 29.121229
66.445 29.139217
66.450 29.778978
66.455 29.653254
66.460 29.451647
66.465 29.551451
66.470 29.615561
66.475 29.795185
66.480 29.776861
66.485 29.874474
66.490 29.913122
66.495 29.608404
66.500 29.447878
66.505 29.684017
66.510 29.690626
66.515 29.886301
66.520 29.122194
66.525 28.713123
66.530 29.339949
66.535 29.022974
66.540 29.011948
66.545 28.978498
66.550 28.667786
66.555 28.843357
66.560 28.889927
66.565 28.463587
66.570 28.98531
66.575 28.856955
66.580 28.591349
66.585 28.146103
66.590 28.2841
66.595 28.206305
66.600 28.234844
66.605 27.544495
66.610 27.433477
66.615 27.113762
66.620 27.262714
66.625 26.682568
66.630 26.643553
66.635 26.523769
66.640 26.974257
66.645 26.760807
66.650 26.720842
66.655 26.901207
66.660 26.811792
66.665 26.925331
66.670 26.74173
66.675 26.313011
66.680 26.088556
66.685 25.057459
66.690 24.249182
66.695 23.600727
66.700 22.763308
66.705 22.961769
66.710 23.179888
66.715 22.293951
66.720 22.653868
66.725 23.551939
66.730 24.534927
66.735 24.761707
66.740 24.031799
66.745 23.899694
66.750 24.132404
66.755 24.588102
66.760 24.265409
66.765 24.117048
66.770 24.031214
66.775 24.160084
66.780 23.961554
66.785 24.341921
66.790 23.581278
66.795 23.16823
66.800 23.00053
66.805 23.630772
66.810 24.011866
66.815 24.68755
66.820 24.226187
66.825 24.002277
66.830 23.756872
66.835 23.606476
66.840 22.687634
66.845 22.672068
66.850 21.956837
66.855 22.683685
66.860 23.290709
66.865 23.162926
66.870 23.106352
66.875 23.218731
66.880 22.8785
66.885 23.38405
66.890 22.683886
66.895 23.117678
66.900 23.586971
66.905 23.590528
66.910 23.54557
66.915 23.987328
66.920 23.979006
66.925 24.344069
66.930 24.422806
66.935 24.665686
66.940 24.869024
66.945 25.058701
66.950 25.052448
66.955 25.220728
66.960 24.730619
66.965 23.781565
66.970 23.463087
66.975 23.584784
66.980 23.711515
66.985 23.124823
66.990 22.851755
66.995 23.045141
67.000 23.008608
67.005 22.707113
67.010 22.256578
67.015 22.276957
67.020 22.058825
67.025 22.471292
67.030 22.60634
67.035 22.49921
67.040 22.766914
67.045 23.161388
67.050 22.970541
67.055 22.917278
67.060 22.641445
67.065 22.442034
67.070 22.536798
67.075 22.292994
67.080 22.587423
67.085 22.759069
67.090 22.542992
67.095 22.46946
67.100 22.784212
67.105 22.273092
67.110 21.679935
67.115 21.023558
67.120 20.78693
67.125 20.51742
67.130 20.31621
67.135 19.632067
67.140 19.755667
67.145 20.171009
67.150 19.572598
67.155 19.670105
67.160 20.006426
67.165 20.142687
67.170 20.790447
67.175 20.73711
67.180 20.591619
67.185 21.256285
67.190 21.792137
67.195 21.719748
67.200 21.75733
67.205 21.999201
67.210 21.77948
67.215 22.317364
67.220 22.429089
67.225 21.993746
67.230 22.005875
67.235 21.535572
67.240 20.808277
67.245 20.597652
67.250 20.039661
67.255 19.915848
67.260 19.841097
67.265 20.019005
67.270 20.58672
67.275 21.274088
67.280 21.350857
67.285 21.202879
67.290 21.076561
67.295 20.894117
67.300 20.898338
67.305 20.109951
67.310 19.447218
67.315 19.614752
67.320 19.825966
67.325 19.955835
67.330 19.680971
67.335 19.880728
67.340 20.167843
67.345 20.161102
67.350 20.242151
67.355 20.174238
67.360 20.260561
67.365 20.711836
67.370 20.689415
67.375 20.806648
67.380 20.753235
67.385 20.647022
67.390 20.523649
67.395 20.535673
67.400 20.790281
67.405 20.598024
67.410 20.776192
67.415 21.300785
67.420 21.3507
67.425 21.37533
67.430 21.271921
67.435 21.068329
67.440 21.577072
67.445 21.464426
67.450 21.293783
67.455 21.813969
67.460 22.276974
67.465 22.179245
67.470 21.980392
67.475 21.529518
67.480 21.731262
67.485 21.654985
67.490 21.081213
67.495 20.757751
67.500 20.91291
67.505 20.411949
67.510 20.431568
67.515 20.737652
67.520 20.939707
67.525 20.973604
67.530 20.680351
67.535 20.541405
67.540 21.081606
67.545 21.460508
67.550 21.333166
67.555 21.306601
67.560 21.336304
67.565 22.147161
67.570 22.681952
67.575 22.642157
67.580 22.417858
67.585 22.725136
67.590 23.647833
67.595 23.759756
67.600 23.299168
67.605 23.495213
67.610 23.369968
67.615 23.553688
67.620 23.663662
67.625 22.782051
67.630 22.705229
67.635 22.838894
67.640 22.56752
67.645 22.431032
67.650 22.847332
67.655 22.644794
67.660 22.401817
67.665 22.365763
67.670 21.633619
67.675 21.490982
67.680 21.011011
67.685 20.484148
67.690 20.345306
67.695 20.447271
67.700 20.297882
67.705 20.808495
67.710 21.094702
67.715 21.425537
67.720 21.667261
67.725 22.061762
67.730 22.254477
67.735 22.087219
67.740 21.789948
67.745 21.491047
67.750 21.885874
67.755 21.660109
67.760 21.615124
67.765 21.79899
67.770 21.789658
67.775 21.673061
67.780 21.733768
67.785 21.201036
67.790 21.364065
67.795 21.271803
67.800 20.820833
67.805 21.1637
67.810 21.533819
67.815 21.557587
67.820 20.706186
67.825 19.69702
67.830 18.973234
67.835 19.391621
67.840 19.406713
67.845 18.52002
67.850 18.516056
67.855 19.075497
67.860 19.167749
67.865 19.174803
67.870 18.776026
67.875 18.980083
67.880 19.766598
67.885 20.047827
67.890 20.015089
67.895 20.452345
67.900 20.880802
67.905 20.994728
67.910 21.171139
67.915 21.205456
67.920 21.355955
67.925 20.967209
67.930 20.695339
67.935 20.885256
67.940 20.787025
67.945 20.865406
67.950 20.579906
67.955 20.821781
67.960 21.445707
67.965 22.212906
67.970 22.446856
67.975 22.427938
67.980 21.937593
67.985 21.613392
67.990 20.939404
67.995 20.738142
68.000 20.43572
68.005 20.076149
68.010 20.128128
68.015 20.392046
68.020 20.906193
68.025 21.110481
68.030 21.00387
68.035 20.745214
68.040 20.990919
68.045 21.161081
68.050 21.443243
68.055 21.165884
68.060 21.181961
68.065 21.52672
68.070 21.576326
68.075 21.40937
68.080 21.319078
68.085 21.478859
68.090 21.794334
68.095 21.795631
68.100 21.27836
68.105 20.958029
68.110 20.467573
68.115 20.136953
68.120 19.592949
68.125 19.395626
68.130 19.337524
68.135 19.65251
68.140 20.111532
68.145 20.374001
68.150 20.509747
68.155 20.479858
68.160 20.433496
68.165 20.801199
68.170 20.354513
68.175 19.93969
68.180 20.052027
68.185 20.14731
68.190 20.327354
68.195 20.704037
68.200 20.620062
68.205 20.871338
68.210 20.76063
68.215 20.470768
68.220 20.539207
68.225 20.407215
68.230 19.850908
68.235 19.682369
68.240 19.789394
68.245 20.741341
68.250 21.448383
68.255 21.275698
68.260 21.260965
68.265 21.266188
68.270 21.855143
68.275 21.794796
68.280 20.931055
68.285 20.440962
68.290 20.55937
68.295 20.793465
68.300 20.710674
68.305 20.549217
68.310 20.684156
68.315 21.649336
68.320 21.55641
68.325 21.105503
68.330 21.215006
68.335 21.279388
68.340 21.464319
68.345 21.45039
68.350 20.753265
68.355 21.06601
68.360 21.016981
68.365 20.576584
68.370 20.334217
68.375 20.19734
68.380 20.18248
68.385 20.632748
68.390 20.401402
68.395 21.009136
68.400 21.336021
68.405 21.518694
68.410 21.429268
68.415 21.478386
68.420 21.144217
68.425 21.09729
68.430 21.112234
68.435 21.339352
68.440 21.378761
68.445 21.349537
68.450 20.948807
68.455 21.126719
68.460 21.034325
68.465 20.757599
68.470 20.617031
68.475 20.669582
68.480 20.812174
68.485 21.803553
68.490 22.12009
68.495 21.807629
68.500 22.006355
68.505 21.94072
68.510 21.76627
68.515 21.603535
68.520 20.66728
68.525 20.117737
68.530 20.245399
68.535 20.137329
68.540 20.582052
68.545 21.235775
68.550 21.590946
68.555 21.604822
68.560 21.552511
68.565 21.428585
68.570 21.364117
68.575 21.045467
68.580 20.606804
68.585 20.415804
68.590 20.478598
68.595 21.405308
68.600 21.395916
68.605 21.627319
68.610 21.591734
68.615 21.787466
68.620 21.616877
68.625 22.020571
68.630 22.254845
68.635 22.59355
68.640 22.699455
68.645 22.479582
68.650 22.282291
68.655 22.686459
68.660 22.498409
68.665 22.100309
68.670 21.814373
68.675 21.390743
68.680 21.44566
68.685 21.66193
68.690 21.517305
68.695 21.664764
68.700 21.994339
68.705 21.959311
68.710 22.458431
68.715 22.77681
68.720 23.151865
68.725 23.170361
68.730 23.10372
68.735 22.406853
68.740 22.851631
68.745 22.395044
68.750 22.006504
68.755 21.775824
68.760 21.952099
68.765 22.544456
68.770 22.418907
68.775 21.846422
68.780 21.573908
68.785 21.339237
68.790 21.203678
68.795 20.440546
68.800 19.486664
68.805 19.832901
68.810 20.060652
68.815 20.496763
68.820 20.206341
68.825 20.151752
68.830 21.007872
68.835 21.240282
68.840 21.834377
68.845 22.76511
68.850 23.026421
68.855 23.567284
68.860 23.816528
68.865 23.78002
68.870 23.888111
68.875 22.617357
68.880 21.586637
68.885 20.857056
68.890 20.18926
68.895 19.461498
68.900 18.646015
68.905 19.179371
68.910 20.237049
68.915 21.296131
68.920 22.607861
68.925 23.807745
68.930 24.084227
68.935 24.652382
68.940 24.626167
68.945 24.091257
68.950 23.542393
68.955 22.993326
68.960 22.482874
68.965 22.652994
68.970 22.289587
68.975 22.230078
68.980 22.375593
68.985 22.082628
68.990 21.491123
68.995 21.759632
69.000 21.922678
69.005 22.326139
69.010 22.16081
69.015 21.990808
69.020 22.163944
69.025 22.702692
69.030 22.763494
69.035 22.543472
69.040 23.105135
69.045 24.009661
69.050 24.322718
69.055 24.517721
69.060 24.5709
69.065 25.087032
69.070 25.729149
69.075 25.344942
69.080 25.314138
69.085 25.852932
69.090 26.282547
69.095 26.336763
69.100 26.496305
69.105 26.694662
69.110 26.743963
69.115 26.247339
69.120 25.591734
69.125 25.489466
69.130 24.962887
69.135 24.783781
69.140 24.373001
69.145 24.028492
69.150 23.974276
69.155 23.89966
69.160 23.413969
69.165 24.039532
69.170 24.5776
69.175 25.363949
69.180 26.010056
69.185 26.114332
69.190 26.468781
69.195 26.399973
69.200 25.49523
69.205 25.282692
69.210 24.825695
69.215 24.833858
69.220 25.513012
69.225 25.826567
69.230 26.588158
69.235 26.848148
69.240 26.571821
69.245 26.896051
69.250 26.747313
69.255 26.812712
69.260 26.474735
69.265 26.483355
69.270 25.975485
69.275 25.669353
69.280 25.721085
69.285 25.228016
69.290 25.503738
69.295 26.24387
69.300 26.667494
69.305 27.507107
69.310 28.528997
69.315 28.678089
69.320 29.156897
69.325 28.682373
69.330 28.921431
69.335 28.936342
69.340 29.412552
69.345 30.159678
69.350 30.294781
69.355 30.719807
69.360 30.897379
69.365 29.984612
69.370 29.880276
69.375 29.114897
69.380 28.354887
69.385 27.94433
69.390 27.371958
69.395 27.099419
69.400 27.019192
69.405 26.733479
69.410 26.528641
69.415 26.953417
69.420 28.250809
69.425 29.131531
69.430 29.335943
69.435 30.158474
69.440 30.502567
69.445 30.7717
69.450 31.265318
69.455 30.925058
69.460 31.183933
69.465 31.813145
69.470 32.008915
69.475 31.990892
69.480 31.363619
69.485 30.714569
69.490 30.230471
69.495 30.119968
69.500 29.537567
69.505 29.706245
69.510 30.230923
69.515 30.572445
69.520 30.818634
69.525 31.306564
69.530 31.262091
69.535 31.437403
69.540 30.456194
69.545 30.475058
69.550 30.30138
69.555 29.93412
69.560 29.173651
69.565 29.046997
69.570 29.318033
69.575 29.653553
69.580 28.937574
69.585 29.086199
69.590 29.001383
69.595 29.399792
69.600 29.732122
69.605 29.448311
69.610 29.839752
69.615 30.376783
69.620 30.597378
69.625 30.719414
69.630 29.818123
69.635 29.852503
69.640 30.269318
69.645 30.35911
69.650 30.168762
69.655 30.136557
69.660 30.355305
69.665 30.641634
69.670 30.122272
69.675 29.721197
69.680 29.857182
69.685 30.089186
69.690 29.623758
69.695 29.480333
69.700 29.878355
69.705 29.903185
69.710 29.499153
69.715 28.851793
69.720 29.158508
69.725 29.724312
69.730 29.23053
69.735 28.4132
69.740 28.278439
69.745 28.058084
69.750 27.36968
69.755 26.302134
69.760 25.631405
69.765 25.428978
69.770 25.460669
69.775 25.474857
69.780 25.986378
69.785 26.722857
69.790 27.33563
69.795 27.545986
69.800 27.911497
69.805 27.865093
69.810 27.335848
69.815 27.445723
69.820 27.388575
69.825 26.753656
69.830 26.655933
69.835 26.239563
69.840 26.325356
69.845 26.438065
69.850 25.87653
69.855 25.815405
69.860 25.598295
69.865 25.667812
69.870 25.420654
69.875 25.249628
69.880 25.254646
69.885 25.15258
69.890 24.952553
69.895 25.168354
69.900 24.768436
69.905 24.670221
69.910 24.561655
69.915 24.376186
69.920 24.54534
69.925 24.400543
69.930 23.958467
69.935 25.123707
69.940 25.620958
69.945 25.537113
69.950 24.784069
69.955 24.389118
69.960 23.788658
69.965 23.259129
69.970 22.171894
69.975 21.904217
69.980 21.906754
69.985 22.555574
69.990 22.682945
69.995 23.350941
70.000 23.50572
70.005 23.173431
70.010 22.644146
70.015 22.91205
70.020 22.670963
70.025 22.873531
70.030 22.736439
70.035 22.910795
70.040 23.353769
70.045 23.187096
70.050 23.40917
70.055 23.105148
70.060 22.617117
70.065 22.071299
70.070 21.850857
70.075 21.946066
70.080 22.185753
70.085 22.113731
70.090 22.080219
70.095 22.148561
70.100 22.010948
70.105 21.751652
70.110 21.481331
70.115 21.302843
70.120 21.404108
70.125 21.725195
70.130 22.277819
70.135 22.581011
70.140 22.331223
70.145 22.116623
70.150 22.126551
70.155 21.703148
70.160 21.501196
70.165 21.307846
70.170 21.384159
70.175 21.368433
70.180 21.801527
70.185 21.750154
70.190 21.989491
70.195 21.524569
70.200 20.8929
70.205 20.367685
70.210 19.755053
70.215 20.022043
70.220 19.893072
70.225 19.689598
70.230 20.160301
70.235 20.42259
70.240 20.707497
70.245 20.961824
70.250 21.164511
70.255 21.348602
70.260 21.485485
70.265 21.827238
70.270 21.435024
70.275 21.158278
70.280 20.869768
70.285 20.398277
70.290 20.139135
70.295 19.935829
70.300 19.163727
70.305 19.280979
70.310 19.858353
70.315 19.871656
70.320 19.907856
70.325 19.572069
70.330 19.463438
70.335 20.11249
70.340 20.395082
70.345 20.184177
70.350 20.516253
70.355 20.585688
70.360 20.540522
70.365 20.789442
70.370 21.036032
70.375 20.642431
70.380 20.68865
70.385 20.414707
70.390 19.959881
70.395 19.841864
70.400 19.669662
70.405 19.21578
70.410 19.549803
70.415 19.541786
70.420 19.674934
70.425 20.185087
70.430 20.605198
70.435 20.581005
70.440 20.871534
70.445 21.181013
70.450 21.043224
70.455 20.392157
70.460 19.913309
70.465 19.793196
70.470 19.697741
70.475 19.243416
70.480 18.525438
70.485 19.292379
70.490 20.040405
70.495 20.630043
70.500 21.21649
70.505 21.372442
70.510 21.021597
70.515 20.972992
70.520 20.596844
70.525 20.491993
70.530 19.876013
70.535 19.450512
70.540 19.416601
70.545 19.980673
70.550 20.137419
70.555 19.966167
70.560 20.233433
70.565 20.086222
70.570 20.020699
70.575 20.119003
70.580 19.12081
70.585 18.979332
70.590 18.623243
70.595 18.360416
70.600 18.46184
70.605 18.413389
70.610 18.633484
70.615 19.15963
70.620 18.982689
70.625 18.607431
70.630 19.286039
70.635 19.399946
70.640 19.369539
70.645 19.127613
70.650 18.665209
70.655 18.985466
70.660 18.901894
70.665 17.850817
70.670 17.928551
70.675 18.125616
70.680 18.049994
70.685 18.753019
70.690 19.139626
70.695 19.517912
70.700 19.922537
70.705 19.736837
70.710 19.80155
70.715 19.813417
70.720 19.559105
70.725 19.641596
70.730 20.028219
70.735 19.539518
70.740 19.112139
70.745 18.655565
70.750 18.45895
70.755 18.257612
70.760 17.51631
70.765 17.448624
70.770 18.008108
70.775 18.894953
70.780 19.62281
70.785 19.405064
70.790 19.916691
70.795 20.491465
70.800 20.961277
70.805 20.634878
70.810 20.10943
70.815 19.569477
70.820 20.382174
70.825 19.877363
70.830 19.507723
70.835 18.972942
70.840 19.25741
70.845 19.28219
70.850 19.797344
70.855 19.515606
70.860 19.402132
70.865 19.597908
70.870 19.453129
70.875 19.004635
70.880 19.16773
70.885 18.806705
70.890 19.016899
70.895 19.530714
70.900 19.256786
70.905 19.740425
70.910 20.128506
70.915 19.926186
70.920 19.922993
70.925 19.523863
70.930 19.144724
70.935 19.198149
70.940 18.724625
70.945 18.773697
70.950 18.907141
70.955 18.705637
70.960 18.571022
70.965 18.363985
70.970 18.355703
70.975 18.933498
70.980 18.820435
70.985 19.327621
70.990 19.649773
70.995 20.039198
71.000 19.697844
71.005 19.150787
71.010 18.448208
71.015 18.262342
71.020 18.646887
71.025 19.399315
71.030 19.636955
71.035 20.032139
71.040 20.197525
71.045 20.321405
71.050 19.88098
71.055 18.91258
71.060 18.076397
71.065 17.645605
71.070 17.889395
71.075 18.175629
71.080 18.269966
71.085 18.304972
71.090 18.147329
71.095 18.452221
71.100 18.07827
71.105 18.285982
71.110 18.431557
71.115 18.455233
71.120 18.458353
71.125 18.243128
71.130 18.051626
71.135 18.282499
71.140 17.698938
71.145 17.877836
71.150 18.178253
71.155 18.110329
71.160 18.4013
71.165 19.250395
71.170 19.85285
71.175 19.771746
71.180 18.800629
71.185 18.273859
71.190 18.027193
71.195 18.086178
71.200 17.47374
71.205 17.605854
71.210 17.992937
71.215 18.225496
71.220 18.734592
71.225 18.487902
71.230 18.040466
71.235 18.453756
71.240 17.84409
71.245 17.742268
71.250 17.982889
71.255 17.926189
71.260 18.49177
71.265 18.471531
71.270 17.739252
71.275 17.852898
71.280 17.948093
71.285 18.089605
71.290 18.369476
71.295 18.471048
71.300 18.58235
71.305 18.862795
71.310 18.560553
71.315 18.790421
71.320 18.629408
71.325 18.186901
71.330 18.058092
71.335 18.096256
71.340 18.384552
71.345 18.894262
71.350 18.563498
71.355 18.723806
71.360 19.075329
71.365 18.79203
71.370 18.806993
71.375 19.179176
71.380 18.878517
71.385 18.99378
71.390 18.255054
71.395 18.072147
71.400 19.309271
71.405 19.377323
71.410 19.042843
71.415 19.16551
71.420 19.124094
71.425 20.153521
71.430 20.385927
71.435 19.511652
71.440 19.222757
71.445 19.309061
71.450 19.825706
71.455 19.813709
71.460 19.120646
71.465 18.694645
71.470 18.495834
71.475 18.520857
71.480 18.175972
71.485 18.078411
71.490 18.085287
71.495 18.261126
71.500 18.343628
71.505 18.253475
71.510 18.440022
71.515 18.651283
71.520 18.810577
71.525 18.889652
71.530 19.227104
71.535 19.084705
71.540 18.852289
71.545 18.976116
71.550 18.706427
71.555 19.005442
71.560 19.246578
71.565 19.0769
71.570 19.331093
71.575 19.241039
71.580 19.02956
71.585 18.55785
71.590 18.262743
71.595 17.973005
71.600 18.230865
71.605 18.164822
71.610 18.450386
71.615 18.550934
71.620 19.016415
71.625 19.067823
71.630 19.012529
71.635 18.183619
71.640 18.052538
71.645 18.014029
71.650 18.206324
71.655 17.70476
71.660 17.055548
71.665 17.067757
71.670 17.83765
71.675 18.157619
71.680 17.895723
71.685 17.611439
71.690 17.638611
71.695 18.138367
71.700 18.607466
71.705 18.355743
71.710 18.074821
71.715 18.354389
71.720 18.251661
71.725 18.282467
71.730 18.055235
71.735 17.611956
71.740 18.020805
71.745 18.588245
71.750 18.797417
71.755 19.858627
71.760 20.098248
71.765 20.169827
71.770 19.90807
71.775 19.789801
71.780 19.922918
71.785 20.111357
71.790 20.06011
71.795 20.271372
71.800 20.746243
71.805 20.876989
71.810 20.743366
71.815 20.339767
71.820 19.852228
71.825 18.918617
71.830 18.435408
71.835 18.338886
71.840 18.270115
71.845 18.331678
71.850 17.753901
71.855 17.850439
71.860 18.275837
71.865 18.348972
71.870 18.406925
71.875 18.479612
71.880 18.596571
71.885 18.539738
71.890 18.144957
71.895 18.100668
71.900 18.352423
71.905 18.584949
71.910 18.729939
71.915 18.348772
71.920 18.568045
71.925 19.50934
71.930 19.461954
71.935 19.718773
71.940 19.364725
71.945 19.152575
71.950 19.387747
71.955 19.076843
71.960 18.464331
71.965 18.034292
71.970 18.021082
71.975 18.507757
71.980 18.862869
71.985 18.802429
71.990 19.182474
71.995 19.575182
72.000 19.922165
72.005 19.601927
72.010 19.477962
72.015 18.94006
72.020 18.538662
72.025 18.681112
72.030 18.729197
72.035 18.169157
72.040 18.151419
72.045 18.359215
72.050 17.976318
72.055 18.017994
72.060 17.618704
72.065 16.890627
72.070 16.877705
72.075 16.554762
72.080 16.919378
72.085 17.872341
72.090 17.985027
72.095 18.393064
72.100 18.84779
72.105 18.790777
72.110 18.568666
72.115 18.439857
72.120 18.67662
72.125 18.899479
72.130 18.761372
72.135 19.021233
72.140 19.200365
72.145 19.274866
72.150 19.044712
72.155 19.180332
72.160 19.547951
72.165 19.741287
72.170 19.826614
72.175 20.365784
72.180 20.511438
72.185 19.924459
72.190 19.334349
72.195 18.631334
72.200 18.305124
72.205 17.846479
72.210 16.963934
72.215 16.825693
72.220 17.119223
72.225 17.362474
72.230 17.717402
72.235 18.464966
72.240 19.256634
72.245 19.9028
72.250 19.879377
72.255 19.664955
72.260 19.320541
72.265 18.648981
72.270 17.621155
72.275 17.254065
72.280 16.977562
72.285 16.745642
72.290 16.50687
72.295 17.055195
72.300 17.661047
72.305 18.268074
72.310 18.38969
72.315 18.783133
72.320 18.725403
72.325 18.501221
72.330 17.904367
72.335 17.763346
72.340 17.988987
72.345 18.224714
72.350 18.602224
72.355 18.89674
72.360 19.315304
72.365 19.491739
72.370 19.221577
72.375 19.302536
72.380 18.897526
72.385 19.265207
72.390 20.03224
72.395 20.071499
72.400 20.389696
72.405 20.514929
72.410 20.424852
72.415 19.979826
72.420 19.50633
72.425 18.628855
72.430 18.464497
72.435 18.382215
72.440 18.390654
72.445 18.344099
72.450 18.361315
72.455 18.225704
72.460 18.486046
72.465 18.183645
72.470 17.809271
72.475 17.742977
72.480 17.917385
72.485 18.152205
72.490 17.732069
72.495 17.821564
72.500 18.110748
72.505 18.12081
72.510 18.210304
72.515 18.016003
72.520 18.006292
72.525 18.240768
72.530 17.660078
72.535 17.531185
72.540 17.077324
72.545 16.753447
72.550 16.844601
72.555 17.286266
72.560 17.793148
72.565 18.031544
72.570 18.249678
72.575 18.691071
72.580 19.328169
72.585 18.972004
72.590 18.237101
72.595 17.840136
72.600 18.351955
72.605 18.632059
72.610 18.155235
72.615 17.282644
72.620 16.975819
72.625 17.652966
72.630 18.053448
72.635 18.205269
72.640 18.069803
72.645 18.249557
72.650 18.383085
72.655 18.756119
72.660 18.604984
72.665 18.188381
72.670 17.640234
72.675 17.754219
72.680 17.976204
72.685 18.153627
72.690 17.889469
72.695 18.157097
72.700 18.543354
72.705 18.669836
72.710 18.686569
72.715 18.918842
72.720 18.831024
72.725 18.967287
72.730 18.660044
72.735 18.178566
72.740 18.542637
72.745 18.623072
72.750 18.403069
72.755 18.359509
72.760 18.589697
72.765 19.075127
72.770 18.765779
72.775 18.173834
72.780 17.73019
72.785 17.634607
72.790 16.96719
72.795 16.712656
72.800 17.291517
72.805 17.720625
72.810 17.816504
72.815 17.71838
72.820 17.920656
72.825 17.850285
72.830 17.036283
72.835 16.724735
72.840 16.525101
72.845 16.388767
72.850 16.897085
72.855 17.326971
72.860 17.380621
72.865 17.105984
72.870 16.267532
72.875 16.643934
72.880 17.17664
72.885 16.865509
72.890 16.414347
72.895 16.240505
72.900 16.570528
72.905 17.022272
72.910 16.708857
72.915 16.433496
72.920 16.6833
72.925 16.740177
72.930 17.114084
72.935 16.757883
72.940 16.723146
72.945 16.722509
72.950 16.777287
72.955 16.760498
72.960 16.959158
72.965 16.744789
72.970 16.846558
72.975 16.573298
72.980 16.58124
72.985 16.694178
72.990 16.779617
72.995 17.085793
73.000 17.550814
