!@!!GADDS PLOTSO FILE: Chi integration type
!@!!Title/SampleName: map-171
!@!!Comment: ?
!@!!User: Bruker Instrument Administrator
!@!!Site: University of Illinois Chicago
!@!!Frame: map-171_01_000.gfrm
!@!!Wavelengths    1.54184   1.54056   1.54439
!@!!Frame angles: 2Theta: 63.000 Omega: 50.000 Phi: 0.000 Chi: 90.000
!@!!Integration range: 2Theta: 53.000 to 73.000  Gamma: -105.000 to -75.000
!@!!Integration method: bin normalized
!@!N
!@!SS
!@!M
!@!L 0.0 0.0 0.0 0.0
!@!XDegrees
!@!YCounts
53.000 4.229452
53.005 4.292195
53.010 4.311441
53.015 4.204143
53.020 4.052428
53.025 3.586768
53.030 3.611116
53.035 3.571636
53.040 3.310585
53.045 3.283991
53.050 3.353922
53.055 3.674688
53.060 4.036013
53.065 4.154424
53.070 4.472311
53.075 4.586866
53.080 4.514576
53.085 4.341547
53.090 4.166021
53.095 4.154202
53.100 3.984979
53.105 3.817888
53.110 4.15318
53.115 4.279145
53.120 4.429151
53.125 4.361998
53.130 4.441115
53.135 4.536906
53.140 4.599996
53.145 4.46751
53.150 4.450424
53.155 4.620502
53.160 4.541251
53.165 4.345292
53.170 4.190711
53.175 4.03858
53.180 3.786424
53.185 3.581093
53.190 3.516262
53.195 3.508881
53.200 3.641032
53.205 3.95806
53.210 4.153568
53.215 4.4543
53.220 4.431147
53.225 4.520988
53.230 4.708028
53.235 4.498286
53.240 4.112204
53.245 3.954335
53.250 4.052118
53.255 4.528586
53.260 4.04718
53.265 3.787255
53.270 3.881034
53.275 3.893033
53.280 3.91972
53.285 3.822675
53.290 3.567493
53.295 3.886851
53.300 4.024107
53.305 3.995808
53.310 4.245306
53.315 4.320524
53.320 4.225311
53.325 4.314739
53.330 4.27318
53.335 4.219221
53.340 4.307122
53.345 3.936033
53.350 3.945376
53.355 4.086635
53.360 3.871139
53.365 3.913529
53.370 3.908035
53.375 3.940202
53.380 3.739542
53.385 3.541145
53.390 3.386959
53.395 3.521745
53.400 3.458963
53.405 3.620725
53.410 3.879509
53.415 4.305295
53.420 4.26392
53.425 4.256715
53.430 4.303343
53.435 4.004793
53.440 4.012354
53.445 3.693734
53.450 3.716092
53.455 3.873461
53.460 3.898674
53.465 3.781971
53.470 3.66611
53.475 3.325398
53.480 3.552691
53.485 3.401582
53.490 3.395836
53.495 3.588957
53.500 3.967448
53.505 4.521313
53.510 4.52053
53.515 4.326011
53.520 4.778699
53.525 4.690295
53.530 4.328645
53.535 3.787425
53.540 3.472857
53.545 3.761207
53.550 3.905895
53.555 3.740449
53.560 3.86375
53.565 4.072194
53.570 4.414629
53.575 4.567914
53.580 4.418257
53.585 4.297945
53.590 4.435972
53.595 4.477245
53.600 4.21766
53.605 3.832011
53.610 3.637852
53.615 3.460765
53.620 3.264393
53.625 2.894011
53.630 2.893774
53.635 2.935595
53.640 3.426731
53.645 3.663459
53.650 3.836195
53.655 3.729305
53.660 3.889333
53.665 3.937164
53.670 3.971241
53.675 3.741737
53.680 3.591929
53.685 3.469198
53.690 3.599112
53.695 3.65437
53.700 3.444509
53.705 3.268135
53.710 2.965721
53.715 2.965732
53.720 2.975098
53.725 2.996321
53.730 3.090212
53.735 3.238747
53.740 3.449759
53.745 3.619405
53.750 3.829738
53.755 4.021947
53.760 3.943135
53.765 3.713686
53.770 3.960316
53.775 4.001657
53.780 3.922802
53.785 3.743407
53.790 3.753883
53.795 4.237005
53.800 4.342937
53.805 4.080286
53.810 3.825124
53.815 3.792434
53.820 3.801059
53.825 3.802144
53.830 3.281602
53.835 3.366378
53.840 3.682646
53.845 3.990392
53.850 4.167677
53.855 4.136933
53.860 4.105391
53.865 4.226646
53.870 4.067303
53.875 3.778628
53.880 3.746894
53.885 3.458389
53.890 3.251487
53.895 3.482722
53.900 3.308342
53.905 3.507925
53.910 3.587993
53.915 3.42564
53.920 3.586011
53.925 3.629211
53.930 3.905779
53.935 4.334273
53.940 4.424329
53.945 4.348346
53.950 4.486349
53.955 4.727704
53.960 4.763441
53.965 4.564103
53.970 4.163352
53.975 4.103519
53.980 3.943674
53.985 3.778092
53.990 3.631778
53.995 3.434832
54.000 3.657956
54.005 3.925508
54.010 3.9535
54.015 4.18968
54.020 4.32569
54.025 4.50622
54.030 4.510039
54.035 4.045491
54.040 3.665114
54.045 3.79935
54.050 3.862548
54.055 3.560218
54.060 3.193949
54.065 3.017898
54.070 3.413038
54.075 3.507152
54.080 3.333405
54.085 3.411494
54.090 3.661005
54.095 3.678187
54.100 3.714729
54.105 3.856525
54.110 3.982039
54.115 3.978292
54.120 4.18369
54.125 4.229592
54.130 4.209775
54.135 3.884173
54.140 3.462405
54.145 3.562863
54.150 3.631458
54.155 3.560645
54.160 3.58617
54.165 3.668958
54.170 4.065569
54.175 4.07412
54.180 4.166436
54.185 3.909429
54.190 3.943184
54.195 4.170785
54.200 4.581527
54.205 4.464469
54.210 4.443568
54.215 4.472077
54.220 4.791271
54.225 4.805241
54.230 4.770648
54.235 4.870577
54.240 4.951427
54.245 4.810124
54.250 4.601306
54.255 4.351718
54.260 4.226233
54.265 3.893117
54.270 3.70114
54.275 3.545323
54.280 3.670922
54.285 3.82658
54.290 3.816214
54.295 3.74495
54.300 3.841624
54.305 3.814748
54.310 3.925339
54.315 3.878309
54.320 3.935177
54.325 3.906223
54.330 3.872362
54.335 3.643611
54.340 3.635617
54.345 3.550718
54.350 3.531408
54.355 3.51339
54.360 3.67359
54.365 3.790881
54.370 3.779059
54.375 3.683137
54.380 3.876405
54.385 3.739269
54.390 3.534301
54.395 3.46609
54.400 3.511908
54.405 3.421808
54.410 3.573711
54.415 3.570039
54.420 3.672154
54.425 3.603468
54.430 3.669934
54.435 3.530889
54.440 3.758222
54.445 3.622883
54.450 3.353121
54.455 3.549734
54.460 3.615805
54.465 3.667699
54.470 3.675598
54.475 3.80802
54.480 3.833669
54.485 3.853345
54.490 3.66619
54.495 3.580894
54.500 3.380853
54.505 3.348186
54.510 3.365656
54.515 3.740157
54.520 3.883111
54.525 4.036454
54.530 3.938313
54.535 3.914731
54.540 3.779396
54.545 3.521202
54.550 3.306971
54.555 3.065439
54.560 3.287661
54.565 3.553699
54.570 3.611108
54.575 3.742773
54.580 3.770098
54.585 3.838552
54.590 4.009371
54.595 3.793629
54.600 3.76569
54.605 3.541918
54.610 3.452775
54.615 3.608863
54.620 3.31675
54.625 3.150639
54.630 3.170395
54.635 3.141215
54.640 3.249582
54.645 3.32188
54.650 3.463904
54.655 3.684129
54.660 3.647941
54.665 3.47625
54.670 3.632157
54.675 3.85303
54.680 3.769692
54.685 3.621961
54.690 3.795507
54.695 4.016309
54.700 3.95792
54.705 3.851213
54.710 4.177583
54.715 4.125909
54.720 3.896103
54.725 3.614161
54.730 3.411242
54.735 3.462638
54.740 3.198066
54.745 3.020665
54.750 3.181866
54.755 3.257725
54.760 3.641006
54.765 3.623492
54.770 3.647416
54.775 3.607989
54.780 3.399475
54.785 3.3016
54.790 3.194685
54.795 3.057991
54.800 3.336692
54.805 3.496812
54.810 3.725529
54.815 3.58932
54.820 3.859012
54.825 4.213542
54.830 4.148091
54.835 4.151135
54.840 4.079156
54.845 3.840567
54.850 3.835997
54.855 3.747113
54.860 3.897411
54.865 4.19539
54.870 4.352862
54.875 4.48118
54.880 4.907734
54.885 5.112159
54.890 4.834754
54.895 4.553949
54.900 4.181657
54.905 3.935157
54.910 3.940938
54.915 3.611652
54.920 3.617638
54.925 3.465358
54.930 3.451949
54.935 3.428637
54.940 3.441664
54.945 3.297408
54.950 3.492409
54.955 3.291924
54.960 3.445259
54.965 3.530118
54.970 3.76955
54.975 3.581472
54.980 3.726359
54.985 3.680176
54.990 3.951588
54.995 4.065836
55.000 3.919646
55.005 3.93161
55.010 4.208269
55.015 4.264651
55.020 4.132963
55.025 3.877198
55.030 3.801519
55.035 3.668956
55.040 3.327508
55.045 3.320097
55.050 3.391789
55.055 3.67349
55.060 3.567362
55.065 3.380183
55.070 3.50225
55.075 3.477472
55.080 3.25697
55.085 3.321483
55.090 3.31239
55.095 3.449124
55.100 3.796652
55.105 3.896552
55.110 3.931239
55.115 3.835433
55.120 3.762851
55.125 4.216494
55.130 4.240608
55.135 4.366064
55.140 4.501365
55.145 4.841825
55.150 4.786811
55.155 4.526291
55.160 4.490288
55.165 4.74977
55.170 4.666605
55.175 4.684028
55.180 4.636506
55.185 4.723075
55.190 4.506836
55.195 4.37131
55.200 4.340765
55.205 4.261559
55.210 4.02808
55.215 3.909178
55.220 4.053469
55.225 4.090848
55.230 3.776578
55.235 3.588253
55.240 3.596101
55.245 3.8054
55.250 3.896926
55.255 4.145246
55.260 4.353508
55.265 4.693573
55.270 4.544722
55.275 4.591935
55.280 4.528749
55.285 4.354507
55.290 4.117631
55.295 3.898301
55.300 3.753747
55.305 4.016996
55.310 3.69264
55.315 3.442551
55.320 3.386504
55.325 3.522392
55.330 3.434691
55.335 3.513752
55.340 3.574646
55.345 3.703231
55.350 3.778033
55.355 3.871363
55.360 3.873304
55.365 3.925408
55.370 3.73515
55.375 3.517217
55.380 3.796255
55.385 3.785888
55.390 3.769116
55.395 3.800014
55.400 3.899096
55.405 3.908896
55.410 3.863281
55.415 3.683436
55.420 3.693506
55.425 3.549542
55.430 3.589499
55.435 3.401243
55.440 3.528266
55.445 3.812591
55.450 4.106831
55.455 4.247733
55.460 4.486636
55.465 4.41905
55.470 4.45762
55.475 4.468165
55.480 4.202617
55.485 4.132074
55.490 4.037913
55.495 3.940685
55.500 3.923193
55.505 4.107787
55.510 4.070707
55.515 3.981583
55.520 3.950704
55.525 4.006888
55.530 3.856458
55.535 3.837787
55.540 3.683381
55.545 3.734389
55.550 3.58301
55.555 3.770503
55.560 3.774722
55.565 4.205784
55.570 4.226651
55.575 4.329919
55.580 4.668432
55.585 4.611517
55.590 4.338249
55.595 4.219851
55.600 4.011245
55.605 4.006679
55.610 3.767275
55.615 3.679316
55.620 3.796017
55.625 3.81802
55.630 3.832623
55.635 3.981735
55.640 3.873282
55.645 3.771762
55.650 3.842885
55.655 3.879132
55.660 4.197492
55.665 4.291952
55.670 4.111472
55.675 4.351894
55.680 4.315402
55.685 4.1296
55.690 4.005009
55.695 3.948891
55.700 3.777347
55.705 3.845153
55.710 3.753522
55.715 4.12438
55.720 4.31886
55.725 4.462877
55.730 4.435292
55.735 4.42345
55.740 4.559516
55.745 4.525156
55.750 4.381383
55.755 4.278784
55.760 4.178753
55.765 3.96699
55.770 4.200077
55.775 4.066912
55.780 4.013927
55.785 4.145208
55.790 4.086281
55.795 4.213626
55.800 4.285716
55.805 4.133204
55.810 4.382864
55.815 4.408265
55.820 4.247302
55.825 4.244146
55.830 3.934618
55.835 4.200458
55.840 4.300764
55.845 4.626738
55.850 4.927451
55.855 4.979489
55.860 5.126184
55.865 5.319486
55.870 4.96945
55.875 5.078683
55.880 4.637666
55.885 4.473493
55.890 4.555252
55.895 4.511038
55.900 4.331415
55.905 4.320503
55.910 4.266214
55.915 4.272346
55.920 4.363724
55.925 4.245225
55.930 4.562713
55.935 4.862964
55.940 5.091032
55.945 5.216174
55.950 5.067137
55.955 4.873084
55.960 4.605436
55.965 4.205913
55.970 4.11129
55.975 3.772718
55.980 3.502442
55.985 3.796495
55.990 3.907892
55.995 4.143858
56.000 4.343136
56.005 4.120425
56.010 4.329881
56.015 4.49957
56.020 4.135282
56.025 4.203435
56.030 3.948877
56.035 3.999709
56.040 4.081211
56.045 4.352049
56.050 4.661356
56.055 4.926772
56.060 4.987164
56.065 5.109422
56.070 5.132751
56.075 4.953237
56.080 4.478149
56.085 4.422094
56.090 4.280521
56.095 4.083064
56.100 3.969123
56.105 3.862775
56.110 3.97507
56.115 4.145093
56.120 3.867294
56.125 3.756287
56.130 3.81568
56.135 3.844922
56.140 3.898741
56.145 3.73362
56.150 3.4783
56.155 3.573066
56.160 3.597767
56.165 3.623948
56.170 3.704535
56.175 3.812541
56.180 3.842455
56.185 3.784535
56.190 3.803183
56.195 3.795561
56.200 3.783367
56.205 3.640299
56.210 3.558727
56.215 3.581923
56.220 3.771095
56.225 3.834336
56.230 4.18685
56.235 4.419975
56.240 4.773076
56.245 4.612818
56.250 4.505919
56.255 4.395595
56.260 4.351138
56.265 4.249613
56.270 4.1504
56.275 4.113776
56.280 4.389108
56.285 4.408933
56.290 4.367945
56.295 4.417394
56.300 4.291214
56.305 4.040395
56.310 4.000882
56.315 3.582673
56.320 3.693219
56.325 3.835728
56.330 3.784982
56.335 4.00136
56.340 4.027059
56.345 4.082274
56.350 4.513976
56.355 4.613688
56.360 4.530181
56.365 4.50254
56.370 4.33457
56.375 4.646383
56.380 4.618874
56.385 4.785171
56.390 4.708035
56.395 4.722516
56.400 4.646527
56.405 4.688989
56.410 4.492584
56.415 4.332543
56.420 3.921433
56.425 4.099085
56.430 4.454947
56.435 4.443865
56.440 4.33974
56.445 4.298703
56.450 4.126584
56.455 4.377092
56.460 4.659009
56.465 4.491042
56.470 4.66758
56.475 4.420116
56.480 4.422184
56.485 4.597813
56.490 4.304941
56.495 3.900465
56.500 3.904801
56.505 3.859301
56.510 4.35369
56.515 4.384945
56.520 4.365082
56.525 4.591034
56.530 4.626213
56.535 4.65992
56.540 4.729639
56.545 4.747313
56.550 4.722069
56.555 4.602269
56.560 4.722987
56.565 4.921237
56.570 5.233665
56.575 5.014995
56.580 4.855718
56.585 4.935964
56.590 4.838218
56.595 4.341039
56.600 3.706562
56.605 3.663981
56.610 3.726881
56.615 3.712275
56.620 3.780651
56.625 3.824103
56.630 4.034272
56.635 4.205661
56.640 4.048713
56.645 3.987309
56.650 3.761627
56.655 3.56454
56.660 3.826024
56.665 3.94253
56.670 4.084849
56.675 4.361909
56.680 4.634189
56.685 4.996039
56.690 4.943283
56.695 4.529289
56.700 4.542334
56.705 4.313075
56.710 3.939046
56.715 3.770259
56.720 3.585261
56.725 3.749724
56.730 4.162942
56.735 3.939307
56.740 3.822088
56.745 4.03475
56.750 4.065664
56.755 4.298742
56.760 4.554495
56.765 4.594132
56.770 4.880481
56.775 5.007451
56.780 5.249267
56.785 5.498172
56.790 5.717185
56.795 5.82023
56.800 5.711022
56.805 5.559711
56.810 5.606559
56.815 5.29384
56.820 5.138344
56.825 4.772029
56.830 4.468203
56.835 4.569902
56.840 5.016582
56.845 5.078474
56.850 4.958051
56.855 4.736715
56.860 4.744401
56.865 4.518343
56.870 4.556485
56.875 4.476243
56.880 4.592999
56.885 4.913898
56.890 4.872649
56.895 5.113311
56.900 5.537663
56.905 5.258265
56.910 4.876605
56.915 4.631932
56.920 4.237672
56.925 4.138526
56.930 3.800994
56.935 3.181913
56.940 3.021409
56.945 3.013445
56.950 3.083385
56.955 3.251689
56.960 3.177156
56.965 3.367445
56.970 3.805695
56.975 4.183536
56.980 4.104503
56.985 4.293474
56.990 4.473573
56.995 4.758003
57.000 4.572817
57.005 4.426613
57.010 4.096421
57.015 4.279974
57.020 3.877359
57.025 3.606646
57.030 3.366662
57.035 3.398876
57.040 3.556265
57.045 3.622796
57.050 3.582115
57.055 3.791249
57.060 4.103254
57.065 4.385396
57.070 4.297246
57.075 4.545506
57.080 5.041839
57.085 5.218978
57.090 5.001625
57.095 5.016068
57.100 5.097879
57.105 5.185376
57.110 5.083663
57.115 4.915521
57.120 4.805535
57.125 4.936847
57.130 4.892548
57.135 4.698236
57.140 4.606213
57.145 4.394746
57.150 4.244096
57.155 4.356099
57.160 4.086495
57.165 4.10315
57.170 4.368952
57.175 4.446189
57.180 4.517615
57.185 4.614119
57.190 4.743292
57.195 4.816389
57.200 5.029273
57.205 4.896151
57.210 4.89749
57.215 4.812315
57.220 4.742617
57.225 4.554479
57.230 4.608599
57.235 4.326935
57.240 4.193961
57.245 3.950631
57.250 3.964154
57.255 4.087189
57.260 3.990754
57.265 3.842952
57.270 3.898581
57.275 3.941386
57.280 4.046203
57.285 3.902829
57.290 4.049318
57.295 4.135944
57.300 4.513939
57.305 4.652226
57.310 4.486105
57.315 4.681613
57.320 4.824648
57.325 4.532979
57.330 4.34007
57.335 3.65748
57.340 3.535803
57.345 3.549885
57.350 3.468807
57.355 3.101868
57.360 3.251949
57.365 3.623112
57.370 3.938645
57.375 4.33529
57.380 4.727244
57.385 4.576164
57.390 4.565919
57.395 4.580592
57.400 4.513401
57.405 4.527235
57.410 4.180225
57.415 3.979567
57.420 4.048249
57.425 4.23522
57.430 4.281429
57.435 3.898858
57.440 3.784794
57.445 3.815502
57.450 4.021677
57.455 4.096522
57.460 3.857792
57.465 3.700234
57.470 4.004835
57.475 4.12886
57.480 4.179956
57.485 4.286169
57.490 4.445363
57.495 4.521307
57.500 4.789642
57.505 4.61695
57.510 4.663954
57.515 4.823607
57.520 4.788413
57.525 5.136207
57.530 5.104148
57.535 5.00929
57.540 5.316258
57.545 5.405161
57.550 5.059556
57.555 4.554811
57.560 4.290334
57.565 4.438342
57.570 4.404766
57.575 4.136731
57.580 4.091082
57.585 4.493546
57.590 4.968663
57.595 4.891037
57.600 4.710042
57.605 4.761213
57.610 5.042375
57.615 4.855455
57.620 4.601545
57.625 4.4566
57.630 4.589371
57.635 4.613229
57.640 4.593076
57.645 4.566833
57.650 4.92998
57.655 5.034737
57.660 5.002016
57.665 4.91387
57.670 4.899923
57.675 4.971047
57.680 4.584025
57.685 4.006352
57.690 4.202886
57.695 4.362504
57.700 4.577495
57.705 4.615346
57.710 4.644562
57.715 4.959557
57.720 5.069497
57.725 4.675802
57.730 4.576584
57.735 4.51366
57.740 4.460129
57.745 4.340141
57.750 4.373468
57.755 4.41404
57.760 4.592155
57.765 4.736377
57.770 4.824144
57.775 4.778092
57.780 4.841544
57.785 4.764562
57.790 4.722841
57.795 4.635904
57.800 4.397449
57.805 4.243882
57.810 4.503922
57.815 4.553888
57.820 4.524512
57.825 4.711557
57.830 4.616872
57.835 4.561128
57.840 4.764875
57.845 4.663255
57.850 4.583087
57.855 4.439762
57.860 4.120208
57.865 4.368822
57.870 4.556606
57.875 4.393961
57.880 4.613007
57.885 4.773428
57.890 4.918277
57.895 5.068598
57.900 4.782557
57.905 4.88616
57.910 4.912525
57.915 4.692335
57.920 4.534827
57.925 4.74907
57.930 4.98998
57.935 5.082607
57.940 5.18456
57.945 5.244974
57.950 5.156754
57.955 5.109799
57.960 4.877382
57.965 4.864331
57.970 4.923517
57.975 4.614992
57.980 4.75591
57.985 4.938441
57.990 5.25603
57.995 5.230776
58.000 5.453869
58.005 5.49517
58.010 5.399973
58.015 5.244686
58.020 5.210909
58.025 5.169999
58.030 5.197245
58.035 4.692496
58.040 4.893633
58.045 5.130023
58.050 5.08071
58.055 5.046881
58.060 5.247713
58.065 5.330959
58.070 5.642154
58.075 5.339414
58.080 4.95381
58.085 4.943623
58.090 4.997375
58.095 5.045718
58.100 5.214185
58.105 5.032883
58.110 5.195523
58.115 5.430202
58.120 5.416468
58.125 5.539342
58.130 5.394471
58.135 5.299262
58.140 5.61565
58.145 5.827885
58.150 5.60945
58.155 5.773312
58.160 5.787483
58.165 5.971474
58.170 6.265332
58.175 5.89023
58.180 5.801296
58.185 5.69131
58.190 5.273654
58.195 4.894234
58.200 4.46767
58.205 4.192578
58.210 4.098689
58.215 3.843705
58.220 4.140946
58.225 4.318241
58.230 4.368712
58.235 4.496506
58.240 4.500444
58.245 4.592553
58.250 5.020623
58.255 5.058509
58.260 4.752237
58.265 4.703149
58.270 4.864743
58.275 4.897765
58.280 4.637833
58.285 4.538477
58.290 4.810441
58.295 5.072878
58.300 5.21213
58.305 5.429004
58.310 5.82481
58.315 5.97868
58.320 5.845535
58.325 5.583071
58.330 5.644065
58.335 5.565447
58.340 5.241069
58.345 4.798399
58.350 4.971017
58.355 4.94884
58.360 5.189185
58.365 5.074472
58.370 4.941985
58.375 5.289208
58.380 5.596868
58.385 5.634054
58.390 5.801771
58.395 5.716954
58.400 6.204897
58.405 6.334694
58.410 5.966673
58.415 6.000689
58.420 6.103869
58.425 5.99041
58.430 5.904907
58.435 5.917546
58.440 5.782359
58.445 5.803609
58.450 5.609097
58.455 5.512544
58.460 5.616314
58.465 5.642112
58.470 5.494115
58.475 5.761296
58.480 5.936273
58.485 6.082772
58.490 6.101079
58.495 6.24228
58.500 6.118776
58.505 6.073624
58.510 5.94017
58.515 6.147817
58.520 6.079087
58.525 5.762836
58.530 5.475832
58.535 5.821988
58.540 6.033906
58.545 6.27414
58.550 6.093899
58.555 6.321744
58.560 6.922315
58.565 7.188111
58.570 6.945738
58.575 6.761881
58.580 6.495407
58.585 6.592886
58.590 6.629673
58.595 6.770902
58.600 7.01838
58.605 6.867155
58.610 6.840662
58.615 6.866963
58.620 6.741342
58.625 6.808868
58.630 6.602509
58.635 6.531059
58.640 7.032697
58.645 7.232563
58.650 7.286556
58.655 7.306322
58.660 7.488641
58.665 7.758596
58.670 7.962727
58.675 8.473885
58.680 9.001645
58.685 9.43401
58.690 9.854178
58.695 9.424181
58.700 9.270809
58.705 9.311522
58.710 8.480392
58.715 7.989571
58.720 8.003999
58.725 7.919809
58.730 8.256935
58.735 8.600398
58.740 8.838968
58.745 9.079125
58.750 9.501619
58.755 9.367102
58.760 9.069758
58.765 9.018832
58.770 8.633414
58.775 8.543558
58.780 8.284286
58.785 7.925143
58.790 7.799487
58.795 7.839284
58.800 7.504669
58.805 7.676893
58.810 7.40627
58.815 7.369921
58.820 7.255354
58.825 7.443556
58.830 7.589808
58.835 7.671864
58.840 7.548337
58.845 7.494395
58.850 7.919709
58.855 7.95482
58.860 7.481657
58.865 7.673513
58.870 7.138447
58.875 6.912244
58.880 6.899043
58.885 6.700767
58.890 6.714487
58.895 6.791555
58.900 6.545354
58.905 6.839086
58.910 6.762246
58.915 6.643535
58.920 6.495827
58.925 6.420245
58.930 6.54955
58.935 6.465491
58.940 6.293209
58.945 6.354064
58.950 6.54767
58.955 6.207316
58.960 5.991616
58.965 5.855755
58.970 6.252503
58.975 6.562234
58.980 6.327267
58.985 5.895989
58.990 5.897739
58.995 5.927351
59.000 5.338372
59.005 5.171007
59.010 5.208064
59.015 5.409334
59.020 5.563488
59.025 5.684761
59.030 5.946641
59.035 6.062839
59.040 5.774932
59.045 5.657143
59.050 5.811393
59.055 6.0148
59.060 5.965133
59.065 5.996713
59.070 6.211179
59.075 6.262028
59.080 6.173507
59.085 5.515038
59.090 5.29473
59.095 5.385577
59.100 5.516212
59.105 5.80673
59.110 5.585297
59.115 5.343076
59.120 5.687112
59.125 5.59057
59.130 5.670912
59.135 5.232498
59.140 5.180557
59.145 5.318588
59.150 5.516397
59.155 5.642029
59.160 5.782235
59.165 5.26482
59.170 5.196554
59.175 5.195392
59.180 5.301373
59.185 5.093166
59.190 4.859008
59.195 4.96213
59.200 5.180024
59.205 5.331956
59.210 5.139693
59.215 5.109757
59.220 5.175986
59.225 5.265241
59.230 5.081292
59.235 5.020055
59.240 5.233159
59.245 5.635832
59.250 5.69815
59.255 5.908439
59.260 6.012441
59.265 6.072747
59.270 6.025721
59.275 5.429965
59.280 5.111016
59.285 4.999202
59.290 4.830674
59.295 4.720488
59.300 5.00721
59.305 5.234585
59.310 5.36362
59.315 5.704005
59.320 5.590894
59.325 5.759605
59.330 5.886173
59.335 5.583783
59.340 5.565596
59.345 5.727572
59.350 5.565551
59.355 5.640156
59.360 5.620123
59.365 5.433071
59.370 5.395563
59.375 5.12537
59.380 5.049847
59.385 5.135184
59.390 5.330109
59.395 5.089653
59.400 5.289533
59.405 5.584846
59.410 5.801286
59.415 5.678408
59.420 5.725021
59.425 5.212195
59.430 5.455124
59.435 5.221124
59.440 5.134544
59.445 5.458619
59.450 5.392098
59.455 5.194564
59.460 5.690657
59.465 5.595331
59.470 5.600188
59.475 5.091786
59.480 4.670172
59.485 4.769943
59.490 5.064599
59.495 4.808496
59.500 4.854942
59.505 4.748756
59.510 5.155558
59.515 5.316209
59.520 5.458778
59.525 5.371832
59.530 5.389608
59.535 5.338892
59.540 5.477882
59.545 5.359676
59.550 5.300521
59.555 5.285236
59.560 5.097182
59.565 5.163338
59.570 5.184519
59.575 5.145923
59.580 5.091178
59.585 4.993167
59.590 4.739237
59.595 4.769069
59.600 4.572971
59.605 4.440909
59.610 4.529035
59.615 4.52647
59.620 4.494184
59.625 4.726636
59.630 5.205218
59.635 5.567267
59.640 5.664047
59.645 5.56567
59.650 5.472444
59.655 5.563828
59.660 5.442985
59.665 5.081289
59.670 4.488911
59.675 4.467385
59.680 4.694019
59.685 4.700521
59.690 4.764903
59.695 5.009411
59.700 5.336375
59.705 5.648764
59.710 5.740442
59.715 5.896141
59.720 5.985622
59.725 5.869751
59.730 5.51
59.735 5.018573
59.740 5.155951
59.745 4.939207
59.750 4.696547
59.755 4.847552
59.760 4.605373
59.765 5.050326
59.770 5.100869
59.775 5.043164
59.780 4.916867
59.785 5.006496
59.790 4.942714
59.795 4.968091
59.800 4.830604
59.805 5.265178
59.810 5.746362
59.815 5.982742
59.820 5.9434
59.825 6.102259
59.830 6.230217
59.835 6.031864
59.840 5.795706
59.845 5.457999
59.850 5.446383
59.855 5.358668
59.860 5.368797
59.865 5.152756
59.870 4.998526
59.875 4.854968
59.880 4.989021
59.885 5.125059
59.890 5.097548
59.895 4.810958
59.900 5.104378
59.905 5.179211
59.910 5.134442
59.915 5.001358
59.920 5.327406
59.925 5.338726
59.930 5.421039
59.935 5.392534
59.940 5.721827
59.945 5.893377
59.950 5.876677
59.955 5.67768
59.960 5.840252
59.965 5.93276
59.970 6.041282
59.975 5.879183
59.980 5.987652
59.985 6.269055
59.990 6.010971
59.995 5.986936
60.000 5.991119
60.005 5.960976
60.010 5.780754
60.015 5.348507
60.020 4.89649
60.025 4.800037
60.030 4.617486
60.035 4.623792
60.040 4.469674
60.045 4.963791
60.050 5.124233
60.055 5.205055
60.060 5.403675
60.065 5.632061
60.070 5.595576
60.075 5.802038
60.080 5.786915
60.085 6.053514
60.090 6.185145
60.095 6.074144
60.100 5.891228
60.105 5.793427
60.110 5.515578
60.115 5.242511
60.120 5.251775
60.125 5.159499
60.130 5.349223
60.135 5.270271
60.140 5.169243
60.145 5.242712
60.150 5.314866
60.155 5.480023
60.160 5.5925
60.165 5.742317
60.170 5.826952
60.175 5.633116
60.180 5.498811
60.185 5.548024
60.190 5.605959
60.195 5.779759
60.200 5.603876
60.205 5.589911
60.210 5.700771
60.215 5.570283
60.220 5.234942
60.225 5.011049
60.230 4.371497
60.235 4.304358
60.240 4.321342
60.245 4.501045
60.250 4.662694
60.255 4.676599
60.260 4.801572
60.265 5.324943
60.270 5.35289
60.275 5.328469
60.280 5.010752
60.285 5.209496
60.290 5.30317
60.295 5.343851
60.300 5.340017
60.305 5.389899
60.310 5.543871
60.315 5.903838
60.320 5.948876
60.325 6.261509
60.330 6.135741
60.335 6.145829
60.340 6.120084
60.345 6.289542
60.350 6.548736
60.355 6.601195
60.360 6.456811
60.365 6.272849
60.370 6.229241
60.375 6.378594
60.380 6.259764
60.385 5.584223
60.390 5.52562
60.395 5.644292
60.400 5.598888
60.405 5.491071
60.410 5.099625
60.415 4.902081
60.420 4.913506
60.425 4.899674
60.430 4.846879
60.435 4.970096
60.440 5.131442
60.445 5.482929
60.450 5.672151
60.455 5.713328
60.460 5.49974
60.465 5.21969
60.470 5.233634
60.475 5.485253
60.480 5.703641
60.485 5.591691
60.490 5.794916
60.495 6.095016
60.500 6.502135
60.505 6.757885
60.510 6.608843
60.515 6.438089
60.520 6.771254
60.525 6.54243
60.530 6.151605
60.535 5.744239
60.540 5.498132
60.545 5.129602
60.550 5.038826
60.555 5.275637
60.560 5.176694
60.565 5.192183
60.570 5.121672
60.575 5.136061
60.580 5.685376
60.585 5.704992
60.590 5.421312
60.595 5.593155
60.600 5.802739
60.605 6.017698
60.610 6.166242
60.615 5.560448
60.620 5.257936
60.625 5.183452
60.630 5.165342
60.635 5.462189
60.640 5.585097
60.645 5.571606
60.650 6.044666
60.655 6.17386
60.660 6.26406
60.665 6.216518
60.670 5.941824
60.675 6.434904
60.680 6.033589
60.685 5.644672
60.690 5.457423
60.695 5.470326
60.700 5.392809
60.705 5.050533
60.710 4.455661
60.715 4.709048
60.720 4.779902
60.725 4.984857
60.730 5.321577
60.735 5.633074
60.740 5.811663
60.745 5.985133
60.750 6.014562
60.755 6.306707
60.760 6.311961
60.765 6.005805
60.770 5.873147
60.775 5.72858
60.780 5.548262
60.785 5.671913
60.790 5.827654
60.795 5.757985
60.800 5.370886
60.805 5.513784
60.810 5.597548
60.815 5.513629
60.820 5.469765
60.825 5.31728
60.830 5.180642
60.835 5.784638
60.840 5.840295
60.845 6.450858
60.850 6.942405
60.855 6.937174
60.860 7.072565
60.865 7.225503
60.870 6.876709
60.875 6.616258
60.880 6.051279
60.885 6.037473
60.890 6.08419
60.895 5.979132
60.900 5.846436
60.905 6.02342
60.910 5.950062
60.915 5.453786
60.920 5.05248
60.925 4.689579
60.930 4.53231
60.935 4.692706
60.940 4.457874
60.945 4.430413
60.950 4.655155
60.955 4.557888
60.960 4.62014
60.965 4.76417
60.970 4.805131
60.975 4.96182
60.980 5.054025
60.985 5.542568
60.990 5.851181
60.995 5.910848
61.000 5.75928
61.005 5.600877
61.010 5.698873
61.015 6.082682
61.020 6.04523
61.025 6.121869
61.030 6.145204
61.035 6.296099
61.040 6.687936
61.045 6.365795
61.050 5.871407
61.055 5.519783
61.060 5.725612
61.065 5.764077
61.070 5.803886
61.075 5.769639
61.080 6.00511
61.085 6.51192
61.090 6.853939
61.095 6.70693
61.100 6.666216
61.105 6.472289
61.110 6.275532
61.115 6.073211
61.120 5.772395
61.125 5.429041
61.130 5.040556
61.135 4.835385
61.140 4.639041
61.145 4.592467
61.150 4.771674
61.155 4.967456
61.160 5.321711
61.165 5.956021
61.170 6.17605
61.175 6.310284
61.180 6.522395
61.185 6.558178
61.190 6.435398
61.195 6.630639
61.200 7.190386
61.205 7.362547
61.210 7.338777
61.215 7.126425
61.220 7.144194
61.225 7.403581
61.230 6.885227
61.235 6.214103
61.240 6.610958
61.245 7.135279
61.250 7.161699
61.255 6.767409
61.260 6.262701
61.265 6.441995
61.270 6.439326
61.275 6.33265
61.280 6.011225
61.285 5.881175
61.290 5.972402
61.295 5.774064
61.300 5.487049
61.305 5.332586
61.310 5.018911
61.315 5.051765
61.320 5.415594
61.325 5.722287
61.330 6.090574
61.335 6.194816
61.340 6.160687
61.345 6.354858
61.350 6.368013
61.355 6.381564
61.360 6.313227
61.365 6.324033
61.370 6.317866
61.375 6.44927
61.380 6.481553
61.385 6.040999
61.390 5.773955
61.395 5.629429
61.400 5.894157
61.405 5.947287
61.410 5.686755
61.415 5.350521
61.420 5.485378
61.425 5.622455
61.430 5.61307
61.435 5.180554
61.440 4.821513
61.445 4.709606
61.450 4.688641
61.455 4.942875
61.460 5.040999
61.465 5.178491
61.470 5.443477
61.475 5.993999
61.480 6.206598
61.485 6.360818
61.490 6.113981
61.495 5.824433
61.500 5.950199
61.505 5.928041
61.510 5.547072
61.515 5.694209
61.520 5.616224
61.525 5.892591
61.530 6.284416
61.535 6.273137
61.540 6.80144
61.545 7.107125
61.550 6.909354
61.555 6.831076
61.560 6.529799
61.565 6.28564
61.570 6.429224
61.575 6.055152
61.580 5.59592
61.585 5.611458
61.590 5.443198
61.595 5.511768
61.600 5.421167
61.605 5.187121
61.610 5.19998
61.615 5.157536
61.620 5.291487
61.625 5.293521
61.630 5.402353
61.635 5.483551
61.640 5.433359
61.645 5.351425
61.650 5.829154
61.655 5.866248
61.660 6.002959
61.665 6.033755
61.670 5.811764
61.675 5.639612
61.680 5.965373
61.685 5.910285
61.690 6.159703
61.695 6.246472
61.700 5.967727
61.705 5.85881
61.710 5.930393
61.715 5.574434
61.720 5.316619
61.725 4.953876
61.730 4.993003
61.735 5.048616
61.740 5.223872
61.745 5.388936
61.750 5.646535
61.755 6.060186
61.760 6.364806
61.765 6.505525
61.770 6.908449
61.775 6.763767
61.780 6.606982
61.785 6.435244
61.790 6.354555
61.795 6.223435
61.800 5.959898
61.805 5.98379
61.810 6.514239
61.815 6.558095
61.820 6.578238
61.825 6.382856
61.830 6.486837
61.835 6.642583
61.840 6.306522
61.845 5.751673
61.850 5.609904
61.855 5.650758
61.860 5.938381
61.865 5.866466
61.870 5.793657
61.875 6.060451
61.880 6.497048
61.885 6.827261
61.890 6.978542
61.895 7.121157
61.900 7.33159
61.905 7.482991
61.910 7.350594
61.915 6.856781
61.920 6.633318
61.925 6.803234
61.930 6.87469
61.935 6.77735
61.940 6.597394
61.945 6.641426
61.950 6.68224
61.955 6.870966
61.960 6.469031
61.965 6.097221
61.970 6.12149
61.975 6.055385
61.980 6.022572
61.985 6.360925
61.990 5.977201
61.995 5.935105
62.000 5.79002
62.005 5.880737
62.010 6.038132
62.015 5.781909
62.020 5.562796
62.025 5.66844
62.030 5.750237
62.035 5.870448
62.040 6.139016
62.045 5.962313
62.050 6.299223
62.055 6.446908
62.060 6.492282
62.065 6.65267
62.070 6.432833
62.075 5.901615
62.080 5.954749
62.085 5.734922
62.090 5.676329
62.095 5.637248
62.100 5.551588
62.105 5.756652
62.110 6.0312
62.115 6.264455
62.120 6.422713
62.125 6.512054
62.130 6.404885
62.135 6.418498
62.140 6.585591
62.145 6.549618
62.150 6.43949
62.155 6.139533
62.160 6.140486
62.165 6.258679
62.170 6.209248
62.175 6.04723
62.180 5.908607
62.185 6.067159
62.190 6.29318
62.195 6.112254
62.200 5.709148
62.205 5.695308
62.210 5.643499
62.215 5.484071
62.220 5.644514
62.225 5.481992
62.230 5.926056
62.235 6.620516
62.240 6.880303
62.245 6.860283
62.250 6.916444
62.255 6.605475
62.260 6.731173
62.265 6.582871
62.270 6.244235
62.275 6.262963
62.280 6.396761
62.285 6.384715
62.290 6.604603
62.295 6.663507
62.300 6.529046
62.305 6.122371
62.310 5.868564
62.315 5.909386
62.320 6.092618
62.325 6.271644
62.330 6.446904
62.335 6.558423
62.340 6.917534
62.345 6.844514
62.350 6.59031
62.355 6.337657
62.360 5.98409
62.365 5.851449
62.370 5.697103
62.375 5.681961
62.380 5.655632
62.385 5.481038
62.390 5.399617
62.395 5.773247
62.400 6.160725
62.405 6.394273
62.410 6.919401
62.415 7.023609
62.420 7.428334
62.425 7.592293
62.430 7.173302
62.435 6.663012
62.440 6.671683
62.445 6.581738
62.450 6.75289
62.455 6.482729
62.460 6.723907
62.465 7.001703
62.470 7.24507
62.475 7.27995
62.480 7.357275
62.485 7.504835
62.490 7.560245
62.495 7.299065
62.500 7.132163
62.505 7.053581
62.510 6.784629
62.515 6.630301
62.520 6.79938
62.525 7.167678
62.530 7.236895
62.535 7.178966
62.540 7.220924
62.545 7.21404
62.550 6.865441
62.555 6.606789
62.560 6.544449
62.565 6.201509
62.570 5.980465
62.575 5.796199
62.580 5.897306
62.585 6.262115
62.590 6.186822
62.595 6.218892
62.600 6.376459
62.605 6.339853
62.610 6.293082
62.615 6.157664
62.620 5.759083
62.625 5.491652
62.630 5.355576
62.635 5.381758
62.640 5.602217
62.645 5.623682
62.650 5.891442
62.655 5.901305
62.660 6.143051
62.665 6.437969
62.670 6.515614
62.675 6.366335
62.680 6.845706
62.685 6.680926
62.690 6.93269
62.695 6.961813
62.700 6.545437
62.705 6.488678
62.710 6.711091
62.715 6.192752
62.720 6.280243
62.725 6.133928
62.730 6.138603
62.735 6.461031
62.740 6.932553
62.745 6.840961
62.750 7.008751
62.755 6.825788
62.760 6.946815
62.765 6.714127
62.770 6.58378
62.775 6.189793
62.780 6.328529
62.785 6.244858
62.790 6.235018
62.795 6.093224
62.800 6.582089
62.805 6.589837
62.810 7.009836
62.815 6.863677
62.820 7.003522
62.825 7.211248
62.830 7.380429
62.835 7.315203
62.840 7.207665
62.845 7.032938
62.850 7.140453
62.855 6.971734
62.860 6.603484
62.865 5.953331
62.870 5.747468
62.875 6.178378
62.880 6.209685
62.885 6.060416
62.890 6.075679
62.895 6.284343
62.900 6.404189
62.905 6.402975
62.910 5.796475
62.915 5.624453
62.920 5.656886
62.925 5.601566
62.930 5.600711
62.935 6.171986
62.940 6.27231
62.945 6.265357
62.950 6.06798
62.955 5.854633
62.960 6.005177
62.965 6.233327
62.970 5.763113
62.975 5.662138
62.980 6.068521
62.985 6.285416
62.990 6.569939
62.995 6.448287
63.000 6.38988
63.005 6.570997
63.010 6.528436
63.015 6.488536
63.020 6.504913
63.025 6.779881
63.030 7.113743
63.035 6.878806
63.040 6.769238
63.045 6.477531
63.050 6.26006
63.055 6.476506
63.060 5.93021
63.065 5.668518
63.070 6.100212
63.075 6.349637
63.080 6.52265
63.085 6.278979
63.090 6.198107
63.095 6.259396
63.100 6.323865
63.105 6.084834
63.110 6.289708
63.115 6.323299
63.120 6.560863
63.125 6.553735
63.130 6.718095
63.135 6.737377
63.140 6.633749
63.145 6.419764
63.150 6.341832
63.155 6.429618
63.160 6.352967
63.165 6.440159
63.170 6.4265
63.175 6.82279
63.180 6.911911
63.185 7.318086
63.190 7.3427
63.195 7.430966
63.200 7.498277
63.205 7.395206
63.210 7.098478
63.215 6.538903
63.220 6.137988
63.225 6.153716
63.230 5.985915
63.235 5.845139
63.240 5.95283
63.245 5.988087
63.250 6.495031
63.255 6.86987
63.260 7.1615
63.265 7.238389
63.270 7.345765
63.275 6.946971
63.280 6.783366
63.285 6.660987
63.290 6.507584
63.295 6.062462
63.300 5.94953
63.305 6.023368
63.310 6.747605
63.315 7.234426
63.320 7.321599
63.325 7.39627
63.330 7.545018
63.335 7.685834
63.340 7.831626
63.345 7.439059
63.350 7.414039
63.355 7.115231
63.360 7.234282
63.365 7.064626
63.370 6.708548
63.375 6.368689
63.380 6.272312
63.385 6.684662
63.390 7.375523
63.395 7.248495
63.400 7.190979
63.405 7.510717
63.410 7.594364
63.415 7.572546
63.420 6.975404
63.425 6.43546
63.430 6.738559
63.435 6.928261
63.440 6.828873
63.445 6.898646
63.450 6.995655
63.455 7.461745
63.460 7.527942
63.465 7.277838
63.470 7.330933
63.475 7.343536
63.480 7.155743
63.485 7.255943
63.490 7.156797
63.495 6.942389
63.500 7.077479
63.505 7.352063
63.510 7.25145
63.515 7.124856
63.520 6.964468
63.525 6.687783
63.530 6.964616
63.535 6.729373
63.540 6.461497
63.545 6.723593
63.550 6.845516
63.555 6.755227
63.560 6.589589
63.565 6.682193
63.570 6.805335
63.575 6.930098
63.580 6.890378
63.585 6.71942
63.590 6.614976
63.595 6.809889
63.600 6.574275
63.605 6.333624
63.610 6.235649
63.615 6.729379
63.620 7.008761
63.625 7.209068
63.630 7.286389
63.635 7.150723
63.640 7.488306
63.645 7.510908
63.650 6.807529
63.655 6.816049
63.660 6.634968
63.665 6.717968
63.670 7.257052
63.675 7.061662
63.680 6.77145
63.685 7.183628
63.690 7.13355
63.695 7.125051
63.700 6.707963
63.705 6.150599
63.710 6.406965
63.715 6.447519
63.720 5.984423
63.725 6.164719
63.730 6.530064
63.735 6.803267
63.740 7.203857
63.745 7.15732
63.750 7.366784
63.755 7.696946
63.760 7.460467
63.765 7.124143
63.770 6.786821
63.775 6.754371
63.780 6.913876
63.785 7.117278
63.790 7.211682
63.795 7.364946
63.800 7.704248
63.805 8.028349
63.810 7.864287
63.815 7.588542
63.820 7.30533
63.825 7.101853
63.830 7.172929
63.835 7.171253
63.840 7.198489
63.845 7.34351
63.850 7.348698
63.855 7.309555
63.860 7.247989
63.865 7.150017
63.870 7.171932
63.875 6.97244
63.880 6.968915
63.885 7.500804
63.890 7.899715
63.895 8.307652
63.900 8.23718
63.905 8.25163
63.910 8.170856
63.915 8.127359
63.920 7.942163
63.925 7.584038
63.930 7.405849
63.935 7.608772
63.940 7.611969
63.945 7.68112
63.950 7.387448
63.955 6.945935
63.960 6.897802
63.965 6.981825
63.970 6.90925
63.975 7.012872
63.980 7.264904
63.985 7.537583
63.990 7.826823
63.995 8.00315
64.000 8.177981
64.005 8.512052
64.010 8.964263
64.015 9.355954
64.020 9.597985
64.025 9.796457
64.030 10.04893
64.035 9.960953
64.040 9.304298
64.045 8.733338
64.050 8.757115
64.055 8.613294
64.060 8.436712
64.065 8.402449
64.070 7.915447
64.075 8.023508
64.080 7.930837
64.085 7.516114
64.090 7.456426
64.095 7.349648
64.100 7.146742
64.105 7.756249
64.110 7.865828
64.115 7.817199
64.120 8.159256
64.125 8.089287
64.130 7.986496
64.135 7.92229
64.140 7.838609
64.145 7.833907
64.150 8.137333
64.155 7.996453
64.160 8.16204
64.165 8.244225
64.170 8.555394
64.175 8.45482
64.180 9.027254
64.185 9.126207
64.190 9.211981
64.195 9.345376
64.200 9.364179
64.205 9.272767
64.210 9.393861
64.215 8.716849
64.220 8.378013
64.225 8.723393
64.230 8.968554
64.235 9.237123
64.240 9.301586
64.245 9.368949
64.250 9.865301
64.255 10.797421
64.260 11.128098
64.265 11.431378
64.270 11.526359
64.275 11.64575
64.280 11.916965
64.285 12.03331
64.290 11.760752
64.295 11.874632
64.300 12.367526
64.305 12.722852
64.310 12.851733
64.315 13.113722
64.320 13.128494
64.325 13.174047
64.330 13.045805
64.335 12.525459
64.340 12.301782
64.345 12.578788
64.350 12.77379
64.355 13.190623
64.360 13.062659
64.365 13.110643
64.370 13.072165
64.375 13.149194
64.380 13.364558
64.385 13.341615
64.390 13.19812
64.395 13.248607
64.400 13.194054
64.405 13.672109
64.410 13.80717
64.415 13.718785
64.420 13.846987
64.425 14.10846
64.430 14.458498
64.435 14.467134
64.440 14.211719
64.445 14.368627
64.450 13.787544
64.455 14.004182
64.460 14.086011
64.465 14.327738
64.470 14.838614
64.475 15.399911
64.480 15.740073
64.485 16.535069
64.490 16.520672
64.495 16.327492
64.500 16.591547
64.505 16.691401
64.510 15.877872
64.515 15.750179
64.520 15.43973
64.525 15.102579
64.530 15.089081
64.535 15.088745
64.540 15.069731
64.545 15.687086
64.550 15.579456
64.555 15.396422
64.560 15.444121
64.565 15.204406
64.570 14.598543
64.575 13.888817
64.580 13.584028
64.585 13.428313
64.590 13.014024
64.595 12.686817
64.600 12.59944
64.605 11.965693
64.610 12.243719
64.615 11.981167
64.620 11.841988
64.625 11.963589
64.630 11.762881
64.635 11.638807
64.640 12.439696
64.645 12.50646
64.650 12.440035
64.655 12.173746
64.660 12.213308
64.665 12.647077
64.670 12.418345
64.675 11.804235
64.680 11.608603
64.685 11.589722
64.690 11.831983
64.695 11.223601
64.700 10.986901
64.705 11.083085
64.710 11.38381
64.715 11.324774
64.720 11.14754
64.725 10.684267
64.730 10.767413
64.735 10.407081
64.740 10.305452
64.745 9.977247
64.750 9.582117
64.755 9.317551
64.760 9.790944
64.765 10.075794
64.770 10.116183
64.775 9.652245
64.780 8.986215
64.785 8.726408
64.790 8.54125
64.795 8.38962
64.800 8.228697
64.805 8.284913
64.810 8.533729
64.815 8.765947
64.820 9.031107
64.825 9.015274
64.830 8.742464
64.835 8.749949
64.840 8.787233
64.845 8.72868
64.850 8.379383
64.855 8.09062
64.860 7.799673
64.865 7.728083
64.870 7.608487
64.875 7.389927
64.880 7.326008
64.885 7.10149
64.890 7.135478
64.895 7.307728
64.900 7.334352
64.905 7.06094
64.910 7.135938
64.915 7.489433
64.920 8.025749
64.925 8.046464
64.930 8.201624
64.935 8.288496
64.940 8.612174
64.945 8.473423
64.950 8.211972
64.955 8.153602
64.960 8.233829
64.965 8.361407
64.970 8.423939
64.975 8.368102
64.980 8.286853
64.985 8.819586
64.990 9.126346
64.995 9.395487
65.000 9.143003
65.005 9.290468
65.010 9.350646
65.015 9.393096
65.020 9.61047
65.025 9.631808
65.030 9.662028
65.035 9.816383
65.040 9.747004
65.045 9.858727
65.050 10.186853
65.055 9.465426
65.060 9.328223
65.065 9.77592
65.070 9.867079
65.075 9.85393
65.080 10.152914
65.085 10.272696
65.090 10.774754
65.095 11.039327
65.100 10.387968
65.105 10.452523
65.110 10.431291
65.115 10.123714
65.120 9.949613
65.125 10.372416
65.130 10.257987
65.135 10.316625
65.140 10.578923
65.145 10.743519
65.150 10.824399
65.155 10.871999
65.160 10.65456
65.165 11.105641
65.170 11.565718
65.175 11.662262
65.180 11.54824
65.185 11.267746
65.190 10.978801
65.195 10.419669
65.200 10.313041
65.205 10.135722
65.210 9.96489
65.215 10.254657
65.220 10.974169
65.225 11.57906
65.230 12.444706
65.235 12.945278
65.240 13.65117
65.245 13.74255
65.250 13.538198
65.255 13.045125
65.260 13.133157
65.265 12.654306
65.270 12.489429
65.275 12.469214
65.280 12.40943
65.285 12.236286
65.290 12.172543
65.295 11.941431
65.300 12.067631
65.305 11.96449
65.310 11.939625
65.315 12.02574
65.320 12.510515
65.325 12.722186
65.330 12.881134
65.335 12.926272
65.340 12.679189
65.345 12.482683
65.350 12.589845
65.355 12.18581
65.360 12.156228
65.365 12.347728
65.370 12.719732
65.375 12.617596
65.380 13.172448
65.385 13.543315
65.390 13.886172
65.395 14.016125
65.400 13.841699
65.405 13.53905
65.410 13.698007
65.415 13.181265
65.420 13.691396
65.425 14.180064
65.430 14.272605
65.435 14.180601
65.440 14.068523
65.445 14.192098
65.450 14.50207
65.455 14.06367
65.460 14.04743
65.465 14.327894
65.470 14.289085
65.475 14.027105
65.480 13.832673
65.485 13.380381
65.490 12.831644
65.495 11.909075
65.500 11.46112
65.505 11.379743
65.510 11.331591
65.515 11.494632
65.520 11.759803
65.525 12.577349
65.530 13.140369
65.535 13.354518
65.540 13.477394
65.545 13.764697
65.550 13.82113
65.555 13.745997
65.560 13.204294
65.565 12.831303
65.570 12.39214
65.575 12.698651
65.580 13.150622
65.585 12.673367
65.590 12.507096
65.595 12.830243
65.600 12.923755
65.605 13.159156
65.610 13.304552
65.615 12.974295
65.620 13.321232
65.625 13.401665
65.630 13.143541
65.635 13.19031
65.640 13.191738
65.645 13.263698
65.650 13.182309
65.655 13.116064
65.660 13.025188
65.665 12.8429
65.670 13.068159
65.675 13.081964
65.680 12.738616
65.685 12.65423
65.690 12.743634
65.695 12.527969
65.700 12.136225
65.705 11.606256
65.710 11.009011
65.715 10.901724
65.720 10.463277
65.725 10.036763
65.730 10.338115
65.735 10.592299
65.740 10.583563
65.745 11.002061
65.750 11.141948
65.755 11.473775
65.760 11.244682
65.765 11.146923
65.770 11.092779
65.775 11.400938
65.780 11.102551
65.785 10.674777
65.790 10.341037
65.795 10.508288
65.800 10.489669
65.805 10.500386
65.810 10.113632
65.815 10.342195
65.820 10.049212
65.825 10.386158
65.830 10.292883
65.835 10.311999
65.840 10.4038
65.845 10.376835
65.850 10.069048
65.855 10.231229
65.860 10.333467
65.865 10.275736
65.870 10.02979
65.875 9.931527
65.880 9.611671
65.885 9.699054
65.890 9.341554
65.895 9.018291
65.900 8.689857
65.905 8.524692
65.910 8.664783
65.915 8.77806
65.920 8.859299
65.925 8.659072
65.930 8.655593
65.935 8.992315
65.940 9.077451
65.945 8.63059
65.950 8.690871
65.955 8.583637
65.960 8.881731
65.965 8.986323
65.970 8.834442
65.975 9.021335
65.980 9.439556
65.985 9.531193
65.990 9.415777
65.995 9.403736
66.000 9.188954
66.005 8.964736
66.010 8.900006
66.015 8.746482
66.020 8.299696
66.025 8.174829
66.030 7.910929
66.035 8.108623
66.040 8.267986
66.045 8.180041
66.050 8.220422
66.055 8.355753
66.060 8.680027
66.065 9.094159
66.070 8.865065
66.075 8.663308
66.080 8.307195
66.085 8.202751
66.090 8.217215
66.095 8.193796
66.100 7.808572
66.105 7.819668
66.110 7.855173
66.115 8.312637
66.120 8.584844
66.125 8.826995
66.130 8.671335
66.135 8.455589
66.140 8.389815
66.145 8.39152
66.150 7.971853
66.155 7.787752
66.160 7.646451
66.165 7.410336
66.170 7.549041
66.175 7.333959
66.180 7.6056
66.185 8.146214
66.190 8.328156
66.195 8.404495
66.200 8.456889
66.205 8.429482
66.210 8.719679
66.215 8.71733
66.220 8.178581
66.225 7.930729
66.230 7.703715
66.235 7.735844
66.240 7.665912
66.245 7.629112
66.250 7.48329
66.255 7.684921
66.260 7.476571
66.265 7.351865
66.270 7.058651
66.275 7.058509
66.280 6.81081
66.285 6.734002
66.290 6.613045
66.295 7.048114
66.300 7.100205
66.305 7.148616
66.310 7.06958
66.315 7.237704
66.320 7.135572
66.325 7.228271
66.330 7.277833
66.335 7.418144
66.340 7.921566
66.345 7.829074
66.350 7.92902
66.355 8.481754
66.360 8.095854
66.365 7.508308
66.370 7.586283
66.375 7.743976
66.380 8.28116
66.385 7.873636
66.390 7.602903
66.395 8.172482
66.400 8.750725
66.405 8.624047
66.410 8.156569
66.415 7.576495
66.420 7.662096
66.425 7.647708
66.430 7.827044
66.435 7.66257
66.440 7.682648
66.445 8.104959
66.450 8.255251
66.455 8.459551
66.460 8.64227
66.465 8.126177
66.470 8.055671
66.475 7.914031
66.480 7.76235
66.485 7.928235
66.490 8.114779
66.495 7.86067
66.500 8.038008
66.505 8.321774
66.510 8.335905
66.515 8.552249
66.520 8.429037
66.525 8.201176
66.530 8.293921
66.535 8.597022
66.540 8.428866
66.545 8.603174
66.550 8.693799
66.555 8.954546
66.560 9.015059
66.565 9.03332
66.570 8.507162
66.575 8.474764
66.580 8.041617
66.585 7.316878
66.590 6.981471
66.595 7.023887
66.600 7.179681
66.605 7.422493
66.610 7.568342
66.615 7.840027
66.620 8.364036
66.625 8.133481
66.630 7.874667
66.635 7.746665
66.640 7.494268
66.645 7.317582
66.650 7.00045
66.655 6.937095
66.660 7.208622
66.665 7.061069
66.670 7.046558
66.675 7.516033
66.680 7.920597
66.685 8.44218
66.690 8.378813
66.695 8.294072
66.700 8.439909
66.705 8.369646
66.710 8.030559
66.715 7.76665
66.720 7.743491
66.725 7.96153
66.730 7.968453
66.735 8.220652
66.740 8.105034
66.745 8.077765
66.750 8.296098
66.755 7.91298
66.760 7.984208
66.765 8.099667
66.770 7.845734
66.775 7.681577
66.780 7.895533
66.785 7.598005
66.790 7.7162
66.795 7.333367
66.800 7.064991
66.805 7.133123
66.810 7.304559
66.815 6.982441
66.820 6.846834
66.825 7.168505
66.830 7.466451
66.835 7.551598
66.840 7.910047
66.845 8.299667
66.850 8.79298
66.855 8.83004
66.860 8.429523
66.865 8.190404
66.870 7.979112
66.875 7.690096
66.880 7.481355
66.885 7.275134
66.890 7.397953
66.895 7.508307
66.900 7.726714
66.905 7.810873
66.910 7.831728
66.915 7.790737
66.920 8.036687
66.925 8.451238
66.930 8.408715
66.935 8.301511
66.940 8.604481
66.945 8.973303
66.950 9.130922
66.955 8.848717
66.960 8.592656
66.965 8.404872
66.970 8.324963
66.975 8.307576
66.980 8.21342
66.985 7.98927
66.990 7.880997
66.995 7.488183
67.000 7.379026
67.005 7.654593
67.010 7.569099
67.015 7.329864
67.020 7.63334
67.025 7.712819
67.030 8.114744
67.035 8.672922
67.040 8.27705
67.045 8.038877
67.050 7.974668
67.055 7.631805
67.060 7.517992
67.065 7.318631
67.070 7.334955
67.075 7.411831
67.080 7.818167
67.085 7.99018
67.090 8.157104
67.095 8.393799
67.100 8.649585
67.105 8.899791
67.110 8.957907
67.115 8.6588
67.120 8.334749
67.125 8.449299
67.130 8.450181
67.135 8.559142
67.140 8.441808
67.145 8.801678
67.150 8.652841
67.155 8.583457
67.160 8.357902
67.165 8.371182
67.170 8.228395
67.175 8.085404
67.180 7.891554
67.185 8.110303
67.190 8.442228
67.195 8.727831
67.200 8.738567
67.205 8.680129
67.210 8.87067
67.215 9.224508
67.220 9.155859
67.225 8.831509
67.230 8.782173
67.235 8.731213
67.240 8.228088
67.245 7.863784
67.250 7.343297
67.255 7.511086
67.260 7.399012
67.265 7.197397
67.270 7.115361
67.275 7.779577
67.280 7.712756
67.285 7.613647
67.290 7.350496
67.295 7.187769
67.300 7.157057
67.305 7.372891
67.310 6.774806
67.315 6.733884
67.320 6.826484
67.325 6.621768
67.330 6.696188
67.335 6.511269
67.340 6.677243
67.345 7.124136
67.350 7.086654
67.355 7.297827
67.360 7.634146
67.365 7.915613
67.370 7.945448
67.375 7.527731
67.380 7.549794
67.385 7.484773
67.390 7.489279
67.395 7.284744
67.400 7.152187
67.405 7.026633
67.410 7.254498
67.415 7.056068
67.420 7.413899
67.425 7.319771
67.430 7.201197
67.435 7.497891
67.440 7.810876
67.445 7.915897
67.450 7.877722
67.455 7.442721
67.460 7.455948
67.465 7.531745
67.470 7.32635
67.475 6.985473
67.480 6.762618
67.485 7.030295
67.490 7.412961
67.495 7.548575
67.500 7.808137
67.505 8.007654
67.510 8.565231
67.515 8.922368
67.520 9.085204
67.525 9.084686
67.530 9.227951
67.535 9.346757
67.540 9.39397
67.545 9.068672
67.550 9.033387
67.555 8.722994
67.560 8.530093
67.565 8.468631
67.570 8.525781
67.575 8.499515
67.580 8.430145
67.585 8.277304
67.590 8.17679
67.595 8.065424
67.600 7.757817
67.605 7.197965
67.610 7.265357
67.615 7.151524
67.620 7.39922
67.625 7.604236
67.630 8.189179
67.635 8.664746
67.640 9.093053
67.645 8.815778
67.650 8.93874
67.655 8.646411
67.660 8.535632
67.665 8.071321
67.670 7.666744
67.675 7.375468
67.680 7.239364
67.685 7.070736
67.690 7.374813
67.695 7.42871
67.700 7.537506
67.705 7.734681
67.710 7.912234
67.715 8.016883
67.720 7.82626
67.725 7.550974
67.730 7.818017
67.735 7.981814
67.740 8.502872
67.745 8.418075
67.750 8.410643
67.755 8.366112
67.760 8.571688
67.765 8.783335
67.770 8.833591
67.775 8.366941
67.780 8.383254
67.785 8.386936
67.790 8.388296
67.795 8.202499
67.800 8.016292
67.805 7.692316
67.810 8.001789
67.815 8.00131
67.820 8.268774
67.825 8.316038
67.830 8.280912
67.835 8.307325
67.840 8.199849
67.845 7.890195
67.850 8.301909
67.855 8.318925
67.860 8.494093
67.865 8.550182
67.870 8.344884
67.875 8.417107
67.880 8.518093
67.885 8.526409
67.890 8.223774
67.895 8.201959
67.900 8.207584
67.905 8.234999
67.910 8.058884
67.915 7.802401
67.920 7.177732
67.925 7.474561
67.930 7.369971
67.935 7.11337
67.940 7.403986
67.945 7.546717
67.950 7.452686
67.955 7.454055
67.960 7.11677
67.965 7.004185
67.970 6.893392
67.975 6.82435
67.980 6.971212
67.985 7.423324
67.990 7.408167
67.995 7.458685
68.000 7.734912
68.005 8.137397
68.010 8.024366
68.015 8.099008
68.020 8.229369
68.025 8.327988
68.030 8.689349
68.035 8.418762
68.040 8.397726
68.045 8.587419
68.050 8.551286
68.055 8.285874
68.060 8.596609
68.065 8.363984
68.070 8.648175
68.075 8.654555
68.080 8.935591
68.085 9.310839
68.090 9.560984
68.095 9.225357
68.100 9.236255
68.105 9.181573
68.110 9.617446
68.115 9.293341
68.120 9.291615
68.125 9.364017
68.130 9.949632
68.135 9.741601
68.140 9.44124
68.145 9.027572
68.150 8.874979
68.155 8.654034
68.160 8.390383
68.165 7.889948
68.170 7.932821
68.175 8.305315
68.180 7.85881
68.185 7.779672
68.190 7.765718
68.195 7.711494
68.200 7.942394
68.205 7.898978
68.210 7.661545
68.215 7.769527
68.220 7.780902
68.225 8.079411
68.230 8.097906
68.235 8.425411
68.240 8.527259
68.245 8.458701
68.250 8.433792
68.255 8.388511
68.260 8.16973
68.265 8.032638
68.270 7.911065
68.275 7.995264
68.280 8.492138
68.285 8.977027
68.290 9.079036
68.295 9.314268
68.300 9.533354
68.305 9.486621
68.310 9.247017
68.315 8.919307
68.320 8.681131
68.325 9.02122
68.330 9.305136
68.335 9.247529
68.340 9.389108
68.345 9.782999
68.350 9.927547
68.355 9.956713
68.360 9.600242
68.365 9.368857
68.370 9.269783
68.375 9.111971
68.380 8.803345
68.385 8.73675
68.390 8.365538
68.395 8.50404
68.400 8.522771
68.405 8.600465
68.410 8.70364
68.415 9.298423
68.420 9.798777
68.425 10.486031
68.430 10.472091
68.435 10.366928
68.440 10.844882
68.445 11.20056
68.450 11.70124
68.455 11.826723
68.460 11.794687
68.465 12.028028
68.470 12.227785
68.475 11.88781
68.480 11.883723
68.485 11.258336
68.490 11.289968
68.495 11.22713
68.500 11.656832
68.505 11.839339
68.510 11.741093
68.515 11.619571
68.520 12.281068
68.525 12.387486
68.530 12.388591
68.535 12.093557
68.540 12.775275
68.545 13.329475
68.550 13.317589
68.555 12.55663
68.560 12.383414
68.565 12.262538
68.570 12.141923
68.575 12.189777
68.580 12.042969
68.585 11.887966
68.590 12.352839
68.595 12.381108
68.600 12.753442
68.605 13.039944
68.610 12.848225
68.615 13.098017
68.620 13.180135
68.625 13.569448
68.630 14.228004
68.635 14.198335
68.640 13.945643
68.645 13.585227
68.650 13.446985
68.655 12.922268
68.660 12.612558
68.665 12.21252
68.670 12.102899
68.675 11.739101
68.680 11.811232
68.685 11.906776
68.690 12.352517
68.695 12.573115
68.700 12.355303
68.705 12.635237
68.710 12.936682
68.715 12.503308
68.720 12.572908
68.725 12.928583
68.730 12.815319
68.735 13.213029
68.740 12.991554
68.745 12.73737
68.750 13.251595
68.755 13.186307
68.760 12.856284
68.765 13.174094
68.770 13.26061
68.775 12.802806
68.780 12.786798
68.785 12.705717
68.790 12.658449
68.795 12.229592
68.800 12.09666
68.805 12.347173
68.810 12.786515
68.815 12.869274
68.820 13.123572
68.825 13.741892
68.830 13.733878
68.835 13.306005
68.840 13.374703
68.845 13.790137
68.850 13.760941
68.855 13.467388
68.860 13.088768
68.865 13.150238
68.870 13.321977
68.875 12.967472
68.880 12.654707
68.885 12.566407
68.890 12.524682
68.895 12.575055
68.900 12.593122
68.905 12.686766
68.910 12.716504
68.915 12.937858
68.920 12.779431
68.925 12.953602
68.930 12.733871
68.935 12.196273
68.940 11.505468
68.945 11.241879
68.950 11.400512
68.955 11.073357
68.960 10.859267
68.965 10.665333
68.970 10.881416
68.975 10.509025
68.980 10.348973
68.985 10.111026
68.990 10.410777
68.995 10.536403
69.000 10.928089
69.005 11.351247
69.010 11.668067
69.015 11.312642
69.020 11.130926
69.025 11.011295
69.030 10.84383
69.035 10.506389
69.040 10.306914
69.045 10.181244
69.050 10.511341
69.055 10.720847
69.060 10.477994
69.065 10.700648
69.070 10.640321
69.075 10.880821
69.080 10.938941
69.085 10.843844
69.090 10.815824
69.095 11.005084
69.100 11.002901
69.105 10.589298
69.110 10.23097
69.115 10.54575
69.120 10.281424
69.125 10.589167
69.130 10.901114
69.135 10.672344
69.140 10.966607
69.145 10.882606
69.150 10.666383
69.155 10.353458
69.160 9.424047
69.165 8.763682
69.170 9.135982
69.175 9.180363
69.180 9.009929
69.185 9.256152
69.190 9.596647
69.195 9.631177
69.200 9.988904
69.205 9.885513
69.210 9.863337
69.215 9.680945
69.220 9.167997
69.225 9.0175
69.230 9.160315
69.235 8.918839
69.240 8.769996
69.245 8.8256
69.250 9.260287
69.255 9.351477
69.260 9.354994
69.265 9.25987
69.270 9.162516
69.275 9.165335
69.280 8.874764
69.285 8.385979
69.290 8.493836
69.295 8.78832
69.300 8.989738
69.305 8.796162
69.310 8.7981
69.315 8.800967
69.320 8.870096
69.325 8.671474
69.330 8.03691
69.335 7.703279
69.340 7.771147
69.345 8.13142
69.350 8.709596
69.355 8.969741
69.360 8.898607
69.365 9.166807
69.370 9.348352
69.375 8.997085
69.380 8.6766
69.385 8.256275
69.390 7.994299
69.395 8.173823
69.400 8.137914
69.405 8.1008
69.410 8.465474
69.415 8.441007
69.420 8.653962
69.425 8.696385
69.430 9.289591
69.435 9.665155
69.440 9.60635
69.445 9.409552
69.450 9.532146
69.455 9.121048
69.460 8.841269
69.465 8.614904
69.470 8.593248
69.475 8.550336
69.480 8.425006
69.485 8.208007
69.490 8.900332
69.495 9.273713
69.500 8.615479
69.505 8.481282
69.510 8.993468
69.515 9.083633
69.520 9.294789
69.525 8.882671
69.530 8.685162
69.535 8.744425
69.540 8.494489
69.545 8.232193
69.550 8.226984
69.555 8.307432
69.560 8.502673
69.565 8.533338
69.570 8.979812
69.575 9.42303
69.580 9.32255
69.585 9.028827
69.590 8.777794
69.595 8.746838
69.600 9.006516
69.605 8.815395
69.610 8.330587
69.615 8.275222
69.620 8.257602
69.625 8.269253
69.630 8.218421
69.635 8.104662
69.640 8.465705
69.645 8.866771
69.650 9.180832
69.655 9.412793
69.660 9.417656
69.665 9.359792
69.670 8.91202
69.675 8.422788
69.680 8.154511
69.685 7.915906
69.690 7.379469
69.695 7.378551
69.700 7.684433
69.705 7.742251
69.710 7.86103
69.715 7.817595
69.720 8.019429
69.725 8.918978
69.730 8.967976
69.735 9.149053
69.740 9.193686
69.745 9.080749
69.750 8.900104
69.755 8.809367
69.760 8.498882
69.765 8.05682
69.770 8.041211
69.775 8.14018
69.780 8.245901
69.785 8.601549
69.790 8.320539
69.795 7.922537
69.800 8.055928
69.805 7.902891
69.810 8.297433
69.815 8.46251
69.820 8.703379
69.825 9.081251
69.830 9.367687
69.835 9.543623
69.840 9.317844
69.845 8.816429
69.850 8.585246
69.855 8.129367
69.860 8.018555
69.865 8.218189
69.870 7.735727
69.875 8.055971
69.880 8.372149
69.885 8.536694
69.890 9.008718
69.895 9.258978
69.900 8.965666
69.905 9.042681
69.910 8.963229
69.915 8.872601
69.920 8.972693
69.925 8.635869
69.930 8.727551
69.935 8.786156
69.940 8.880153
69.945 9.111622
69.950 8.557342
69.955 8.313175
69.960 8.214637
69.965 8.193633
69.970 8.168804
69.975 8.081891
69.980 7.714872
69.985 7.932258
69.990 8.078516
69.995 7.969429
70.000 7.848779
70.005 7.737666
70.010 7.850789
70.015 8.31502
70.020 8.572948
70.025 8.781277
70.030 9.201099
70.035 9.480121
70.040 9.414227
70.045 9.249352
70.050 8.882933
70.055 8.693289
70.060 8.115546
70.065 7.762098
70.070 7.696106
70.075 7.882272
70.080 8.172714
70.085 8.478876
70.090 8.523312
70.095 8.764662
70.100 8.761217
70.105 8.399977
70.110 7.932995
70.115 7.393516
70.120 7.282555
70.125 7.414641
70.130 7.480865
70.135 7.831709
70.140 8.221404
70.145 8.828165
70.150 9.224568
70.155 9.009409
70.160 8.771067
70.165 8.487432
70.170 8.088532
70.175 8.034246
70.180 7.900021
70.185 7.525525
70.190 7.5631
70.195 8.112505
70.200 8.323817
70.205 8.596375
70.210 8.724913
70.215 8.690487
70.220 8.970613
70.225 8.82832
70.230 8.333987
70.235 8.24209
70.240 8.383832
70.245 8.426995
70.250 8.538185
70.255 8.456816
70.260 8.621902
70.265 8.627283
70.270 8.453132
70.275 8.182765
70.280 7.91909
70.285 8.413528
70.290 8.417686
70.295 8.55813
70.300 8.693063
70.305 9.514152
70.310 9.592221
70.315 9.952386
70.320 9.605884
70.325 9.548553
70.330 9.159269
70.335 8.666913
70.340 8.517975
70.345 8.669141
70.350 8.041259
70.355 7.915365
70.360 8.065006
70.365 8.653925
70.370 8.962076
70.375 8.412002
70.380 8.635052
70.385 8.609301
70.390 8.597575
70.395 8.36091
70.400 7.995471
70.405 8.095258
70.410 8.419353
70.415 8.516172
70.420 8.5214
70.425 8.355846
70.430 8.352691
70.435 8.405287
70.440 8.428312
70.445 8.189027
70.450 8.157879
70.455 8.353838
70.460 8.290649
70.465 8.293574
70.470 8.360049
70.475 8.397096
70.480 8.73975
70.485 8.770075
70.490 8.982808
70.495 8.81031
70.500 8.751261
70.505 9.178799
70.510 9.060062
70.515 8.497574
70.520 8.146942
70.525 8.149211
70.530 8.47634
70.535 8.263289
70.540 7.699332
70.545 7.892538
70.550 8.039724
70.555 8.737552
70.560 9.00447
70.565 8.944116
70.570 9.049994
70.575 8.911633
70.580 8.561419
70.585 8.237741
70.590 7.906275
70.595 7.664954
70.600 7.770925
70.605 7.607372
70.610 7.993006
70.615 8.568218
70.620 8.816125
70.625 8.559769
70.630 8.250531
70.635 8.085807
70.640 8.081143
70.645 7.600191
70.650 7.251981
70.655 7.203037
70.660 7.215418
70.665 7.360852
70.670 7.314338
70.675 7.391781
70.680 7.592854
70.685 7.443372
70.690 7.729936
70.695 7.992032
70.700 8.438423
70.705 8.948728
70.710 8.790775
70.715 9.286286
70.720 8.920084
70.725 8.685282
70.730 8.531537
70.735 8.376199
70.740 8.116626
70.745 7.874657
70.750 7.730949
70.755 8.234579
70.760 8.222911
70.765 7.995597
70.770 7.654288
70.775 7.713566
70.780 7.689115
70.785 7.406922
70.790 7.152221
70.795 7.397082
70.800 7.900608
70.805 7.930444
70.810 8.139534
70.815 8.6537
70.820 8.754935
70.825 8.557199
70.830 8.205474
70.835 7.888258
70.840 8.215181
70.845 8.325788
70.850 8.352061
70.855 8.610325
70.860 8.770026
70.865 8.863086
70.870 9.156365
70.875 8.773331
70.880 8.330857
70.885 7.924456
70.890 7.932687
70.895 7.995049
70.900 8.121208
70.905 7.899078
70.910 8.085708
70.915 8.630639
70.920 8.842287
70.925 8.958151
70.930 8.875972
70.935 8.975925
70.940 9.06963
70.945 8.980877
70.950 8.922181
70.955 8.772862
70.960 8.786465
70.965 8.496243
70.970 8.087961
70.975 8.466805
70.980 8.260055
70.985 8.349826
70.990 8.16417
70.995 8.081601
71.000 8.534452
71.005 8.603251
71.010 8.550014
71.015 8.246739
71.020 7.999964
71.025 7.971792
71.030 8.538556
71.035 8.574608
71.040 8.160505
71.045 7.951636
71.050 8.184924
71.055 8.590856
71.060 8.770714
71.065 8.243898
71.070 8.198307
71.075 8.667432
71.080 8.519053
71.085 8.580957
71.090 8.273411
71.095 8.392548
71.100 8.348153
71.105 8.484054
71.110 8.370124
71.115 8.45751
71.120 8.196416
71.125 8.23863
71.130 8.382819
71.135 8.313517
71.140 7.951656
71.145 8.031714
71.150 8.318768
71.155 8.335676
71.160 8.600529
71.165 8.482025
71.170 8.68783
71.175 9.244432
71.180 9.310846
71.185 9.158075
71.190 8.932602
71.195 8.939051
71.200 8.972642
71.205 9.02118
71.210 8.697103
71.215 8.686392
71.220 8.611536
71.225 8.718163
71.230 8.186615
71.235 8.027888
71.240 7.654038
71.245 7.504611
71.250 7.782859
71.255 7.7133
71.260 8.114539
71.265 8.256802
71.270 8.582585
71.275 8.747261
71.280 8.582099
71.285 8.554011
71.290 8.377147
71.295 8.220519
71.300 8.483316
71.305 8.316073
71.310 8.716266
71.315 8.643223
71.320 8.675417
71.325 8.53145
71.330 8.520212
71.335 8.2808
71.340 8.130666
71.345 8.526846
71.350 8.765642
71.355 8.971398
71.360 9.24958
71.365 8.923764
71.370 8.813906
71.375 8.756268
71.380 8.287597
71.385 8.053573
71.390 8.072927
71.395 8.196368
71.400 8.520193
71.405 8.554055
71.410 8.561911
71.415 8.753138
71.420 8.950171
71.425 8.952575
71.430 8.746542
71.435 8.179735
71.440 8.370421
71.445 8.318176
71.450 8.132447
71.455 8.103124
71.460 8.398888
71.465 8.618277
71.470 8.876016
71.475 8.529018
71.480 8.667084
71.485 8.745881
71.490 8.774093
71.495 8.545672
71.500 8.110195
71.505 8.112853
71.510 8.397558
71.515 8.262949
71.520 8.212418
71.525 8.183372
71.530 8.012909
71.535 8.598202
71.540 8.644782
71.545 8.597579
71.550 8.859852
71.555 8.330338
71.560 8.167757
71.565 8.31461
71.570 7.843858
71.575 7.488334
71.580 7.532582
71.585 7.478736
71.590 7.55887
71.595 7.735259
71.600 8.165683
71.605 8.799959
71.610 8.882729
71.615 8.831109
71.620 9.014281
71.625 9.330487
71.630 9.166541
71.635 8.733892
71.640 8.631253
71.645 8.830296
71.650 8.803052
71.655 8.45006
71.660 8.07212
71.665 7.923418
71.670 8.064082
71.675 7.605682
71.680 7.615822
71.685 7.625628
71.690 7.570057
71.695 7.78784
71.700 7.837022
71.705 7.486512
71.710 7.435328
71.715 7.268882
71.720 7.618256
71.725 7.934997
71.730 8.055814
71.735 7.977062
71.740 8.444226
71.745 8.939632
71.750 9.24304
71.755 8.966949
71.760 8.792089
71.765 8.549087
71.770 8.724615
71.775 8.81028
71.780 8.814012
71.785 9.097414
71.790 9.225547
71.795 9.408565
71.800 9.537089
71.805 9.244777
71.810 9.081405
71.815 8.748214
71.820 8.752543
71.825 8.62574
71.830 8.639036
71.835 9.147523
71.840 9.295562
71.845 9.403576
71.850 9.012392
71.855 8.945586
71.860 8.995508
71.865 8.823666
71.870 8.454236
71.875 8.629666
71.880 8.738665
71.885 8.875837
71.890 9.187267
71.895 9.343721
71.900 9.167653
71.905 9.137792
71.910 8.823675
71.915 8.703872
71.920 8.585706
71.925 7.563442
71.930 7.6407
71.935 7.780758
71.940 7.848257
71.945 7.985735
71.950 8.134781
71.955 8.694488
71.960 8.789676
71.965 8.686132
71.970 8.803429
71.975 8.296309
71.980 7.682304
71.985 7.150201
71.990 6.877718
71.995 6.785181
72.000 6.314442
72.005 6.750951
72.010 7.021228
72.015 7.655242
72.020 7.890605
72.025 7.713787
72.030 7.920033
72.035 7.830303
72.040 7.539573
72.045 7.825815
72.050 7.916785
72.055 7.758486
72.060 8.376103
72.065 8.599391
72.070 9.199497
72.075 9.448682
72.080 9.436695
72.085 9.831146
72.090 10.035938
72.095 9.882085
72.100 9.724986
72.105 9.481748
72.110 9.084246
72.115 8.051995
72.120 7.679341
72.125 7.552517
72.130 7.27783
72.135 7.459245
72.140 7.56934
72.145 7.885074
72.150 8.374595
72.155 8.217677
72.160 8.0018
72.165 7.71175
72.170 7.681406
72.175 7.713438
72.180 7.656034
72.185 7.395132
72.190 7.462399
72.195 7.765207
72.200 8.152374
72.205 7.876242
72.210 8.037287
72.215 7.980556
72.220 8.205347
72.225 8.573842
72.230 8.153044
72.235 8.461255
72.240 9.049397
72.245 9.529735
72.250 9.853591
72.255 9.690297
72.260 9.443035
72.265 9.673891
72.270 9.036401
72.275 8.171708
72.280 7.943841
72.285 7.668896
72.290 7.754889
72.295 7.66939
72.300 7.599339
72.305 8.072394
72.310 8.274881
72.315 8.124655
72.320 8.063155
72.325 7.833727
72.330 8.143723
72.335 7.848122
72.340 7.598505
72.345 7.409975
72.350 7.205502
72.355 6.889737
72.360 6.809682
72.365 6.767688
72.370 6.881023
72.375 6.779171
72.380 6.92642
72.385 7.160038
72.390 7.788014
72.395 7.955136
72.400 7.623437
72.405 7.78375
72.410 7.764035
72.415 7.717829
72.420 7.705843
72.425 7.277486
72.430 7.693103
72.435 7.620522
72.440 7.742323
72.445 7.827403
72.450 7.894241
72.455 7.830759
72.460 7.565968
72.465 7.361952
72.470 7.568122
72.475 7.493411
72.480 7.717242
72.485 7.806673
72.490 7.957419
72.495 8.124533
72.500 7.996054
72.505 7.974481
72.510 8.128251
72.515 8.247984
72.520 7.981435
72.525 8.096298
72.530 8.026978
72.535 8.068929
72.540 8.004233
72.545 7.831968
72.550 7.765177
72.555 8.423468
72.560 8.455436
72.565 8.530399
72.570 8.465128
72.575 8.160543
72.580 8.360961
72.585 8.620811
72.590 8.459986
72.595 8.256521
72.600 8.261517
72.605 8.672791
72.610 8.805922
72.615 8.659669
72.620 8.482127
72.625 8.485558
72.630 8.675808
72.635 8.415264
72.640 8.011264
72.645 7.843565
72.650 7.640483
72.655 7.647237
72.660 7.497253
72.665 7.625728
72.670 7.483995
72.675 7.543321
72.680 7.756838
72.685 7.761662
72.690 7.811194
72.695 8.064598
72.700 7.895847
72.705 8.096471
72.710 8.121461
72.715 7.98424
72.720 7.812674
72.725 7.62899
72.730 7.862785
72.735 7.970125
72.740 8.068861
72.745 7.813975
72.750 7.646386
72.755 8.055737
72.760 8.367963
72.765 8.416511
72.770 8.257628
72.775 8.207917
72.780 8.202119
72.785 8.280572
72.790 7.906232
72.795 7.407647
72.800 7.838637
72.805 8.355105
72.810 8.39346
72.815 8.397488
72.820 8.17527
72.825 8.39163
72.830 8.084962
72.835 7.963831
72.840 7.731117
72.845 8.065256
72.850 8.131715
72.855 8.229541
72.860 8.44666
72.865 8.371453
72.870 8.16695
72.875 7.862154
72.880 8.033055
72.885 8.153967
72.890 8.328843
72.895 8.156651
72.900 8.200197
72.905 8.059504
72.910 7.803244
72.915 7.729759
72.920 8.147722
72.925 7.886099
72.930 7.913063
72.935 7.666503
72.940 8.143715
72.945 8.315791
72.950 8.48799
72.955 8.497003
72.960 8.937064
72.965 9.138585
72.970 9.603437
72.975 9.080159
72.980 8.939735
72.985 8.66187
72.990 8.166084
72.995 7.845392
73.000 7.263586
