!@!!GADDS PLOTSO FILE: Chi integration type
!@!!Title/SampleName: map-99
!@!!Comment: ?
!@!!User: Bruker Instrument Administrator
!@!!Site: University of Illinois Chicago
!@!!Frame: map-99_01_000.gfrm
!@!!Wavelengths    1.54184   1.54056   1.54439
!@!!Frame angles: 2Theta: 63.000 Omega: 50.000 Phi: 0.000 Chi: 90.000
!@!!Integration range: 2Theta: 53.000 to 73.000  Gamma: -105.000 to -75.000
!@!!Integration method: bin normalized
!@!N
!@!SS
!@!M
!@!L 0.0 0.0 0.0 0.0
!@!XDegrees
!@!YCounts
53.000 8.21223
53.005 8.133631
53.010 8.361936
53.015 8.198859
53.020 8.192995
53.025 8.009683
53.030 7.283351
53.035 7.292979
53.040 7.73087
53.045 8.166189
53.050 8.887944
53.055 8.993261
53.060 8.794405
53.065 8.649839
53.070 8.751119
53.075 8.590834
53.080 8.324278
53.085 7.63952
53.090 7.468929
53.095 7.550123
53.100 7.425878
53.105 7.253455
53.110 7.476588
53.115 7.615293
53.120 7.754107
53.125 8.043882
53.130 8.131725
53.135 8.481872
53.140 8.592157
53.145 8.3253
53.150 8.246293
53.155 8.458201
53.160 8.452694
53.165 8.367243
53.170 8.159452
53.175 8.424012
53.180 8.593003
53.185 8.739225
53.190 8.739114
53.195 8.833211
53.200 8.654016
53.205 8.330616
53.210 8.268531
53.215 8.062623
53.220 8.056807
53.225 8.026948
53.230 7.829159
53.235 8.042838
53.240 8.039685
53.245 7.931568
53.250 7.815885
53.255 8.425815
53.260 8.901881
53.265 8.796809
53.270 8.844097
53.275 8.71039
53.280 8.561608
53.285 8.57915
53.290 7.932942
53.295 7.950981
53.300 8.57211
53.305 9.014098
53.310 8.95366
53.315 8.874981
53.320 8.715127
53.325 8.802635
53.330 8.435981
53.335 7.970593
53.340 8.269557
53.345 8.437767
53.350 8.479847
53.355 8.572028
53.360 8.577062
53.365 8.809505
53.370 8.847529
53.375 8.494287
53.380 8.151207
53.385 8.088354
53.390 8.199785
53.395 7.965968
53.400 7.95493
53.405 7.945224
53.410 8.363802
53.415 8.603858
53.420 8.261044
53.425 8.349368
53.430 8.250983
53.435 8.13029
53.440 7.841905
53.445 7.52125
53.450 7.708425
53.455 7.621436
53.460 7.681828
53.465 8.358203
53.470 8.621127
53.475 9.020684
53.480 9.423171
53.485 9.847012
53.490 10.625357
53.495 10.341747
53.500 9.853358
53.505 9.670033
53.510 9.332046
53.515 9.356842
53.520 9.008768
53.525 8.838223
53.530 8.981229
53.535 8.727392
53.540 8.635035
53.545 8.476877
53.550 8.434236
53.555 8.19438
53.560 8.007185
53.565 8.455695
53.570 8.75472
53.575 8.681211
53.580 9.207663
53.585 9.113729
53.590 9.456717
53.595 9.630968
53.600 9.324113
53.605 9.642208
53.610 9.705246
53.615 9.597514
53.620 9.39835
53.625 9.525693
53.630 9.123714
53.635 9.496878
53.640 9.437645
53.645 9.29683
53.650 9.381889
53.655 9.356514
53.660 9.400016
53.665 9.429287
53.670 8.961609
53.675 8.659476
53.680 8.552907
53.685 8.526581
53.690 8.854708
53.695 8.498481
53.700 8.723556
53.705 8.645442
53.710 8.516032
53.715 8.310925
53.720 8.452134
53.725 8.696187
53.730 8.946918
53.735 8.876549
53.740 8.800475
53.745 9.031184
53.750 9.250031
53.755 8.92201
53.760 8.727634
53.765 8.844783
53.770 9.330937
53.775 9.546622
53.780 9.497769
53.785 9.640788
53.790 9.524772
53.795 8.921161
53.800 8.540202
53.805 8.37384
53.810 8.303026
53.815 8.335311
53.820 8.122891
53.825 8.155986
53.830 8.436031
53.835 8.676459
53.840 8.749492
53.845 8.99438
53.850 8.79934
53.855 8.742493
53.860 8.684177
53.865 8.847528
53.870 8.57442
53.875 8.48509
53.880 8.572053
53.885 8.95914
53.890 9.504827
53.895 9.543711
53.900 9.423591
53.905 9.851572
53.910 10.207341
53.915 10.440474
53.920 10.490831
53.925 10.414101
53.930 10.672588
53.935 10.694642
53.940 10.483986
53.945 10.04545
53.950 9.685673
53.955 9.706453
53.960 9.945206
53.965 9.992443
53.970 9.687972
53.975 9.861293
53.980 9.80959
53.985 9.587048
53.990 9.297154
53.995 9.33178
54.000 9.273978
54.005 9.32097
54.010 8.835878
54.015 8.641946
54.020 9.035774
54.025 9.059592
54.030 8.897341
54.035 9.272492
54.040 9.529298
54.045 9.733834
54.050 9.459114
54.055 9.007469
54.060 8.961455
54.065 9.033094
54.070 8.951027
54.075 9.361559
54.080 9.867023
54.085 10.661254
54.090 10.809611
54.095 10.948573
54.100 11.117914
54.105 11.121414
54.110 10.51896
54.115 10.009907
54.120 9.575208
54.125 9.816132
54.130 9.866182
54.135 9.343072
54.140 9.220137
54.145 9.357653
54.150 9.391126
54.155 9.500345
54.160 9.372252
54.165 9.51427
54.170 9.40821
54.175 9.301858
54.180 9.267409
54.185 9.477645
54.190 9.216142
54.195 9.030832
54.200 9.107415
54.205 9.404625
54.210 9.771392
54.215 10.00176
54.220 10.024158
54.225 9.858655
54.230 9.644894
54.235 9.828869
54.240 10.096275
54.245 10.065888
54.250 9.795871
54.255 10.153259
54.260 10.835629
54.265 11.17499
54.270 11.164918
54.275 10.554528
54.280 10.735744
54.285 10.698633
54.290 10.223742
54.295 9.469637
54.300 9.5207
54.305 9.78603
54.310 9.75672
54.315 9.482305
54.320 9.643571
54.325 9.873317
54.330 10.25065
54.335 9.649243
54.340 9.092936
54.345 8.85938
54.350 8.581663
54.355 8.154689
54.360 8.270952
54.365 8.113588
54.370 8.483775
54.375 8.853182
54.380 9.284593
54.385 9.956946
54.390 10.384494
54.395 10.602806
54.400 10.803433
54.405 11.190869
54.410 11.275051
54.415 11.255843
54.420 10.890482
54.425 10.696271
54.430 10.399064
54.435 9.919848
54.440 9.466436
54.445 9.880783
54.450 10.248617
54.455 10.128405
54.460 10.110435
54.465 10.229168
54.470 10.487685
54.475 10.12106
54.480 9.271534
54.485 9.397507
54.490 9.663144
54.495 9.282968
54.500 9.057784
54.505 8.883129
54.510 9.406013
54.515 9.524819
54.520 9.226106
54.525 9.2259
54.530 9.378402
54.535 9.637292
54.540 10.125962
54.545 10.072432
54.550 9.953979
54.555 9.820166
54.560 9.464114
54.565 9.693871
54.570 9.283532
54.575 8.364311
54.580 8.277618
54.585 8.432677
54.590 8.854081
54.595 9.099379
54.600 9.003559
54.605 9.158628
54.610 9.140495
54.615 9.198481
54.620 8.960614
54.625 8.648531
54.630 8.627141
54.635 8.870354
54.640 9.190108
54.645 9.416719
54.650 9.280269
54.655 9.228187
54.660 9.048253
54.665 8.784383
54.670 8.485485
54.675 8.462234
54.680 8.576906
54.685 9.214505
54.690 9.665483
54.695 10.047431
54.700 10.020562
54.705 10.211458
54.710 10.318564
54.715 10.614929
54.720 10.453367
54.725 10.734789
54.730 10.928952
54.735 11.155565
54.740 10.734432
54.745 10.401501
54.750 10.471799
54.755 10.372956
54.760 10.249036
54.765 10.293443
54.770 10.85392
54.775 11.424226
54.780 11.502447
54.785 10.821771
54.790 10.737701
54.795 10.793671
54.800 10.835407
54.805 10.848058
54.810 10.894791
54.815 11.277822
54.820 11.446868
54.825 10.882414
54.830 10.927212
54.835 10.451812
54.840 9.975297
54.845 9.579372
54.850 9.711475
54.855 10.19609
54.860 10.459887
54.865 10.042296
54.870 10.038434
54.875 10.538634
54.880 10.968895
54.885 10.850018
54.890 10.860947
54.895 10.872759
54.900 10.928945
54.905 11.042358
54.910 10.618984
54.915 10.822119
54.920 10.483191
54.925 10.189806
54.930 10.336522
54.935 10.502421
54.940 10.48655
54.945 10.752301
54.950 10.700566
54.955 10.613099
54.960 10.665031
54.965 10.813768
54.970 10.736179
54.975 10.859815
54.980 10.323323
54.985 10.173066
54.990 10.44075
54.995 10.751997
55.000 10.718007
55.005 10.400409
55.010 10.027986
55.015 10.110311
55.020 10.23496
55.025 10.097116
55.030 9.997853
55.035 10.084062
55.040 10.312511
55.045 10.535702
55.050 10.801762
55.055 10.882257
55.060 10.786559
55.065 10.59475
55.070 10.705224
55.075 10.717958
55.080 10.76566
55.085 10.33993
55.090 10.213491
55.095 10.307014
55.100 10.219501
55.105 10.533484
55.110 10.814276
55.115 11.059133
55.120 11.433797
55.125 11.024709
55.130 11.201771
55.135 11.530732
55.140 11.285512
55.145 10.730856
55.150 10.286283
55.155 9.79577
55.160 9.882441
55.165 9.843101
55.170 9.677664
55.175 9.46505
55.180 9.724251
55.185 10.252355
55.190 10.981101
55.195 10.893587
55.200 10.910241
55.205 10.884118
55.210 11.570817
55.215 11.428782
55.220 11.897418
55.225 12.073225
55.230 12.102537
55.235 12.029136
55.240 11.942863
55.245 11.405797
55.250 11.347743
55.255 10.600494
55.260 10.155676
55.265 10.106169
55.270 10.12984
55.275 10.262346
55.280 10.389469
55.285 10.549696
55.290 10.743474
55.295 11.479375
55.300 11.879589
55.305 11.841289
55.310 11.831965
55.315 11.997295
55.320 12.165413
55.325 12.248585
55.330 11.777424
55.335 11.701284
55.340 11.527699
55.345 11.554333
55.350 11.802409
55.355 11.560113
55.360 11.621422
55.365 11.747636
55.370 11.248858
55.375 10.88494
55.380 10.763426
55.385 10.381948
55.390 10.558171
55.395 10.312484
55.400 10.213635
55.405 10.783943
55.410 11.524672
55.415 11.63313
55.420 11.707414
55.425 11.63603
55.430 12.006023
55.435 11.916991
55.440 11.822167
55.445 11.746673
55.450 11.881932
55.455 11.827773
55.460 11.304525
55.465 10.9438
55.470 11.213206
55.475 11.096463
55.480 10.549811
55.485 10.27707
55.490 10.422861
55.495 10.770354
55.500 11.168588
55.505 10.922209
55.510 10.908048
55.515 11.378154
55.520 11.305157
55.525 11.075516
55.530 10.647571
55.535 11.153402
55.540 11.874295
55.545 12.260544
55.550 12.086616
55.555 12.119621
55.560 12.195519
55.565 12.018483
55.570 11.3302
55.575 11.211796
55.580 11.338455
55.585 11.666109
55.590 11.739442
55.595 11.696747
55.600 11.99614
55.605 11.898044
55.610 11.141428
55.615 10.523873
55.620 10.192772
55.625 9.89098
55.630 10.155891
55.635 10.114224
55.640 10.057764
55.645 10.33717
55.650 10.59793
55.655 10.878015
55.660 11.079597
55.665 10.859252
55.670 11.026034
55.675 11.117806
55.680 10.746095
55.685 10.57524
55.690 10.691312
55.695 10.651855
55.700 10.374026
55.705 9.774122
55.710 9.550945
55.715 9.900837
55.720 10.487968
55.725 10.302962
55.730 10.490069
55.735 11.330186
55.740 11.896588
55.745 11.902525
55.750 11.487824
55.755 10.757131
55.760 11.378917
55.765 11.640442
55.770 11.206739
55.775 10.897228
55.780 10.981181
55.785 11.31001
55.790 11.299535
55.795 10.288488
55.800 9.605165
55.805 9.66734
55.810 10.351736
55.815 10.594588
55.820 10.72205
55.825 10.745237
55.830 11.274199
55.835 11.600633
55.840 11.029976
55.845 10.535523
55.850 10.893712
55.855 10.611723
55.860 10.536162
55.865 10.561242
55.870 10.646783
55.875 11.14648
55.880 10.944437
55.885 10.620126
55.890 11.032897
55.895 11.01617
55.900 10.883289
55.905 10.881383
55.910 10.782226
55.915 10.952726
55.920 11.141424
55.925 11.316296
55.930 11.807812
55.935 12.134785
55.940 12.172709
55.945 12.438272
55.950 12.637439
55.955 12.571577
55.960 11.918908
55.965 11.607778
55.970 11.414907
55.975 11.134262
55.980 11.114434
55.985 10.847914
55.990 11.093063
55.995 11.23446
56.000 11.287999
56.005 11.420238
56.010 11.174795
56.015 11.022621
56.020 10.758438
56.025 10.950732
56.030 11.025561
56.035 10.656669
56.040 10.289476
56.045 9.995849
56.050 10.012012
56.055 10.349644
56.060 9.920802
56.065 9.93295
56.070 10.026416
56.075 10.545165
56.080 11.075384
56.085 11.246975
56.090 11.210175
56.095 11.591085
56.100 12.16942
56.105 12.455293
56.110 12.694402
56.115 12.900046
56.120 12.83737
56.125 12.486588
56.130 11.725796
56.135 11.266258
56.140 11.35644
56.145 10.953471
56.150 10.602697
56.155 10.507139
56.160 10.78584
56.165 11.42867
56.170 11.71209
56.175 11.451661
56.180 11.376356
56.185 11.821763
56.190 12.104447
56.195 12.650212
56.200 12.222051
56.205 11.987803
56.210 12.246882
56.215 12.425368
56.220 12.176435
56.225 12.098878
56.230 11.789535
56.235 12.218029
56.240 12.182026
56.245 12.002434
56.250 12.410718
56.255 12.500758
56.260 12.704519
56.265 12.687316
56.270 12.275655
56.275 12.191944
56.280 11.743834
56.285 11.513774
56.290 11.566317
56.295 11.59031
56.300 11.839906
56.305 11.658558
56.310 11.83446
56.315 12.312957
56.320 12.298013
56.325 12.195988
56.330 11.895932
56.335 12.181761
56.340 12.313655
56.345 12.486615
56.350 11.968979
56.355 11.445457
56.360 11.027175
56.365 10.867535
56.370 10.848111
56.375 11.104865
56.380 11.38005
56.385 11.447306
56.390 11.050028
56.395 10.947739
56.400 10.936043
56.405 11.158463
56.410 11.058443
56.415 11.06387
56.420 11.837917
56.425 12.60208
56.430 12.709476
56.435 12.393613
56.440 11.933118
56.445 11.86456
56.450 11.748688
56.455 11.327963
56.460 10.911565
56.465 11.451595
56.470 11.650245
56.475 11.815994
56.480 11.923635
56.485 12.212599
56.490 12.585768
56.495 12.774652
56.500 12.504951
56.505 12.724371
56.510 13.073137
56.515 12.775554
56.520 12.759457
56.525 12.857924
56.530 12.680878
56.535 12.550638
56.540 12.178646
56.545 11.989153
56.550 11.70406
56.555 11.433918
56.560 11.89384
56.565 12.318702
56.570 12.636126
56.575 12.945089
56.580 13.139433
56.585 13.628104
56.590 13.436129
56.595 12.940669
56.600 12.971457
56.605 12.575913
56.610 12.338598
56.615 11.703366
56.620 11.157802
56.625 11.255673
56.630 10.977093
56.635 10.843358
56.640 10.76029
56.645 10.873906
56.650 11.187635
56.655 11.595221
56.660 12.002497
56.665 12.476608
56.670 12.695668
56.675 13.331776
56.680 13.646103
56.685 13.795903
56.690 13.717634
56.695 12.977014
56.700 12.706972
56.705 12.715854
56.710 12.433487
56.715 12.133464
56.720 12.050687
56.725 12.369906
56.730 13.037592
56.735 12.995827
56.740 12.692579
56.745 12.38973
56.750 12.920118
56.755 12.950181
56.760 12.81763
56.765 12.759189
56.770 12.615458
56.775 12.961018
56.780 13.195389
56.785 12.828445
56.790 12.637094
56.795 13.00648
56.800 13.080695
56.805 12.741046
56.810 11.859122
56.815 11.165539
56.820 11.092637
56.825 10.989218
56.830 10.12873
56.835 10.279113
56.840 11.40661
56.845 12.270516
56.850 12.719813
56.855 12.909492
56.860 12.847866
56.865 13.0643
56.870 12.721502
56.875 12.583794
56.880 12.569305
56.885 12.519612
56.890 12.099078
56.895 11.824867
56.900 12.179392
56.905 12.02074
56.910 11.390204
56.915 11.84166
56.920 12.177411
56.925 12.367089
56.930 12.360539
56.935 12.372859
56.940 12.650585
56.945 12.843345
56.950 12.33099
56.955 12.256041
56.960 12.680553
56.965 13.182699
56.970 13.187203
56.975 13.096134
56.980 13.331914
56.985 13.604714
56.990 13.247319
56.995 12.60311
57.000 12.494034
57.005 12.828667
57.010 12.415518
57.015 12.081794
57.020 11.75038
57.025 12.295712
57.030 12.69556
57.035 12.155352
57.040 11.519511
57.045 11.544592
57.050 12.055862
57.055 12.456323
57.060 12.205842
57.065 12.115759
57.070 12.294973
57.075 13.185855
57.080 13.611267
57.085 12.9702
57.090 13.016424
57.095 12.552599
57.100 12.401619
57.105 12.497078
57.110 12.147174
57.115 12.134158
57.120 12.01871
57.125 11.828771
57.130 12.223404
57.135 12.264883
57.140 12.653596
57.145 12.653371
57.150 12.382867
57.155 12.742267
57.160 12.754186
57.165 12.701732
57.170 12.861463
57.175 12.352816
57.180 12.517847
57.185 12.953492
57.190 13.00018
57.195 13.737546
57.200 13.745529
57.205 13.509669
57.210 13.814977
57.215 13.836147
57.220 13.02449
57.225 12.950637
57.230 12.325002
57.235 12.155359
57.240 12.27767
57.245 11.860839
57.250 11.358792
57.255 12.355556
57.260 12.470684
57.265 12.747938
57.270 13.521497
57.275 13.440886
57.280 13.504109
57.285 14.105353
57.290 13.245729
57.295 13.00258
57.300 12.759829
57.305 12.060199
57.310 12.561258
57.315 13.257742
57.320 13.152617
57.325 13.435685
57.330 13.979644
57.335 14.215502
57.340 14.586332
57.345 14.100706
57.350 13.849633
57.355 13.478341
57.360 13.244208
57.365 13.387921
57.370 13.632662
57.375 13.566528
57.380 13.839772
57.385 13.957519
57.390 14.060429
57.395 14.284242
57.400 14.147628
57.405 13.960633
57.410 14.171782
57.415 14.181718
57.420 14.442487
57.425 14.433204
57.430 14.202265
57.435 13.773535
57.440 13.580753
57.445 13.518906
57.450 13.336472
57.455 13.449961
57.460 13.769988
57.465 13.915994
57.470 14.054557
57.475 14.106004
57.480 14.182656
57.485 14.142447
57.490 13.834882
57.495 13.582335
57.500 13.213406
57.505 13.747958
57.510 14.06419
57.515 13.496902
57.520 12.866537
57.525 12.776082
57.530 12.91475
57.535 13.004417
57.540 12.356011
57.545 11.998683
57.550 12.296813
57.555 13.201153
57.560 13.563621
57.565 13.772823
57.570 13.678685
57.575 13.628392
57.580 13.767287
57.585 13.829184
57.590 12.845516
57.595 12.450911
57.600 13.308772
57.605 13.171953
57.610 12.998251
57.615 13.084115
57.620 13.251966
57.625 13.63065
57.630 13.45092
57.635 13.095213
57.640 14.220057
57.645 14.696145
57.650 14.913341
57.655 15.31166
57.660 15.652869
57.665 16.030958
57.670 15.434373
57.675 14.918838
57.680 14.39298
57.685 14.274325
57.690 14.059582
57.695 14.145071
57.700 14.0537
57.705 14.51345
57.710 14.577694
57.715 14.9049
57.720 15.458337
57.725 15.514765
57.730 15.041639
57.735 14.901601
57.740 15.03477
57.745 15.076635
57.750 15.554504
57.755 15.177712
57.760 14.937251
57.765 15.294339
57.770 15.588972
57.775 15.369862
57.780 15.017766
57.785 14.502411
57.790 14.505062
57.795 14.269289
57.800 14.353463
57.805 14.610147
57.810 14.840455
57.815 15.388928
57.820 15.813642
57.825 15.900385
57.830 16.727142
57.835 17.026882
57.840 16.477345
57.845 16.157257
57.850 15.491849
57.855 15.082438
57.860 15.093301
57.865 14.449205
57.870 14.102457
57.875 14.255441
57.880 14.822909
57.885 14.941284
57.890 14.904541
57.895 14.880689
57.900 14.864918
57.905 15.206407
57.910 14.715507
57.915 14.058904
57.920 14.098943
57.925 14.228799
57.930 14.300006
57.935 14.155145
57.940 13.755979
57.945 13.695377
57.950 13.680854
57.955 13.48477
57.960 13.332763
57.965 13.838923
57.970 14.242451
57.975 14.833488
57.980 15.242832
57.985 15.674348
57.990 16.322699
57.995 16.561424
58.000 16.381172
58.005 16.071911
58.010 15.911243
58.015 16.204075
58.020 16.224022
58.025 15.822424
58.030 15.702815
58.035 15.834833
58.040 16.436182
58.045 16.276194
58.050 15.834441
58.055 15.543129
58.060 15.645418
58.065 15.053788
58.070 14.522603
58.075 14.27253
58.080 14.476578
58.085 14.926878
58.090 14.976051
58.095 14.958531
58.100 15.445715
58.105 15.723309
58.110 15.822262
58.115 15.809661
58.120 15.45588
58.125 15.204523
58.130 14.824755
58.135 15.170238
58.140 15.723528
58.145 16.188818
58.150 16.723228
58.155 17.49765
58.160 17.802465
58.165 18.232208
58.170 18.210541
58.175 17.230509
58.180 16.566715
58.185 15.786862
58.190 15.630445
58.195 15.865478
58.200 15.68511
58.205 15.852715
58.210 16.443928
58.215 17.095465
58.220 17.517611
58.225 17.480717
58.230 17.625933
58.235 17.360149
58.240 17.041733
58.245 16.654215
58.250 15.974813
58.255 15.931908
58.260 15.82606
58.265 15.766038
58.270 16.026281
58.275 16.315826
58.280 16.94799
58.285 17.800346
58.290 18.336004
58.295 18.295561
58.300 18.719503
58.305 18.987984
58.310 18.755384
58.315 18.703827
58.320 18.318924
58.325 18.208664
58.330 18.840996
58.335 18.988344
58.340 18.817146
58.345 19.33967
58.350 18.80829
58.355 18.806322
58.360 18.982241
58.365 18.713484
58.370 19.202551
58.375 19.111824
58.380 18.759829
58.385 19.94099
58.390 20.466782
58.395 21.089598
58.400 21.679974
58.405 21.444284
58.410 22.23344
58.415 22.789709
58.420 23.13637
58.425 23.023968
58.430 22.831572
58.435 22.966812
58.440 23.146765
58.445 23.596985
58.450 23.48468
58.455 23.222946
58.460 22.865473
58.465 22.510317
58.470 22.526333
58.475 22.952702
58.480 22.955826
58.485 23.394213
58.490 24.041512
58.495 25.174213
58.500 25.21043
58.505 25.790123
58.510 26.111603
58.515 26.750917
58.520 27.265148
58.525 27.862535
58.530 28.438015
58.535 29.67264
58.540 29.542118
58.545 29.557375
58.550 29.696989
58.555 29.783817
58.560 30.193729
58.565 30.777979
58.570 30.932764
58.575 31.130182
58.580 30.799093
58.585 30.687859
58.590 30.72423
58.595 31.109797
58.600 31.005341
58.605 31.655628
58.610 32.406826
58.615 32.997589
58.620 33.37241
58.625 33.706593
58.630 33.970795
58.635 33.856564
58.640 34.3134
58.645 34.168533
58.650 33.962383
58.655 34.505569
58.660 34.412819
58.665 34.263874
58.670 34.677067
58.675 33.926052
58.680 34.211609
58.685 34.894318
58.690 35.286972
58.695 36.946789
58.700 36.540821
58.705 35.894936
58.710 36.334904
58.715 36.027546
58.720 35.897156
58.725 35.091553
58.730 33.682861
58.735 33.739113
58.740 33.295498
58.745 32.317879
58.750 31.797802
58.755 30.834105
58.760 30.92374
58.765 29.741722
58.770 29.294376
58.775 29.269192
58.780 28.559814
58.785 28.204111
58.790 27.95384
58.795 28.063162
58.800 28.882059
58.805 29.021133
58.810 28.665613
58.815 29.01255
58.820 29.159876
58.825 28.784418
58.830 27.84564
58.835 26.979324
58.840 26.426775
58.845 26.150591
58.850 25.659271
58.855 25.574829
58.860 25.317272
58.865 24.878408
58.870 24.134125
58.875 23.647417
58.880 23.689745
58.885 24.408611
58.890 23.994406
58.895 23.943541
58.900 23.512133
58.905 23.069094
58.910 23.280706
58.915 23.121037
58.920 22.090111
58.925 21.646927
58.930 21.155678
58.935 20.997723
58.940 20.728626
58.945 20.942583
58.950 20.384436
58.955 20.17626
58.960 19.880503
58.965 19.712065
58.970 19.8398
58.975 20.054054
58.980 19.536821
58.985 19.31344
58.990 19.075298
58.995 18.732325
59.000 18.581316
59.005 18.224421
59.010 17.791367
59.015 17.127914
59.020 17.130089
59.025 17.778086
59.030 18.008429
59.035 18.296835
59.040 18.636829
59.045 18.389776
59.050 18.281538
59.055 18.094414
59.060 17.534069
59.065 17.610441
59.070 17.376972
59.075 17.079565
59.080 16.983055
59.085 17.421707
59.090 17.54538
59.095 17.767921
59.100 17.521975
59.105 17.263798
59.110 17.1276
59.115 16.48522
59.120 15.585676
59.125 15.29175
59.130 15.039895
59.135 15.34988
59.140 15.233398
59.145 15.468882
59.150 15.707528
59.155 16.019625
59.160 15.932302
59.165 16.150631
59.170 16.101204
59.175 15.807596
59.180 15.398451
59.185 15.219485
59.190 15.368648
59.195 15.423304
59.200 14.867661
59.205 14.819084
59.210 15.032791
59.215 15.019512
59.220 15.209975
59.225 14.893059
59.230 14.67646
59.235 14.696202
59.240 14.858851
59.245 15.236101
59.250 14.921498
59.255 14.544647
59.260 14.597061
59.265 14.401982
59.270 14.528322
59.275 13.859531
59.280 13.57015
59.285 14.277781
59.290 15.341843
59.295 16.259726
59.300 16.42487
59.305 16.060781
59.310 16.072376
59.315 16.525267
59.320 16.346647
59.325 15.649182
59.330 15.042945
59.335 15.58922
59.340 15.827857
59.345 15.956137
59.350 15.454246
59.355 14.917233
59.360 15.005576
59.365 14.894641
59.370 14.891962
59.375 15.362806
59.380 15.342015
59.385 15.09032
59.390 15.496961
59.395 16.151367
59.400 16.892752
59.405 16.440474
59.410 16.397385
59.415 16.868961
59.420 17.220987
59.425 16.876162
59.430 16.120579
59.435 15.330108
59.440 15.416443
59.445 15.243924
59.450 14.679549
59.455 14.975745
59.460 15.155725
59.465 15.535311
59.470 15.869614
59.475 16.227758
59.480 16.593716
59.485 16.720987
59.490 16.503403
59.495 16.007225
59.500 15.637197
59.505 15.036516
59.510 14.65415
59.515 14.068501
59.520 13.519423
59.525 13.41411
59.530 13.198854
59.535 12.885053
59.540 13.245668
59.545 12.85064
59.550 13.098056
59.555 13.944676
59.560 14.487071
59.565 14.900344
59.570 15.342732
59.575 15.036217
59.580 15.104444
59.585 15.33351
59.590 15.151826
59.595 14.87263
59.600 14.697098
59.605 14.668954
59.610 15.001045
59.615 14.982025
59.620 14.856634
59.625 15.152986
59.630 15.239663
59.635 15.459981
59.640 15.182963
59.645 15.486549
59.650 15.670667
59.655 15.186817
59.660 14.494085
59.665 14.281256
59.670 14.175567
59.675 14.599814
59.680 14.237035
59.685 14.640815
59.690 15.397403
59.695 15.420553
59.700 16.081009
59.705 16.626266
59.710 16.576487
59.715 16.47192
59.720 16.1264
59.725 15.866485
59.730 16.24646
59.735 15.37409
59.740 14.659522
59.745 14.787588
59.750 15.421531
59.755 15.663123
59.760 15.993848
59.765 16.202148
59.770 16.432644
59.775 16.349886
59.780 15.600633
59.785 14.9626
59.790 15.118914
59.795 14.811213
59.800 14.669724
59.805 14.628794
59.810 14.940301
59.815 15.571712
59.820 15.514069
59.825 15.106681
59.830 15.322151
59.835 15.563423
59.840 15.596766
59.845 15.398874
59.850 15.10993
59.855 15.002262
59.860 14.895301
59.865 14.753
59.870 14.536024
59.875 14.320395
59.880 14.324169
59.885 14.203482
59.890 14.277346
59.895 14.06831
59.900 13.632275
59.905 13.594867
59.910 13.755719
59.915 13.986531
59.920 14.350947
59.925 14.237892
59.930 14.46414
59.935 14.513458
59.940 14.229504
59.945 13.598431
59.950 13.57281
59.955 13.552141
59.960 14.17307
59.965 13.757173
59.970 14.002496
59.975 14.273057
59.980 14.59117
59.985 14.675465
59.990 15.172593
59.995 15.399678
60.000 15.920555
60.005 15.757315
60.010 15.866968
60.015 16.415726
60.020 16.495487
60.025 15.898648
60.030 15.161885
60.035 14.587618
60.040 15.384451
60.045 16.021564
60.050 15.760979
60.055 15.461456
60.060 15.335594
60.065 16.040331
60.070 16.552097
60.075 16.366766
60.080 15.981697
60.085 16.210073
60.090 16.48946
60.095 16.7952
60.100 16.758003
60.105 16.426693
60.110 15.957169
60.115 16.071621
60.120 16.184515
60.125 16.380217
60.130 16.097052
60.135 16.289246
60.140 16.545826
60.145 16.678192
60.150 16.614561
60.155 16.172338
60.160 15.777308
60.165 15.597004
60.170 15.494431
60.175 15.145786
60.180 14.907876
60.185 14.456403
60.190 14.21362
60.195 14.084138
60.200 13.997235
60.205 14.262554
60.210 14.226683
60.215 14.72115
60.220 14.79276
60.225 15.031921
60.230 15.175852
60.235 15.24041
60.240 14.827498
60.245 14.965159
60.250 14.526208
60.255 14.828951
60.260 14.719877
60.265 14.411107
60.270 14.13202
60.275 13.992661
60.280 13.580807
60.285 13.584243
60.290 13.532205
60.295 13.839199
60.300 13.720356
60.305 13.395831
60.310 13.149516
60.315 13.466449
60.320 13.707863
60.325 13.517775
60.330 13.33624
60.335 13.775373
60.340 13.892761
60.345 13.821985
60.350 13.547041
60.355 13.132648
60.360 12.757315
60.365 12.831011
60.370 13.036897
60.375 13.41414
60.380 13.932569
60.385 14.195473
60.390 14.437334
60.395 15.188919
60.400 15.210597
60.405 15.102566
60.410 15.524251
60.415 15.778087
60.420 15.737361
60.425 15.634269
60.430 15.606927
60.435 15.435682
60.440 15.118773
60.445 14.583594
60.450 14.45755
60.455 14.30269
60.460 14.025698
60.465 13.491776
60.470 13.860509
60.475 14.533276
60.480 15.24207
60.485 15.020697
60.490 14.956506
60.495 15.426891
60.500 16.054667
60.505 16.131374
60.510 15.704504
60.515 14.745025
60.520 14.591193
60.525 14.672156
60.530 14.78441
60.535 14.486737
60.540 14.56865
60.545 14.419895
60.550 14.98742
60.555 15.200569
60.560 15.260371
60.565 15.350794
60.570 15.362329
60.575 15.505644
60.580 15.985647
60.585 16.078907
60.590 16.220018
60.595 16.538548
60.600 16.562258
60.605 16.495869
60.610 16.25563
60.615 15.943672
60.620 15.753742
60.625 15.617375
60.630 15.379507
60.635 15.241747
60.640 15.055902
60.645 15.140531
60.650 15.342731
60.655 15.125942
60.660 15.216605
60.665 15.017887
60.670 14.921818
60.675 15.319698
60.680 15.085355
60.685 15.323376
60.690 15.567295
60.695 15.442923
60.700 15.383987
60.705 15.290976
60.710 15.152416
60.715 15.36692
60.720 14.993844
60.725 15.0301
60.730 14.845902
60.735 14.624426
60.740 14.138229
60.745 13.571063
60.750 13.333886
60.755 13.460065
60.760 13.515307
60.765 14.167698
60.770 15.000902
60.775 15.741256
60.780 16.446726
60.785 16.87785
60.790 16.98024
60.795 16.718225
60.800 16.205315
60.805 16.438717
60.810 16.504494
60.815 16.416016
60.820 15.509979
60.825 15.27607
60.830 15.479183
60.835 15.721097
60.840 15.415191
60.845 15.116642
60.850 14.716975
60.855 14.976067
60.860 14.935046
60.865 15.155454
60.870 14.668406
60.875 14.391599
60.880 14.369416
60.885 14.361382
60.890 14.896811
60.895 14.64234
60.900 14.244658
60.905 14.840446
60.910 15.095504
60.915 15.025386
60.920 15.712359
60.925 15.706841
60.930 16.006472
60.935 16.016972
60.940 15.56601
60.945 15.367499
60.950 16.058352
60.955 15.500728
60.960 15.469915
60.965 15.282975
60.970 15.336376
60.975 15.289798
60.980 15.428756
60.985 14.614453
60.990 14.53896
60.995 13.983955
61.000 13.973989
61.005 13.812147
61.010 13.594971
61.015 13.677436
61.020 14.190202
61.025 14.56951
61.030 14.8451
61.035 15.044814
61.040 15.451879
61.045 15.608331
61.050 15.392017
61.055 15.008365
61.060 14.814655
61.065 15.052973
61.070 15.44814
61.075 16.122057
61.080 16.616819
61.085 17.040754
61.090 17.448469
61.095 18.28553
61.100 18.567766
61.105 17.855906
61.110 17.161074
61.115 16.666882
61.120 16.297859
61.125 15.690107
61.130 14.755035
61.135 14.217386
61.140 15.072528
61.145 15.739824
61.150 15.664051
61.155 15.767701
61.160 15.990995
61.165 16.469614
61.170 16.665361
61.175 15.882952
61.180 15.157488
61.185 14.960576
61.190 14.936743
61.195 14.868794
61.200 15.290977
61.205 15.670059
61.210 15.778385
61.215 15.885271
61.220 16.173178
61.225 16.16205
61.230 16.031179
61.235 15.337902
61.240 14.739812
61.245 14.83736
61.250 15.190956
61.255 15.303388
61.260 15.597465
61.265 16.285667
61.270 16.523947
61.275 17.181841
61.280 17.361731
61.285 17.079498
61.290 17.142946
61.295 16.969967
61.300 17.239351
61.305 16.95245
61.310 16.454947
61.315 16.354336
61.320 16.656784
61.325 16.583357
61.330 16.649628
61.335 16.498501
61.340 16.290157
61.345 15.926118
61.350 16.007843
61.355 16.01144
61.360 16.00198
61.365 16.010855
61.370 16.098579
61.375 16.162754
61.380 16.31443
61.385 15.877539
61.390 15.535148
61.395 15.235002
61.400 14.747325
61.405 14.243062
61.410 14.667212
61.415 14.881313
61.420 15.032945
61.425 15.096541
61.430 15.154853
61.435 15.360581
61.440 15.149768
61.445 15.082274
61.450 15.63735
61.455 15.567227
61.460 15.653908
61.465 15.907161
61.470 16.671089
61.475 17.161674
61.480 17.421204
61.485 16.763941
61.490 16.55649
61.495 16.417553
61.500 16.440144
61.505 15.90419
61.510 15.619497
61.515 15.538685
61.520 15.335919
61.525 15.818393
61.530 16.163404
61.535 15.845817
61.540 15.878335
61.545 16.364315
61.550 16.714256
61.555 17.5776
61.560 17.417818
61.565 16.90119
61.570 17.378073
61.575 17.298264
61.580 16.688307
61.585 15.925685
61.590 15.332065
61.595 15.194368
61.600 15.515826
61.605 15.313251
61.610 15.643078
61.615 15.571103
61.620 15.831021
61.625 15.956305
61.630 16.178854
61.635 15.652503
61.640 15.098113
61.645 14.719664
61.650 14.64043
61.655 14.551246
61.660 14.033321
61.665 13.755464
61.670 13.928787
61.675 14.332618
61.680 14.255904
61.685 14.699047
61.690 15.245478
61.695 15.923604
61.700 16.292488
61.705 16.570269
61.710 16.542536
61.715 16.938667
61.720 16.946465
61.725 16.483671
61.730 15.8312
61.735 15.71801
61.740 15.414113
61.745 15.507222
61.750 15.414469
61.755 15.109108
61.760 15.52097
61.765 16.369352
61.770 16.872789
61.775 16.7132
61.780 16.574287
61.785 16.448492
61.790 16.583252
61.795 16.478659
61.800 15.442636
61.805 15.223906
61.810 15.796013
61.815 16.026325
61.820 16.487957
61.825 16.898733
61.830 17.163342
61.835 17.337507
61.840 17.096123
61.845 16.566975
61.850 15.729477
61.855 15.780777
61.860 15.272002
61.865 15.663165
61.870 16.098484
61.875 16.896162
61.880 17.860987
61.885 18.373158
61.890 17.62969
61.895 17.746624
61.900 17.276436
61.905 17.366142
61.910 17.069574
61.915 17.07102
61.920 17.441164
61.925 17.940718
61.930 17.618275
61.935 17.615765
61.940 17.188713
61.945 16.657166
61.950 15.817142
61.955 15.236834
61.960 14.342432
61.965 14.272102
61.970 14.412769
61.975 14.210235
61.980 14.168175
61.985 15.102248
61.990 15.51964
61.995 16.003674
62.000 16.079851
62.005 16.039511
62.010 16.364143
62.015 16.360615
62.020 15.623847
62.025 15.525857
62.030 16.094631
62.035 16.542809
62.040 16.972082
62.045 17.422466
62.050 17.66629
62.055 18.193087
62.060 18.253689
62.065 17.761177
62.070 17.205654
62.075 16.910011
62.080 16.775324
62.085 16.670139
62.090 16.155567
62.095 15.83353
62.100 16.180784
62.105 16.466648
62.110 16.614367
62.115 16.975798
62.120 17.609661
62.125 18.178516
62.130 18.426765
62.135 18.347288
62.140 18.043737
62.145 17.447626
62.150 16.692822
62.155 16.620211
62.160 16.863178
62.165 17.733658
62.170 18.465841
62.175 18.8456
62.180 19.125505
62.185 18.690447
62.190 17.872801
62.195 17.162416
62.200 16.037386
62.205 15.462413
62.210 15.738053
62.215 15.930152
62.220 16.23527
62.225 16.770809
62.230 16.963184
62.235 17.067368
62.240 16.436417
62.245 16.066635
62.250 16.250851
62.255 16.349342
62.260 16.264164
62.265 16.484442
62.270 16.190176
62.275 16.795376
62.280 16.67783
62.285 16.505606
62.290 16.080147
62.295 15.702391
62.300 15.384293
62.305 15.419051
62.310 15.278201
62.315 15.25054
62.320 15.367275
62.325 16.172068
62.330 16.496664
62.335 16.695898
62.340 16.885334
62.345 16.985605
62.350 16.981815
62.355 16.902225
62.360 16.60672
62.365 16.178377
62.370 16.336449
62.375 16.361435
62.380 15.785528
62.385 15.254388
62.390 14.833147
62.395 14.576962
62.400 15.468906
62.405 15.444977
62.410 16.241274
62.415 17.343407
62.420 18.104044
62.425 18.021763
62.430 17.825689
62.435 17.376192
62.440 17.303455
62.445 16.846523
62.450 16.880117
62.455 16.65675
62.460 16.749496
62.465 17.062973
62.470 17.190296
62.475 17.313959
62.480 17.49547
62.485 17.34878
62.490 17.203346
62.495 17.268263
62.500 17.191055
62.505 17.020245
62.510 16.869797
62.515 16.587946
62.520 16.491777
62.525 16.256128
62.530 16.338324
62.535 16.508173
62.540 16.288752
62.545 16.056843
62.550 15.706656
62.555 16.085711
62.560 16.826517
62.565 16.473528
62.570 16.135897
62.575 15.918059
62.580 16.015106
62.585 16.341095
62.590 15.936563
62.595 15.947637
62.600 16.153986
62.605 16.260345
62.610 16.734951
62.615 16.651855
62.620 16.350927
62.625 16.347416
62.630 16.06167
62.635 16.451078
62.640 16.45792
62.645 16.456921
62.650 16.863617
62.655 16.703976
62.660 17.34375
62.665 17.085285
62.670 17.119856
62.675 17.884756
62.680 17.982136
62.685 17.952858
62.690 17.841583
62.695 17.392326
62.700 17.882992
62.705 17.222561
62.710 16.792799
62.715 16.987951
62.720 16.957506
62.725 17.771433
62.730 17.805681
62.735 17.243916
62.740 17.815132
62.745 18.018709
62.750 17.732548
62.755 17.163157
62.760 15.706681
62.765 16.005064
62.770 16.09519
62.775 15.590566
62.780 14.796171
62.785 14.643312
62.790 15.126398
62.795 15.790526
62.800 15.710292
62.805 15.847492
62.810 16.35034
62.815 16.403395
62.820 16.389523
62.825 16.49287
62.830 16.837675
62.835 16.713524
62.840 16.796606
62.845 17.0954
62.850 17.228588
62.855 16.856152
62.860 16.309126
62.865 15.581965
62.870 15.26594
62.875 15.283947
62.880 14.756337
62.885 15.191024
62.890 15.509333
62.895 16.258663
62.900 17.259039
62.905 17.659477
62.910 17.687979
62.915 17.997532
62.920 18.022778
62.925 18.178333
62.930 18.047922
62.935 17.605457
62.940 17.095617
62.945 16.603706
62.950 16.332224
62.955 16.44622
62.960 16.312111
62.965 15.834881
62.970 15.465594
62.975 15.866805
62.980 16.109091
62.985 16.341103
62.990 16.688049
62.995 16.880463
63.000 17.462164
63.005 17.858984
63.010 17.991982
63.015 17.687471
63.020 17.306
63.025 17.286394
63.030 16.626762
63.035 16.45479
63.040 15.949366
63.045 15.491499
63.050 15.80875
63.055 16.052242
63.060 15.889297
63.065 16.598461
63.070 16.788883
63.075 16.899321
63.080 17.71171
63.085 17.413357
63.090 17.246365
63.095 17.308041
63.100 17.100582
63.105 16.573805
63.110 16.981298
63.115 16.808561
63.120 16.878992
63.125 16.424585
63.130 16.271711
63.135 16.087929
63.140 16.741899
63.145 16.18894
63.150 15.999987
63.155 16.05234
63.160 16.055281
63.165 16.412115
63.170 16.711243
63.175 16.696449
63.180 16.729935
63.185 16.953327
63.190 17.085886
63.195 17.230045
63.200 16.711649
63.205 16.297724
63.210 16.097185
63.215 15.993605
63.220 15.999021
63.225 15.776857
63.230 15.524527
63.235 15.925466
63.240 15.762099
63.245 16.076925
63.250 16.248795
63.255 15.920327
63.260 16.216373
63.265 15.81402
63.270 15.091414
63.275 15.628669
63.280 15.244533
63.285 15.65801
63.290 15.880698
63.295 15.606063
63.300 16.387108
63.305 16.631556
63.310 16.458447
63.315 16.48093
63.320 16.148827
63.325 16.477501
63.330 16.679632
63.335 16.097109
63.340 15.985936
63.345 16.189606
63.350 15.906007
63.355 15.718654
63.360 14.906207
63.365 14.529956
63.370 14.700036
63.375 15.293965
63.380 15.373239
63.385 15.687177
63.390 16.3197
63.395 16.547472
63.400 17.117893
63.405 17.427132
63.410 17.010778
63.415 17.252907
63.420 17.069548
63.425 17.428015
63.430 18.209673
63.435 18.497602
63.440 19.109297
63.445 19.56391
63.450 19.298107
63.455 19.596054
63.460 18.875185
63.465 18.230665
63.470 18.411543
63.475 18.026073
63.480 17.379997
63.485 17.161758
63.490 16.81214
63.495 16.793427
63.500 17.274813
63.505 17.050236
63.510 17.155851
63.515 17.403608
63.520 17.208105
63.525 17.19705
63.530 17.486603
63.535 17.600912
63.540 17.472101
63.545 17.048477
63.550 17.531713
63.555 17.908262
63.560 18.204296
63.565 18.149137
63.570 18.346558
63.575 18.89901
63.580 19.648809
63.585 19.640335
63.590 19.339405
63.595 19.077053
63.600 19.088041
63.605 18.651064
63.610 17.934219
63.615 16.979294
63.620 16.931719
63.625 17.661873
63.630 17.517357
63.635 17.429647
63.640 17.389515
63.645 17.902308
63.650 18.296968
63.655 18.024176
63.660 17.334152
63.665 18.225754
63.670 18.061588
63.675 17.642815
63.680 17.502878
63.685 17.972626
63.690 17.589638
63.695 17.534233
63.700 17.445326
63.705 17.367296
63.710 17.478809
63.715 17.427563
63.720 17.584129
63.725 18.435385
63.730 18.919464
63.735 18.757101
63.740 19.011271
63.745 19.230024
63.750 19.00856
63.755 18.823854
63.760 18.10071
63.765 17.859781
63.770 17.580891
63.775 17.09967
63.780 16.738716
63.785 16.598293
63.790 16.399715
63.795 16.229122
63.800 16.174339
63.805 16.555927
63.810 17.164881
63.815 17.350462
63.820 17.927338
63.825 18.006844
63.830 18.232985
63.835 18.428823
63.840 18.689997
63.845 18.890623
63.850 18.970083
63.855 18.580435
63.860 18.310043
63.865 18.636253
63.870 18.870987
63.875 18.697309
63.880 18.553747
63.885 18.949999
63.890 19.454018
63.895 19.918417
63.900 19.929817
63.905 19.912487
63.910 20.105547
63.915 19.793827
63.920 19.104479
63.925 19.346338
63.930 19.046078
63.935 18.877117
63.940 19.248947
63.945 19.110542
63.950 18.819181
63.955 19.108158
63.960 18.874319
63.965 19.302679
63.970 18.933899
63.975 19.153618
63.980 19.957132
63.985 21.184572
63.990 22.071033
63.995 22.978287
64.000 23.227968
64.005 23.708506
64.010 23.591156
64.015 23.741264
64.020 23.774818
64.025 23.398252
64.030 23.167904
64.035 23.251955
64.040 23.095699
64.045 23.354404
64.050 23.988018
64.055 23.791149
64.060 23.221699
64.065 23.153513
64.070 23.912203
64.075 24.40937
64.080 24.094334
64.085 23.598778
64.090 23.880253
64.095 24.358755
64.100 24.576645
64.105 24.346128
64.110 25.12261
64.115 25.673267
64.120 26.610947
64.125 26.959812
64.130 27.28438
64.135 27.543312
64.140 27.606829
64.145 27.066429
64.150 26.973511
64.155 26.948088
64.160 27.628864
64.165 28.214542
64.170 29.429728
64.175 30.066572
64.180 30.65291
64.185 31.2796
64.190 31.712847
64.195 31.697714
64.200 31.605471
64.205 31.265818
64.210 31.561703
64.215 31.943268
64.220 32.37347
64.225 33.083076
64.230 33.820786
64.235 34.535194
64.240 35.092594
64.245 35.326836
64.250 35.635448
64.255 35.882111
64.260 36.065662
64.265 37.136482
64.270 37.228531
64.275 36.617615
64.280 37.491924
64.285 37.982391
64.290 38.88356
64.295 39.033855
64.300 38.714676
64.305 39.580482
64.310 40.895798
64.315 40.595615
64.320 41.054207
64.325 41.772598
64.330 42.608784
64.335 43.51889
64.340 43.546852
64.345 43.440941
64.350 44.247581
64.355 44.399166
64.360 44.878307
64.365 45.093239
64.370 44.771477
64.375 44.993652
64.380 46.501301
64.385 46.751057
64.390 46.463642
64.395 46.264061
64.400 46.159225
64.405 47.206581
64.410 47.523529
64.415 46.678661
64.420 46.923729
64.425 47.035133
64.430 46.360069
64.435 46.462986
64.440 45.97707
64.445 44.958233
64.450 44.562344
64.455 44.32198
64.460 43.669689
64.465 44.092102
64.470 43.351597
64.475 42.976479
64.480 43.062359
64.485 43.473164
64.490 43.671566
64.495 44.65678
64.500 44.107487
64.505 44.142776
64.510 44.568638
64.515 44.349255
64.520 43.316856
64.525 42.593418
64.530 41.283546
64.535 39.786198
64.540 39.588669
64.545 39.189163
64.550 38.902069
64.555 38.34317
64.560 37.979591
64.565 37.504864
64.570 37.492771
64.575 36.156261
64.580 35.127499
64.585 34.454891
64.590 33.732368
64.595 32.831146
64.600 33.191444
64.605 32.774426
64.610 32.834267
64.615 32.61916
64.620 32.997311
64.625 32.433311
64.630 31.937021
64.635 31.310568
64.640 31.425295
64.645 31.422148
64.650 30.743872
64.655 29.854155
64.660 30.20812
64.665 30.309629
64.670 29.222885
64.675 27.82091
64.680 27.309322
64.685 27.136808
64.690 26.143055
64.695 25.59392
64.700 24.909964
64.705 24.764973
64.710 24.866613
64.715 24.898405
64.720 24.84848
64.725 25.263763
64.730 25.131598
64.735 24.730309
64.740 24.202578
64.745 23.070089
64.750 22.512976
64.755 22.477825
64.760 22.569824
64.765 22.710592
64.770 23.768473
64.775 24.750084
64.780 25.241514
64.785 25.559933
64.790 25.105396
64.795 24.32469
64.800 23.880655
64.805 23.326359
64.810 23.115515
64.815 23.176012
64.820 22.763769
64.825 22.701656
64.830 23.071362
64.835 22.867851
64.840 22.605486
64.845 22.035063
64.850 21.417034
64.855 21.431585
64.860 21.585161
64.865 21.787209
64.870 22.381531
64.875 22.731707
64.880 22.722223
64.885 22.889175
64.890 22.912184
64.895 22.734947
64.900 22.526814
64.905 22.041298
64.910 21.353086
64.915 21.4492
64.920 21.293839
64.925 21.045691
64.930 21.552338
64.935 21.564272
64.940 22.108196
64.945 22.636869
64.950 22.869762
64.955 23.238451
64.960 23.429689
64.965 23.493507
64.970 23.881886
64.975 23.840534
64.980 24.024141
64.985 24.154991
64.990 24.290905
64.995 24.852919
65.000 25.296173
65.005 25.362566
65.010 25.903862
65.015 25.822498
65.020 26.977291
65.025 27.713076
65.030 28.145231
65.035 27.945362
65.040 28.503136
65.045 29.671797
65.050 30.243338
65.055 30.05566
65.060 29.580976
65.065 29.224838
65.070 29.808372
65.075 29.700405
65.080 29.096502
65.085 29.177559
65.090 28.422153
65.095 28.314596
65.100 28.112522
65.105 28.731985
65.110 28.753618
65.115 28.135815
65.120 28.133863
65.125 29.336239
65.130 30.165878
65.135 30.739338
65.140 30.197962
65.145 29.836681
65.150 30.817768
65.155 31.065424
65.160 30.95928
65.165 31.409544
65.170 31.366829
65.175 31.671562
65.180 32.504913
65.185 32.272171
65.190 31.978838
65.195 32.796394
65.200 32.586296
65.205 33.164959
65.210 32.909584
65.215 33.226074
65.220 33.265793
65.225 33.893707
65.230 33.268154
65.235 33.137753
65.240 33.283543
65.245 33.609413
65.250 33.744431
65.255 33.63356
65.260 33.492256
65.265 33.667
65.270 34.090698
65.275 34.386169
65.280 34.662369
65.285 34.657295
65.290 34.612125
65.295 34.726784
65.300 34.984783
65.305 34.687038
65.310 34.685734
65.315 35.019043
65.320 34.861908
65.325 34.797562
65.330 34.839088
65.335 34.922646
65.340 34.52121
65.345 34.201023
65.350 33.300724
65.355 33.840889
65.360 33.685818
65.365 33.596386
65.370 32.8908
65.375 33.138569
65.380 32.855003
65.385 33.05608
65.390 32.571812
65.395 33.01366
65.400 33.20974
65.405 33.6087
65.410 34.048481
65.415 34.384701
65.420 35.092464
65.425 35.352543
65.430 35.354782
65.435 35.731579
65.440 36.041466
65.445 35.940308
65.450 35.220596
65.455 34.67868
65.460 34.703457
65.465 34.33215
65.470 34.269539
65.475 35.491699
65.480 36.240799
65.485 36.755322
65.490 36.760406
65.495 37.146652
65.500 38.165241
65.505 37.830032
65.510 37.248291
65.515 36.89397
65.520 36.827316
65.525 36.70612
65.530 36.990437
65.535 36.569656
65.540 37.300289
65.545 36.869244
65.550 38.075756
65.555 38.655495
65.560 39.406143
65.565 39.020199
65.570 39.043972
65.575 38.467285
65.580 38.40237
65.585 37.301838
65.590 36.54195
65.595 35.946976
65.600 36.561752
65.605 37.234604
65.610 37.287388
65.615 37.249779
65.620 38.135258
65.625 38.742157
65.630 38.518089
65.635 38.19017
65.640 37.57515
65.645 37.683929
65.650 38.181999
65.655 37.523277
65.660 37.32571
65.665 37.525524
65.670 37.500763
65.675 37.905327
65.680 38.015266
65.685 37.664139
65.690 37.946644
65.695 38.766922
65.700 38.511826
65.705 37.814259
65.710 37.438145
65.715 37.746754
65.720 38.125977
65.725 38.37748
65.730 37.413773
65.735 37.548294
65.740 38.341072
65.745 38.775837
65.750 38.167595
65.755 37.099335
65.760 36.797943
65.765 37.601902
65.770 37.481659
65.775 36.722694
65.780 36.144821
65.785 35.665203
65.790 35.703022
65.795 35.11964
65.800 34.95546
65.805 34.81049
65.810 34.519699
65.815 34.842564
65.820 35.554672
65.825 35.866699
65.830 35.582901
65.835 34.256882
65.840 34.452648
65.845 34.773571
65.850 34.155628
65.855 33.497284
65.860 32.608795
65.865 32.235607
65.870 32.330002
65.875 32.392643
65.880 31.871502
65.885 31.494183
65.890 30.811235
65.895 30.538742
65.900 30.899731
65.905 30.673412
65.910 30.358725
65.915 30.08847
65.920 29.602692
65.925 29.349569
65.930 29.450581
65.935 28.950102
65.940 28.440964
65.945 28.493835
65.950 28.409088
65.955 27.938213
65.960 27.582138
65.965 27.064335
65.970 27.100498
65.975 26.503115
65.980 25.757229
65.985 25.658461
65.990 25.022938
65.995 23.608944
66.000 23.216061
66.005 22.830172
66.010 22.914436
66.015 22.529596
66.020 22.718964
66.025 23.022738
66.030 23.778931
66.035 23.551907
66.040 23.028938
66.045 22.948898
66.050 22.55323
66.055 21.995581
66.060 21.752972
66.065 21.016636
66.070 20.794441
66.075 20.996595
66.080 20.719017
66.085 20.850176
66.090 20.642275
66.095 20.629593
66.100 21.034872
66.105 20.927942
66.110 21.495977
66.115 21.806656
66.120 21.239922
66.125 21.813515
66.130 21.992985
66.135 22.439993
66.140 22.307384
66.145 21.301155
66.150 20.888865
66.155 20.950167
66.160 20.470194
66.165 19.94665
66.170 18.509127
66.175 18.249416
66.180 18.20171
66.185 17.958357
66.190 17.887556
66.195 17.75345
66.200 17.756248
66.205 18.434227
66.210 18.473049
66.215 18.524977
66.220 18.581244
66.225 18.731655
66.230 18.678181
66.235 18.884636
66.240 18.39616
66.245 18.890524
66.250 18.857346
66.255 18.989597
66.260 18.940687
66.265 18.931208
66.270 18.257
66.275 18.092524
66.280 17.512596
66.285 17.203321
66.290 17.39887
66.295 17.287666
66.300 17.146364
66.305 17.650026
66.310 18.215868
66.315 18.153942
66.320 17.905758
66.325 17.489887
66.330 17.17951
66.335 17.03636
66.340 16.521944
66.345 16.169001
66.350 16.948103
66.355 17.012362
66.360 17.212517
66.365 17.850834
66.370 18.171562
66.375 18.207447
66.380 17.651405
66.385 16.986036
66.390 17.199299
66.395 17.830196
66.400 17.997025
66.405 17.993366
66.410 18.117859
66.415 18.440065
66.420 18.758097
66.425 18.603861
66.430 17.952572
66.435 17.797165
66.440 17.434698
66.445 18.127138
66.450 18.603149
66.455 18.315817
66.460 18.555565
66.465 18.445923
66.470 18.667528
66.475 18.701262
66.480 17.823219
66.485 17.406441
66.490 17.905121
66.495 18.225767
66.500 18.769684
66.505 18.855965
66.510 18.996939
66.515 19.070749
66.520 19.261581
66.525 19.01713
66.530 18.741173
66.535 17.801163
66.540 16.979322
66.545 17.352966
66.550 18.262676
66.555 18.484165
66.560 18.270741
66.565 18.217876
66.570 18.976873
66.575 19.476004
66.580 19.44747
66.585 18.663225
66.590 18.135681
66.595 18.377901
66.600 18.108278
66.605 17.892784
66.610 18.079494
66.615 17.70005
66.620 17.683821
66.625 17.637476
66.630 17.810007
66.635 18.131191
66.640 17.910616
66.645 17.760273
66.650 18.201912
66.655 18.690998
66.660 19.196795
66.665 18.740587
66.670 18.891235
66.675 19.028988
66.680 19.362862
66.685 19.140409
66.690 18.772062
66.695 18.174791
66.700 18.139603
66.705 18.190681
66.710 18.033163
66.715 17.728628
66.720 17.964043
66.725 17.983667
66.730 18.250515
66.735 18.506933
66.740 18.250948
66.745 18.119316
66.750 18.080112
66.755 17.635334
66.760 17.797466
66.765 17.364975
66.770 17.079031
66.775 17.159512
66.780 16.928684
66.785 16.372925
66.790 16.43782
66.795 15.86445
66.800 16.686954
66.805 17.4447
66.810 17.550457
66.815 18.286707
66.820 18.792814
66.825 19.450478
66.830 20.128283
66.835 19.663782
66.840 19.23863
66.845 18.634441
66.850 18.050299
66.855 17.949503
66.860 17.281103
66.865 16.55389
66.870 16.292891
66.875 16.861053
66.880 17.071609
66.885 17.115124
66.890 16.68137
66.895 17.224344
66.900 18.000942
66.905 17.941139
66.910 17.396809
66.915 17.497124
66.920 17.548479
66.925 17.736061
66.930 17.508005
66.935 17.526096
66.940 16.973951
66.945 17.251009
66.950 17.405632
66.955 17.500034
66.960 17.752138
66.965 17.333815
66.970 17.705072
66.975 18.312197
66.980 18.328722
66.985 18.279041
66.990 18.297253
66.995 18.814714
67.000 18.95133
67.005 18.349964
67.010 18.219124
67.015 18.458908
67.020 18.647038
67.025 18.878859
67.030 18.462345
67.035 18.906315
67.040 19.542723
67.045 19.234982
67.050 18.356043
67.055 17.789087
67.060 17.755529
67.065 17.807089
67.070 17.006741
67.075 16.518896
67.080 16.909678
67.085 17.811016
67.090 18.475607
67.095 18.30051
67.100 17.970213
67.105 18.51655
67.110 18.985004
67.115 19.31288
67.120 19.477949
67.125 19.167423
67.130 19.290329
67.135 19.424101
67.140 19.344267
67.145 18.990616
67.150 18.344511
67.155 17.955383
67.160 17.896547
67.165 17.856859
67.170 18.145206
67.175 18.485989
67.180 18.874214
67.185 18.881016
67.190 18.956968
67.195 19.065905
67.200 18.824938
67.205 18.953871
67.210 18.727165
67.215 18.264669
67.220 18.221415
67.225 17.864777
67.230 17.804399
67.235 18.141788
67.240 17.639917
67.245 17.261848
67.250 17.148504
67.255 17.560951
67.260 17.618761
67.265 18.093792
67.270 18.155359
67.275 18.468399
67.280 18.615973
67.285 19.193438
67.290 19.042431
67.295 19.09305
67.300 18.947203
67.305 18.673267
67.310 18.682013
67.315 18.72971
67.320 18.238144
67.325 17.837696
67.330 17.80621
67.335 17.65061
67.340 17.806383
67.345 17.96196
67.350 17.790493
67.355 17.949131
67.360 18.807135
67.365 18.796383
67.370 18.407215
67.375 17.556572
67.380 17.269043
67.385 17.228081
67.390 17.450827
67.395 17.177395
67.400 17.363886
67.405 17.660688
67.410 17.901884
67.415 18.055883
67.420 18.037386
67.425 17.634651
67.430 17.178968
67.435 16.802872
67.440 16.87188
67.445 17.092039
67.450 17.297689
67.455 17.129841
67.460 17.21599
67.465 17.707365
67.470 17.696695
67.475 18.085234
67.480 18.126764
67.485 18.161196
67.490 18.356392
67.495 18.188957
67.500 17.723854
67.505 18.085073
67.510 17.957233
67.515 18.218014
67.520 18.018934
67.525 17.870983
67.530 17.754915
67.535 18.231083
67.540 18.221748
67.545 18.074228
67.550 17.683918
67.555 17.145378
67.560 17.496866
67.565 17.697819
67.570 17.561768
67.575 17.701595
67.580 17.590158
67.585 18.302031
67.590 19.083252
67.595 18.70372
67.600 19.138063
67.605 18.842978
67.610 18.339472
67.615 18.428675
67.620 18.078318
67.625 17.910334
67.630 17.524708
67.635 17.223278
67.640 17.137466
67.645 17.621094
67.650 18.102404
67.655 18.453564
67.660 18.472635
67.665 18.955591
67.670 18.2495
67.675 18.660852
67.680 18.570438
67.685 17.940857
67.690 17.312733
67.695 16.892548
67.700 16.654774
67.705 16.963013
67.710 16.585396
67.715 16.444334
67.720 16.379744
67.725 16.335001
67.730 16.878963
67.735 17.297955
67.740 17.987402
67.745 18.324133
67.750 18.60144
67.755 18.99029
67.760 19.034399
67.765 19.202452
67.770 19.300631
67.775 18.844841
67.780 18.729958
67.785 18.254065
67.790 18.45924
67.795 18.430656
67.800 17.675713
67.805 17.288654
67.810 17.354935
67.815 17.138376
67.820 17.436195
67.825 17.17721
67.830 17.60408
67.835 18.023205
67.840 18.138762
67.845 18.058546
67.850 18.080008
67.855 17.60813
67.860 17.471146
67.865 17.26281
67.870 17.246752
67.875 17.549173
67.880 17.356653
67.885 17.557028
67.890 17.858738
67.895 17.920338
67.900 18.148451
67.905 17.739799
67.910 17.430176
67.915 17.828331
67.920 18.718542
67.925 18.398876
67.930 18.248512
67.935 18.433939
67.940 18.881622
67.945 19.32934
67.950 19.121725
67.955 18.630016
67.960 19.008217
67.965 19.499905
67.970 19.671732
67.975 19.537355
67.980 19.511168
67.985 19.31217
67.990 18.999273
67.995 18.430395
68.000 17.951792
68.005 17.510937
68.010 17.266741
68.015 17.199291
68.020 17.728415
68.025 18.231499
68.030 18.756998
68.035 18.923759
68.040 19.156361
68.045 19.378111
68.050 19.831928
68.055 19.449938
68.060 19.261545
68.065 19.053007
68.070 19.336393
68.075 19.235647
68.080 19.391027
68.085 19.192835
68.090 19.183205
68.095 19.126789
68.100 19.182373
68.105 18.895477
68.110 18.818726
68.115 18.039871
68.120 17.75989
68.125 17.903557
68.130 17.726015
68.135 17.552944
68.140 17.980259
68.145 18.455605
68.150 19.127565
68.155 19.040077
68.160 19.164541
68.165 19.493858
68.170 19.60615
68.175 19.792849
68.180 19.813597
68.185 19.373173
68.190 19.519142
68.195 19.504166
68.200 19.534889
68.205 19.815826
68.210 19.833288
68.215 20.501238
68.220 20.902079
68.225 21.093863
68.230 21.175978
68.235 21.088924
68.240 21.019323
68.245 20.520674
68.250 20.290451
68.255 20.476631
68.260 21.181677
68.265 21.46452
68.270 22.082201
68.275 22.252096
68.280 22.167042
68.285 22.484795
68.290 22.463415
68.295 22.065466
68.300 22.453608
68.305 22.701416
68.310 23.11323
68.315 23.300983
68.320 23.2897
68.325 24.170588
68.330 24.461111
68.335 24.246216
68.340 23.713156
68.345 24.379377
68.350 25.182898
68.355 24.486664
68.360 23.532873
68.365 22.58238
68.370 22.838718
68.375 23.099762
68.380 22.968401
68.385 22.790455
68.390 24.030685
68.395 24.842695
68.400 25.271284
68.405 25.677252
68.410 26.047199
68.415 25.935282
68.420 26.465481
68.425 26.794212
68.430 26.778063
68.435 27.211596
68.440 27.355841
68.445 28.145546
68.450 28.437401
68.455 27.930084
68.460 28.17915
68.465 28.814177
68.470 29.135582
68.475 29.103674
68.480 28.492271
68.485 28.297068
68.490 28.725574
68.495 28.672735
68.500 28.839911
68.505 28.487467
68.510 28.442005
68.515 28.708702
68.520 30.224287
68.525 30.437773
68.530 30.014612
68.535 30.570156
68.540 30.913603
68.545 31.227192
68.550 30.967564
68.555 29.718578
68.560 29.52503
68.565 29.56665
68.570 29.928038
68.575 29.991289
68.580 29.403585
68.585 29.46566
68.590 29.79631
68.595 30.329565
68.600 30.923067
68.605 30.643318
68.610 31.43322
68.615 31.51298
68.620 32.381474
68.625 33.698036
68.630 34.106239
68.635 33.744385
68.640 33.532104
68.645 33.322346
68.650 33.735001
68.655 32.536083
68.660 31.547575
68.665 30.805208
68.670 30.215294
68.675 29.933559
68.680 29.636904
68.685 30.54714
68.690 31.655329
68.695 31.837208
68.700 32.570152
68.705 32.857872
68.710 33.390507
68.715 33.818718
68.720 33.646286
68.725 33.36578
68.730 32.783138
68.735 32.669685
68.740 33.075203
68.745 32.89526
68.750 32.491531
68.755 32.476341
68.760 33.48085
68.765 34.291096
68.770 34.295094
68.775 34.262596
68.780 34.737541
68.785 35.04995
68.790 35.157219
68.795 35.123245
68.800 34.387188
68.805 34.446495
68.810 34.902603
68.815 34.767826
68.820 34.551224
68.825 34.596275
68.830 34.673592
68.835 35.155914
68.840 35.698658
68.845 35.481537
68.850 35.037498
68.855 34.362621
68.860 33.505177
68.865 32.776524
68.870 33.206947
68.875 32.561752
68.880 32.138458
68.885 32.275974
68.890 32.084759
68.895 32.318535
68.900 33.309731
68.905 33.296349
68.910 33.489429
68.915 33.497158
68.920 34.207188
68.925 34.720291
68.930 34.038284
68.935 33.690853
68.940 33.072598
68.945 32.865032
68.950 32.66288
68.955 32.940331
68.960 33.325291
68.965 33.3424
68.970 33.015297
68.975 33.327389
68.980 33.509357
68.985 33.555676
68.990 33.173374
68.995 32.618946
69.000 31.958767
69.005 32.026684
69.010 31.22788
69.015 30.873163
69.020 30.675869
69.025 30.504919
69.030 31.244518
69.035 31.673552
69.040 30.821871
69.045 30.693672
69.050 30.882523
69.055 30.99365
69.060 30.801432
69.065 30.523542
69.070 29.784473
69.075 29.900286
69.080 29.653358
69.085 29.702797
69.090 29.04059
69.095 28.653215
69.100 28.922731
69.105 29.320126
69.110 29.401997
69.115 29.229393
69.120 28.612375
69.125 28.93948
69.130 28.345406
69.135 27.717001
69.140 27.531727
69.145 26.960999
69.150 26.695423
69.155 26.037687
69.160 25.498428
69.165 26.044771
69.170 26.130255
69.175 25.972452
69.180 25.681726
69.185 25.676502
69.190 26.138956
69.195 25.543139
69.200 24.959181
69.205 24.998343
69.210 24.998339
69.215 25.212742
69.220 24.780588
69.225 24.8088
69.230 25.010536
69.235 24.28311
69.240 23.148085
69.245 22.494551
69.250 22.171776
69.255 21.792028
69.260 21.602728
69.265 21.917103
69.270 22.527613
69.275 23.182905
69.280 22.963778
69.285 22.666882
69.290 23.141079
69.295 22.963531
69.300 22.589354
69.305 22.243557
69.310 22.003714
69.315 22.218822
69.320 21.562044
69.325 21.008659
69.330 20.619543
69.335 20.983126
69.340 20.475912
69.345 20.351765
69.350 20.322237
69.355 21.274315
69.360 21.38208
69.365 21.155228
69.370 20.58016
69.375 20.185873
69.380 19.710611
69.385 19.528728
69.390 19.716484
69.395 19.979683
69.400 20.409164
69.405 21.087414
69.410 21.558872
69.415 21.956129
69.420 21.54917
69.425 20.750208
69.430 20.568489
69.435 19.763662
69.440 19.287197
69.445 19.438187
69.450 18.91613
69.455 18.999966
69.460 19.106239
69.465 18.909582
69.470 19.255089
69.475 18.918442
69.480 18.481987
69.485 18.530714
69.490 18.613035
69.495 19.025452
69.500 19.550955
69.505 19.409063
69.510 19.407093
69.515 19.980705
69.520 20.355923
69.525 20.138697
69.530 19.566935
69.535 18.770603
69.540 18.859646
69.545 19.034349
69.550 18.476124
69.555 18.413218
69.560 18.567537
69.565 18.953465
69.570 19.365189
69.575 19.692791
69.580 19.109344
69.585 19.065067
69.590 18.949224
69.595 18.790068
69.600 18.85144
69.605 18.736727
69.610 18.14122
69.615 18.560661
69.620 18.168041
69.625 17.827726
69.630 17.276581
69.635 17.523159
69.640 18.281904
69.645 18.456556
69.650 18.468752
69.655 18.937183
69.660 19.365463
69.665 19.751276
69.670 19.122835
69.675 18.549849
69.680 18.642942
69.685 18.052351
69.690 17.893894
69.695 17.802706
69.700 18.104229
69.705 18.210928
69.710 18.437515
69.715 18.644255
69.720 19.056732
69.725 19.158195
69.730 19.028439
69.735 18.251982
69.740 18.365932
69.745 18.126984
69.750 18.032391
69.755 17.706123
69.760 17.74807
69.765 17.763954
69.770 17.560486
69.775 17.544964
69.780 17.333694
69.785 17.712099
69.790 18.227671
69.795 18.248558
69.800 18.065214
69.805 18.101835
69.810 17.937233
69.815 17.89979
69.820 17.882111
69.825 17.437584
69.830 17.507196
69.835 18.649136
69.840 19.216898
69.845 19.756788
69.850 20.0804
69.855 19.883688
69.860 19.590485
69.865 18.683319
69.870 17.698729
69.875 18.022062
69.880 17.702332
69.885 17.138746
69.890 17.009699
69.895 17.259821
69.900 17.736263
69.905 17.944576
69.910 17.521002
69.915 17.420288
69.920 17.684641
69.925 17.714127
69.930 17.465612
69.935 17.7612
69.940 17.545185
69.945 17.769547
69.950 18.566679
69.955 18.808182
69.960 18.570755
69.965 18.790955
69.970 18.953072
69.975 18.229277
69.980 18.021397
69.985 17.567261
69.990 17.508236
69.995 18.108896
70.000 18.245268
70.005 17.797688
70.010 18.242243
70.015 17.791927
70.020 17.987947
70.025 18.122959
70.030 18.056692
70.035 17.874752
70.040 18.255812
70.045 18.566669
70.050 18.687159
70.055 18.338972
70.060 18.423922
70.065 18.060078
70.070 17.701231
70.075 17.728069
70.080 17.531399
70.085 17.613214
70.090 17.535765
70.095 17.523113
70.100 17.907354
70.105 18.2892
70.110 18.205006
70.115 18.252453
70.120 18.314831
70.125 18.649696
70.130 18.596453
70.135 18.436638
70.140 18.76433
70.145 18.472307
70.150 18.319433
70.155 18.281193
70.160 17.787382
70.165 17.843391
70.170 17.610634
70.175 16.905212
70.180 17.239197
70.185 17.476097
70.190 17.644266
70.195 17.815006
70.200 17.518969
70.205 17.537672
70.210 18.008614
70.215 17.583
70.220 17.757093
70.225 17.530632
70.230 17.603075
70.235 17.642691
70.240 18.14151
70.245 17.952419
70.250 18.057747
70.255 17.863483
70.260 17.451084
70.265 16.757813
70.270 16.621782
70.275 16.664551
70.280 16.966946
70.285 17.122608
70.290 16.994228
70.295 17.346334
70.300 18.060484
70.305 18.180391
70.310 18.171623
70.315 18.013165
70.320 17.686201
70.325 17.695803
70.330 17.382061
70.335 16.733208
70.340 16.171648
70.345 15.55486
70.350 15.553214
70.355 15.689035
70.360 15.86349
70.365 15.948729
70.370 16.095112
70.375 16.704062
70.380 16.993986
70.385 17.405228
70.390 17.84285
70.395 17.950848
70.400 18.476536
70.405 18.910431
70.410 19.15233
70.415 19.397524
70.420 18.894247
70.425 17.955753
70.430 18.02
70.435 18.431313
70.440 18.524071
70.445 17.555204
70.450 16.866014
70.455 17.495003
70.460 17.898094
70.465 17.627769
70.470 17.131443
70.475 16.9118
70.480 17.127195
70.485 16.603802
70.490 16.294792
70.495 16.164139
70.500 16.12426
70.505 16.36408
70.510 16.331093
70.515 15.889858
70.520 16.241026
70.525 16.535547
70.530 17.27598
70.535 16.578968
70.540 16.358727
70.545 17.15547
70.550 18.007481
70.555 18.63846
70.560 18.684338
70.565 18.584702
70.570 19.101852
70.575 19.066673
70.580 19.070358
70.585 19.285814
70.590 18.870337
70.595 18.166605
70.600 18.370031
70.605 18.157103
70.610 18.778128
70.615 18.28195
70.620 18.107496
70.625 18.692873
70.630 19.18638
70.635 18.999981
70.640 19.251175
70.645 19.17836
70.650 19.586367
70.655 19.524567
70.660 18.991861
70.665 18.854782
70.670 18.868746
70.675 18.163462
70.680 17.628361
70.685 17.102163
70.690 16.810148
70.695 17.17527
70.700 17.259075
70.705 17.345385
70.710 17.825844
70.715 18.183495
70.720 18.765356
70.725 18.725544
70.730 18.733826
70.735 18.365841
70.740 18.275711
70.745 17.94227
70.750 17.61146
70.755 17.606211
70.760 17.447145
70.765 17.200832
70.770 17.17803
70.775 17.435791
70.780 17.446686
70.785 17.648836
70.790 17.974316
70.795 18.108353
70.800 18.27977
70.805 17.929195
70.810 17.610952
70.815 17.85985
70.820 18.191547
70.825 18.368814
70.830 18.72546
70.835 19.113317
70.840 19.803707
70.845 20.09161
70.850 20.267166
70.855 20.391823
70.860 20.28717
70.865 20.456984
70.870 20.239922
70.875 20.177828
70.880 19.857052
70.885 19.132429
70.890 18.896629
70.895 18.357704
70.900 18.299433
70.905 18.216618
70.910 17.92701
70.915 17.706594
70.920 18.002783
70.925 17.716198
70.930 17.644196
70.935 17.581287
70.940 17.968357
70.945 17.978798
70.950 18.283607
70.955 18.568926
70.960 19.047743
70.965 19.074026
70.970 18.903248
70.975 18.629629
70.980 18.246017
70.985 17.640097
70.990 17.06834
70.995 16.696247
71.000 16.468004
71.005 16.528128
71.010 17.233824
71.015 17.539598
71.020 17.961086
71.025 17.968435
71.030 17.954336
71.035 17.568521
71.040 17.053505
71.045 16.557207
71.050 16.574684
71.055 16.830994
71.060 16.551773
71.065 16.574339
71.070 17.478434
71.075 17.692778
71.080 17.865995
71.085 18.075819
71.090 18.289526
71.095 18.462374
71.100 19.149988
71.105 19.095991
71.110 19.041533
71.115 18.947428
71.120 18.628609
71.125 17.973207
71.130 18.451517
71.135 18.009398
71.140 18.216349
71.145 18.476606
71.150 18.739931
71.155 19.271559
71.160 19.012318
71.165 18.532749
71.170 18.910185
71.175 18.683346
71.180 18.401485
71.185 17.699011
71.190 17.338474
71.195 17.513964
71.200 17.029764
71.205 16.895592
71.210 17.506157
71.215 17.664503
71.220 17.861364
71.225 17.879723
71.230 17.971577
71.235 17.968609
71.240 17.562832
71.245 16.798018
71.250 16.59277
71.255 16.36442
71.260 16.427708
71.265 16.460835
71.270 15.853986
71.275 15.844756
71.280 16.876396
71.285 17.219604
71.290 17.383083
71.295 17.697632
71.300 17.980965
71.305 18.03828
71.310 18.138376
71.315 17.821568
71.320 17.467009
71.325 17.166981
71.330 16.73562
71.335 17.230541
71.340 17.7799
71.345 17.741938
71.350 17.902205
71.355 18.213009
71.360 18.273424
71.365 18.52693
71.370 18.086443
71.375 17.717176
71.380 17.797832
71.385 18.26967
71.390 17.905281
71.395 17.769344
71.400 17.893911
71.405 17.804115
71.410 17.769342
71.415 17.435455
71.420 17.079956
71.425 17.96829
71.430 17.9452
71.435 18.056139
71.440 18.492538
71.445 18.381872
71.450 18.778603
71.455 18.733242
71.460 18.138363
71.465 18.294405
71.470 18.488247
71.475 17.979145
71.480 18.275064
71.485 17.924828
71.490 17.845993
71.495 18.141891
71.500 17.737293
71.505 17.524181
71.510 17.914688
71.515 17.783941
71.520 17.680552
71.525 17.736719
71.530 18.133316
71.535 18.350817
71.540 17.812296
71.545 17.974316
71.550 17.999426
71.555 17.708822
71.560 17.481606
71.565 17.043211
71.570 17.333036
71.575 17.609514
71.580 16.902788
71.585 16.732849
71.590 17.198278
71.595 17.304932
71.600 16.94425
71.605 16.544212
71.610 16.619516
71.615 16.710773
71.620 17.120621
71.625 17.208323
71.630 17.322861
71.635 17.922956
71.640 18.637304
71.645 18.629087
71.650 18.475586
71.655 17.693993
71.660 17.132034
71.665 17.547543
71.670 16.743828
71.675 16.449913
71.680 16.583706
71.685 16.727728
71.690 16.887871
71.695 16.96974
71.700 16.58379
71.705 16.840313
71.710 16.745981
71.715 16.864712
71.720 17.46526
71.725 18.07654
71.730 18.069036
71.735 18.114698
71.740 18.124844
71.745 18.087526
71.750 17.61442
71.755 17.104273
71.760 16.7631
71.765 16.621733
71.770 16.891535
71.775 16.826571
71.780 17.269588
71.785 17.613688
71.790 17.836798
71.795 18.544098
71.800 19.0471
71.805 19.486111
71.810 20.006359
71.815 20.087292
71.820 20.272589
71.825 19.953665
71.830 19.510393
71.835 19.013697
71.840 18.866312
71.845 18.962265
71.850 18.411484
71.855 18.457945
71.860 18.294918
71.865 18.485703
71.870 18.177744
71.875 17.306993
71.880 17.076845
71.885 16.980993
71.890 16.851297
71.895 16.843151
71.900 16.989187
71.905 17.455526
71.910 17.189184
71.915 16.939711
71.920 17.225941
71.925 16.894747
71.930 16.327023
71.935 16.017344
71.940 16.009153
71.945 16.619669
71.950 16.659763
71.955 16.352509
71.960 16.107698
71.965 16.350393
71.970 16.39859
71.975 15.954601
71.980 15.305553
71.985 15.51542
71.990 15.52374
71.995 15.818759
72.000 16.131281
72.005 16.416069
72.010 17.146606
72.015 17.798517
72.020 18.435263
72.025 19.138937
72.030 19.432512
72.035 19.368317
72.040 18.579966
72.045 17.95887
72.050 17.625782
72.055 17.295162
72.060 17.046188
72.065 16.791536
72.070 17.136703
72.075 17.474592
72.080 17.129158
72.085 17.386196
72.090 17.565031
72.095 17.496788
72.100 17.580698
72.105 17.70262
72.110 18.341835
72.115 18.68284
72.120 17.991566
72.125 17.849548
72.130 17.766726
72.135 17.295013
72.140 17.024183
72.145 16.647213
72.150 16.530184
72.155 16.885195
72.160 16.969299
72.165 17.011456
72.170 17.443424
72.175 17.509399
72.180 17.458433
72.185 17.105268
72.190 17.162893
72.195 17.06629
72.200 17.013268
72.205 16.889669
72.210 16.955544
72.215 16.795773
72.220 16.714247
72.225 17.020449
72.230 17.070181
72.235 17.603771
72.240 17.965456
72.245 17.737734
72.250 18.640253
72.255 18.753855
72.260 18.761255
72.265 19.276983
72.270 18.760838
72.275 18.610777
72.280 19.034502
72.285 18.102585
72.290 17.933014
72.295 17.766134
72.300 17.222397
72.305 17.306433
72.310 17.216227
72.315 17.258768
72.320 17.696836
72.325 17.492769
72.330 17.492767
72.335 17.491344
72.340 17.609825
72.345 17.609158
72.350 18.28253
72.355 18.720486
72.360 19.285461
72.365 19.673468
72.370 19.891165
72.375 19.882536
72.380 19.500029
72.385 18.635597
72.390 18.411692
72.395 18.003677
72.400 17.32888
72.405 17.005693
72.410 16.881081
72.415 17.175018
72.420 17.2362
72.425 16.165403
72.430 15.862761
72.435 15.757923
72.440 15.559169
72.445 15.682379
72.450 15.519607
72.455 15.510717
72.460 16.350321
72.465 16.878681
72.470 17.500809
72.475 17.845789
72.480 18.04781
72.485 18.006992
72.490 18.254135
72.495 17.679056
72.500 17.244631
72.505 16.975502
72.510 16.386461
72.515 16.137854
72.520 16.691269
72.525 17.041571
72.530 17.57523
72.535 17.660347
72.540 17.718864
72.545 17.61401
72.550 18.277708
72.555 18.006416
72.560 18.30538
72.565 18.021156
72.570 17.65852
72.575 17.93358
72.580 18.311205
72.585 18.240671
72.590 18.08551
72.595 17.789713
72.600 18.013826
72.605 18.735979
72.610 18.576777
72.615 18.255255
72.620 17.454088
72.625 17.049107
72.630 16.894779
72.635 16.945408
72.640 16.558886
72.645 16.619003
72.650 15.787251
72.655 15.981684
72.660 16.577824
72.665 16.53788
72.670 16.191236
72.675 16.460339
72.680 16.460386
72.685 17.177811
72.690 17.29664
72.695 16.906521
72.700 17.574377
72.705 17.61315
72.710 17.161798
72.715 17.056955
72.720 16.739895
72.725 16.90181
72.730 16.459259
72.735 15.701243
72.740 16.476097
72.745 16.822784
72.750 17.232401
72.755 17.219681
72.760 17.012051
72.765 17.209673
72.770 17.063942
72.775 16.647358
72.780 16.753563
72.785 16.314402
72.790 15.895637
72.795 15.879744
72.800 16.302691
72.805 16.434393
72.810 16.104368
72.815 15.982408
72.820 16.359766
72.825 17.010229
72.830 16.975733
72.835 16.387934
72.840 16.162754
72.845 16.167807
72.850 16.11838
72.855 16.219353
72.860 16.23575
72.865 16.223774
72.870 16.333319
72.875 16.808098
72.880 16.679478
72.885 16.668232
72.890 16.814421
72.895 17.286934
72.900 17.721912
72.905 17.622784
72.910 17.724863
72.915 17.860708
72.920 17.945744
72.925 17.899025
72.930 17.334215
72.935 17.644428
72.940 17.256807
72.945 17.159853
72.950 17.215015
72.955 16.984407
72.960 16.576336
72.965 16.722931
72.970 16.085127
72.975 16.334793
72.980 16.107758
72.985 16.112917
72.990 15.503038
72.995 15.398792
73.000 15.591635
