!@!!GADDS PLOTSO FILE: Chi integration type
!@!!Title/SampleName: map-a9
!@!!Comment: ?
!@!!User: Bruker Instrument Administrator
!@!!Site: University of Illinois Chicago
!@!!Frame: map-a9_01_000.gfrm
!@!!Wavelengths    1.54184   1.54056   1.54439
!@!!Frame angles: 2Theta: 63.000 Omega: 50.000 Phi: 0.000 Chi: 90.000
!@!!Integration range: 2Theta: 53.000 to 73.000  Gamma: -105.000 to -75.000
!@!!Integration method: bin normalized
!@!N
!@!SS
!@!M
!@!L 0.0 0.0 0.0 0.0
!@!XDegrees
!@!YCounts
53.000 9.648011
53.005 9.823916
53.010 9.626816
53.015 9.632309
53.020 9.981653
53.025 10.274404
53.030 10.410579
53.035 10.467067
53.040 10.793759
53.045 11.007505
53.050 10.690465
53.055 10.511039
53.060 10.358139
53.065 10.207357
53.070 9.890099
53.075 9.444439
53.080 9.390903
53.085 9.345648
53.090 9.683794
53.095 10.196473
53.100 9.911856
53.105 10.060024
53.110 10.462972
53.115 10.538715
53.120 10.742787
53.125 10.264284
53.130 10.293641
53.135 10.395299
53.140 9.917573
53.145 9.776195
53.150 9.904317
53.155 10.204523
53.160 10.426513
53.165 9.953267
53.170 10.243295
53.175 10.69786
53.180 10.297404
53.185 10.096574
53.190 9.639298
53.195 9.679685
53.200 10.098803
53.205 10.28035
53.210 10.311339
53.215 10.297603
53.220 10.609757
53.225 10.539748
53.230 10.466243
53.235 10.265573
53.240 9.805781
53.245 9.919389
53.250 9.810743
53.255 9.490701
53.260 9.832861
53.265 10.075207
53.270 10.30572
53.275 10.574801
53.280 10.493674
53.285 10.143291
53.290 10.08927
53.295 10.166711
53.300 10.067809
53.305 9.920349
53.310 10.281304
53.315 10.573404
53.320 11.107543
53.325 10.774022
53.330 10.838613
53.335 11.168988
53.340 11.381716
53.345 11.184017
53.350 11.268771
53.355 11.065702
53.360 11.28694
53.365 10.911366
53.370 10.116601
53.375 9.984919
53.380 9.706249
53.385 9.469847
53.390 9.511613
53.395 9.02756
53.400 9.285125
53.405 9.499065
53.410 9.566085
53.415 9.394716
53.420 9.674694
53.425 9.64308
53.430 10.397373
53.435 10.64283
53.440 10.703513
53.445 11.007061
53.450 11.479142
53.455 11.533473
53.460 11.254033
53.465 10.369591
53.470 9.9772
53.475 10.129482
53.480 10.320982
53.485 10.339869
53.490 10.454943
53.495 10.657598
53.500 10.96671
53.505 10.951087
53.510 10.658811
53.515 10.443312
53.520 10.804725
53.525 11.413115
53.530 11.287898
53.535 11.334615
53.540 11.026312
53.545 11.204081
53.550 11.257245
53.555 11.131929
53.560 10.867783
53.565 11.426815
53.570 11.957138
53.575 12.204387
53.580 11.885769
53.585 11.379946
53.590 11.116042
53.595 10.744574
53.600 10.194227
53.605 10.086315
53.610 10.095204
53.615 10.193668
53.620 10.238178
53.625 10.140201
53.630 10.62851
53.635 11.19643
53.640 11.772605
53.645 11.859097
53.650 11.70187
53.655 12.073534
53.660 12.150205
53.665 12.143709
53.670 11.365059
53.675 10.865592
53.680 11.144308
53.685 11.524563
53.690 11.88947
53.695 11.823474
53.700 11.801978
53.705 11.771347
53.710 11.434315
53.715 11.356947
53.720 11.000487
53.725 10.965113
53.730 11.222262
53.735 11.787493
53.740 12.056797
53.745 11.887886
53.750 11.485772
53.755 11.306742
53.760 11.231496
53.765 11.02545
53.770 10.473036
53.775 10.299044
53.780 10.521351
53.785 10.721916
53.790 10.899519
53.795 10.834476
53.800 10.856271
53.805 11.012978
53.810 11.145827
53.815 11.33642
53.820 11.466578
53.825 11.157466
53.830 11.007415
53.835 11.366965
53.840 11.985571
53.845 12.390568
53.850 12.415637
53.855 12.562772
53.860 12.308211
53.865 12.08586
53.870 11.916609
53.875 11.844546
53.880 11.649965
53.885 11.948532
53.890 11.8754
53.895 12.274124
53.900 12.093161
53.905 11.949331
53.910 11.374398
53.915 11.058307
53.920 10.537644
53.925 10.171029
53.930 9.840877
53.935 9.628568
53.940 9.41315
53.945 9.830876
53.950 10.007668
53.955 10.298836
53.960 10.744973
53.965 11.219308
53.970 10.910197
53.975 10.994915
53.980 11.004967
53.985 11.1315
53.990 10.909837
53.995 10.588511
54.000 10.921108
54.005 11.423847
54.010 11.208566
54.015 11.337643
54.020 11.481547
54.025 11.766967
54.030 11.808905
54.035 11.653398
54.040 11.737833
54.045 12.11582
54.050 11.876849
54.055 11.443728
54.060 11.50824
54.065 11.655986
54.070 11.570646
54.075 11.38849
54.080 11.015123
54.085 11.018678
54.090 11.32424
54.095 11.278622
54.100 10.638557
54.105 11.164788
54.110 11.246948
54.115 11.939673
54.120 12.636725
54.125 12.495753
54.130 12.451963
54.135 12.876488
54.140 12.706311
54.145 12.390542
54.150 11.937451
54.155 12.008149
54.160 11.881145
54.165 11.765457
54.170 11.559509
54.175 11.33627
54.180 11.522553
54.185 11.20312
54.190 11.083053
54.195 11.473364
54.200 11.948958
54.205 11.929058
54.210 11.998808
54.215 11.916365
54.220 12.406191
54.225 12.318658
54.230 12.081537
54.235 11.964974
54.240 12.327293
54.245 12.569919
54.250 12.631539
54.255 12.096144
54.260 11.928615
54.265 11.59388
54.270 11.441175
54.275 10.829662
54.280 10.404314
54.285 10.084387
54.290 9.727934
54.295 9.925437
54.300 10.553685
54.305 11.005266
54.310 11.413824
54.315 11.606493
54.320 11.916203
54.325 12.038284
54.330 11.673811
54.335 11.433907
54.340 11.151068
54.345 11.361882
54.350 11.274289
54.355 11.296464
54.360 11.452723
54.365 11.864733
54.370 11.966558
54.375 11.97959
54.380 11.75627
54.385 11.801299
54.390 11.585959
54.395 11.806853
54.400 11.69055
54.405 11.784402
54.410 11.720007
54.415 12.019814
54.420 12.731852
54.425 13.326893
54.430 13.032166
54.435 12.931312
54.440 13.110219
54.445 13.762712
54.450 13.709125
54.455 13.280733
54.460 13.309794
54.465 13.568855
54.470 13.445764
54.475 12.830405
54.480 12.538475
54.485 12.225337
54.490 11.701031
54.495 11.638731
54.500 11.512988
54.505 11.562757
54.510 11.047915
54.515 11.129409
54.520 11.262925
54.525 11.53912
54.530 11.4698
54.535 11.317227
54.540 11.641657
54.545 11.997663
54.550 11.633993
54.555 11.602779
54.560 11.830109
54.565 11.996556
54.570 12.414365
54.575 12.528352
54.580 12.096704
54.585 12.455411
54.590 12.856856
54.595 12.525025
54.600 12.424426
54.605 12.130897
54.610 12.497299
54.615 12.096199
54.620 11.91496
54.625 11.790753
54.630 11.942684
54.635 11.859403
54.640 11.108352
54.645 11.30721
54.650 11.819414
54.655 11.509809
54.660 11.403912
54.665 10.943546
54.670 10.821424
54.675 10.738708
54.680 10.692819
54.685 11.039531
54.690 11.482882
54.695 12.089527
54.700 12.344111
54.705 12.829001
54.710 13.306086
54.715 13.142111
54.720 12.551501
54.725 11.664369
54.730 10.897162
54.735 10.832137
54.740 11.400524
54.745 11.293138
54.750 11.001373
54.755 11.232478
54.760 11.934988
54.765 12.195289
54.770 12.331348
54.775 11.656119
54.780 12.113523
54.785 12.538686
54.790 12.696749
54.795 12.730124
54.800 13.159299
54.805 13.346424
54.810 13.67187
54.815 13.460014
54.820 13.23434
54.825 13.417026
54.830 13.057849
54.835 12.652547
54.840 11.898824
54.845 12.012383
54.850 12.463922
54.855 12.36705
54.860 12.375177
54.865 12.434154
54.870 12.476838
54.875 12.419417
54.880 11.509953
54.885 11.497056
54.890 11.686516
54.895 11.620554
54.900 11.619219
54.905 11.730468
54.910 12.335475
54.915 13.26594
54.920 12.798478
54.925 12.22571
54.930 11.753195
54.935 11.736186
54.940 12.287973
54.945 12.670137
54.950 13.183121
54.955 13.967314
54.960 14.457644
54.965 15.372106
54.970 15.429118
54.975 14.996584
54.980 14.321327
54.985 13.226209
54.990 12.905935
54.995 12.772032
55.000 12.043664
55.005 12.223912
55.010 12.102747
55.015 11.79565
55.020 12.019551
55.025 12.021274
55.030 11.902559
55.035 12.388903
55.040 12.641017
55.045 12.543038
55.050 12.87701
55.055 13.090532
55.060 13.427625
55.065 13.722967
55.070 13.269423
55.075 13.165214
55.080 13.330484
55.085 13.202653
55.090 13.049728
55.095 12.813648
55.100 12.372484
55.105 12.333434
55.110 12.33135
55.115 12.352378
55.120 12.836566
55.125 12.452588
55.130 12.457029
55.135 12.633247
55.140 12.595741
55.145 12.725304
55.150 12.542257
55.155 11.987081
55.160 12.01451
55.165 12.339857
55.170 12.469308
55.175 12.62102
55.180 12.8613
55.185 13.371303
55.190 13.415218
55.195 13.038796
55.200 12.550959
55.205 12.136541
55.210 12.036912
55.215 11.80823
55.220 11.252205
55.225 11.471424
55.230 11.792541
55.235 12.151498
55.240 12.445465
55.245 12.150228
55.250 12.380911
55.255 12.649364
55.260 13.323709
55.265 13.850767
55.270 14.159832
55.275 13.608301
55.280 13.324104
55.285 13.131277
55.290 13.021201
55.295 12.285393
55.300 12.178881
55.305 12.144188
55.310 12.07218
55.315 11.960197
55.320 11.795414
55.325 11.336179
55.330 11.196717
55.335 10.974221
55.340 11.565621
55.345 12.16697
55.350 12.040689
55.355 12.457239
55.360 13.435183
55.365 13.952328
55.370 13.942261
55.375 14.021582
55.380 14.709255
55.385 15.066899
55.390 14.665163
55.395 14.648332
55.400 14.377799
55.405 14.305037
55.410 13.954411
55.415 13.806882
55.420 13.816749
55.425 13.770149
55.430 13.320223
55.435 13.209934
55.440 13.268812
55.445 13.013899
55.450 13.134315
55.455 13.223286
55.460 13.573677
55.465 13.333436
55.470 13.558541
55.475 13.549475
55.480 13.680407
55.485 13.395518
55.490 13.310691
55.495 13.337964
55.500 13.121156
55.505 13.222507
55.510 13.276066
55.515 13.030804
55.520 13.68132
55.525 13.518122
55.530 13.174376
55.535 13.762336
55.540 13.38583
55.545 13.452234
55.550 13.368515
55.555 12.683893
55.560 12.444543
55.565 12.82247
55.570 12.648893
55.575 13.022779
55.580 12.929523
55.585 12.710217
55.590 12.627631
55.595 12.868652
55.600 12.721399
55.605 13.401867
55.610 14.017426
55.615 14.210522
55.620 14.554436
55.625 14.867971
55.630 15.217871
55.635 14.955968
55.640 13.622819
55.645 12.863949
55.650 12.545321
55.655 12.605227
55.660 12.745583
55.665 12.198961
55.670 12.41852
55.675 12.535357
55.680 12.459091
55.685 12.65703
55.690 12.325397
55.695 12.200904
55.700 12.661241
55.705 12.753643
55.710 12.470203
55.715 12.500462
55.720 12.501645
55.725 12.833094
55.730 12.758409
55.735 12.099159
55.740 12.016566
55.745 12.3207
55.750 12.362679
55.755 12.734412
55.760 12.462079
55.765 12.321662
55.770 12.66331
55.775 12.862852
55.780 12.708453
55.785 12.66987
55.790 12.329016
55.795 12.809759
55.800 12.974472
55.805 13.008125
55.810 12.805019
55.815 12.915299
55.820 13.23248
55.825 12.828022
55.830 12.531865
55.835 12.885302
55.840 13.173533
55.845 13.421145
55.850 13.504564
55.855 13.603016
55.860 13.945015
55.865 13.761911
55.870 13.38544
55.875 13.374584
55.880 13.535151
55.885 13.849314
55.890 13.696151
55.895 14.027283
55.900 13.957445
55.905 14.300922
55.910 14.624483
55.915 14.65849
55.920 15.051327
55.925 14.849827
55.930 14.693479
55.935 14.83261
55.940 14.177485
55.945 14.152899
55.950 14.02712
55.955 13.533441
55.960 13.339957
55.965 12.788393
55.970 13.267588
55.975 13.382715
55.980 13.354001
55.985 12.654461
55.990 12.561995
55.995 12.774719
56.000 13.112477
56.005 12.587743
56.010 12.514646
56.015 12.702641
56.020 13.270928
56.025 13.482865
56.030 13.622687
56.035 13.927464
56.040 14.550772
56.045 14.579143
56.050 14.379907
56.055 14.036609
56.060 14.31215
56.065 14.61735
56.070 14.193233
56.075 13.608163
56.080 13.797112
56.085 14.131386
56.090 14.357715
56.095 14.10763
56.100 13.576259
56.105 13.870867
56.110 14.022382
56.115 13.399589
56.120 12.863004
56.125 12.707457
56.130 12.540689
56.135 12.621909
56.140 12.528831
56.145 12.909753
56.150 13.2724
56.155 13.407828
56.160 13.656199
56.165 13.862455
56.170 14.079804
56.175 14.234056
56.180 13.884007
56.185 13.833285
56.190 14.016494
56.195 14.299702
56.200 14.278498
56.205 14.208088
56.210 14.165464
56.215 14.251053
56.220 14.27656
56.225 13.789956
56.230 13.610179
56.235 13.309283
56.240 13.658104
56.245 14.076543
56.250 13.998013
56.255 14.201512
56.260 14.452605
56.265 14.88635
56.270 15.235528
56.275 14.805582
56.280 14.549365
56.285 14.807672
56.290 14.864109
56.295 14.649067
56.300 14.304574
56.305 14.083464
56.310 14.038231
56.315 14.676662
56.320 14.478804
56.325 14.81075
56.330 14.962179
56.335 14.447348
56.340 14.691065
56.345 14.61456
56.350 13.982886
56.355 14.198317
56.360 13.997526
56.365 14.511112
56.370 15.013147
56.375 14.733428
56.380 14.800982
56.385 15.119593
56.390 14.746434
56.395 14.600133
56.400 14.601847
56.405 14.56331
56.410 14.978002
56.415 15.19758
56.420 15.160427
56.425 15.335152
56.430 15.147777
56.435 15.212698
56.440 15.292319
56.445 15.03817
56.450 14.259197
56.455 13.666907
56.460 14.238805
56.465 14.206596
56.470 14.07111
56.475 14.273272
56.480 14.607078
56.485 15.025036
56.490 15.813339
56.495 15.543807
56.500 15.318622
56.505 15.536156
56.510 15.143482
56.515 15.094419
56.520 15.496946
56.525 15.574925
56.530 15.562435
56.535 15.852023
56.540 15.59333
56.545 15.97888
56.550 16.286829
56.555 15.678594
56.560 15.281209
56.565 15.36783
56.570 15.229313
56.575 15.376311
56.580 15.082159
56.585 14.669746
56.590 15.147622
56.595 15.194581
56.600 15.086977
56.605 15.458773
56.610 15.229649
56.615 15.493032
56.620 15.152235
56.625 14.407083
56.630 14.447495
56.635 14.413101
56.640 14.289396
56.645 13.987701
56.650 14.116638
56.655 15.09508
56.660 15.276659
56.665 14.842462
56.670 14.227153
56.675 14.540584
56.680 14.535728
56.685 14.517638
56.690 14.254552
56.695 14.928891
56.700 15.154215
56.705 14.935951
56.710 14.383562
56.715 14.14954
56.720 13.861366
56.725 13.557831
56.730 12.538655
56.735 12.201347
56.740 12.954377
56.745 13.225175
56.750 13.593706
56.755 13.944701
56.760 14.355494
56.765 14.874655
56.770 15.403608
56.775 15.654087
56.780 15.878391
56.785 16.232166
56.790 15.986588
56.795 15.380902
56.800 15.540474
56.805 14.901553
56.810 14.262094
56.815 14.613439
56.820 14.313035
56.825 14.474418
56.830 14.564266
56.835 14.716788
56.840 15.234194
56.845 15.15191
56.850 14.250821
56.855 13.602358
56.860 13.317125
56.865 13.360487
56.870 13.241643
56.875 13.285138
56.880 13.331471
56.885 13.733659
56.890 14.647278
56.895 15.28553
56.900 15.149055
56.905 15.097517
56.910 14.801543
56.915 14.736172
56.920 14.528319
56.925 13.963913
56.930 13.687389
56.935 13.460232
56.940 12.804683
56.945 13.158372
56.950 13.420255
56.955 14.128385
56.960 14.226133
56.965 13.971192
56.970 14.460769
56.975 15.26464
56.980 14.931436
56.985 14.601573
56.990 14.138456
56.995 14.044496
57.000 14.185292
57.005 13.992771
57.010 14.25752
57.015 14.697914
57.020 14.863943
57.025 14.357298
57.030 14.248557
57.035 14.276661
57.040 14.633914
57.045 13.94747
57.050 13.530503
57.055 13.403833
57.060 13.986479
57.065 14.486338
57.070 14.590684
57.075 14.450206
57.080 14.386039
57.085 14.096761
57.090 14.313015
57.095 14.340149
57.100 14.411934
57.105 14.514565
57.110 14.219899
57.115 14.326958
57.120 14.738202
57.125 15.134932
57.130 15.524964
57.135 15.423131
57.140 15.705999
57.145 16.099279
57.150 16.179256
57.155 15.909994
57.160 15.067741
57.165 14.295435
57.170 13.921448
57.175 13.854372
57.180 13.412484
57.185 13.55045
57.190 14.028139
57.195 14.279696
57.200 14.83867
57.205 15.0001
57.210 14.706209
57.215 15.300246
57.220 15.404504
57.225 15.400319
57.230 15.369579
57.235 15.560283
57.240 15.738439
57.245 14.815425
57.250 14.011706
57.255 14.258833
57.260 14.109027
57.265 13.916547
57.270 13.494905
57.275 13.301641
57.280 14.46383
57.285 14.82259
57.290 14.306328
57.295 14.3417
57.300 14.523557
57.305 14.53271
57.310 14.872043
57.315 15.020092
57.320 15.242005
57.325 15.493864
57.330 15.919246
57.335 16.215296
57.340 16.196117
57.345 16.452887
57.350 16.456184
57.355 16.441059
57.360 16.871964
57.365 16.846413
57.370 17.46125
57.375 18.025049
57.380 17.968597
57.385 17.849945
57.390 17.84075
57.395 17.905407
57.400 17.488501
57.405 16.964445
57.410 16.408352
57.415 16.666632
57.420 17.019188
57.425 17.009132
57.430 16.277077
57.435 16.261639
57.440 16.285421
57.445 16.496557
57.450 15.85092
57.455 15.43083
57.460 15.337915
57.465 15.77606
57.470 15.716184
57.475 15.46041
57.480 15.044245
57.485 15.433196
57.490 15.79302
57.495 16.410154
57.500 16.199369
57.505 16.032461
57.510 16.116455
57.515 16.4755
57.520 15.960789
57.525 15.753708
57.530 15.840335
57.535 15.756764
57.540 15.934929
57.545 15.864316
57.550 15.698248
57.555 15.539957
57.560 15.334702
57.565 14.997864
57.570 15.074353
57.575 15.241274
57.580 15.438806
57.585 15.889934
57.590 16.016127
57.595 15.724053
57.600 15.570084
57.605 15.75182
57.610 15.461761
57.615 15.373748
57.620 15.176384
57.625 15.312292
57.630 15.269296
57.635 15.025421
57.640 14.723965
57.645 14.721788
57.650 14.439303
57.655 14.410313
57.660 14.682318
57.665 14.792165
57.670 14.820975
57.675 14.776886
57.680 14.954029
57.685 15.33563
57.690 15.290172
57.695 15.725682
57.700 15.926505
57.705 16.323053
57.710 16.532639
57.715 16.237118
57.720 16.305082
57.725 16.352711
57.730 15.27533
57.735 15.353004
57.740 15.36174
57.745 15.664589
57.750 15.882409
57.755 15.562227
57.760 14.979102
57.765 15.046233
57.770 14.738763
57.775 14.840086
57.780 14.563141
57.785 14.605099
57.790 14.819265
57.795 15.34304
57.800 14.906003
57.805 14.825751
57.810 14.770296
57.815 14.861584
57.820 15.049529
57.825 15.172465
57.830 15.244755
57.835 16.3027
57.840 16.049856
57.845 15.531363
57.850 15.454178
57.855 14.96681
57.860 14.888799
57.865 15.443691
57.870 15.435332
57.875 16.009884
57.880 16.306587
57.885 16.813248
57.890 17.274689
57.895 17.752262
57.900 17.539751
57.905 17.210705
57.910 16.606709
57.915 16.135288
57.920 15.730522
57.925 14.881879
57.930 14.42316
57.935 14.350143
57.940 14.543718
57.945 15.138764
57.950 15.167456
57.955 15.142861
57.960 15.269506
57.965 15.298153
57.970 15.172527
57.975 15.408987
57.980 15.783944
57.985 15.902397
57.990 15.946985
57.995 16.107634
58.000 16.151258
58.005 16.104122
58.010 16.269869
58.015 16.058136
58.020 16.270405
58.025 16.506638
58.030 16.362631
58.035 16.192881
58.040 16.566254
58.045 16.863182
58.050 17.069042
58.055 17.07658
58.060 17.045551
58.065 17.297058
58.070 17.482443
58.075 16.759212
58.080 16.046106
58.085 15.862392
58.090 16.30864
58.095 16.08658
58.100 16.153835
58.105 15.996735
58.110 16.47747
58.115 17.088726
58.120 16.81773
58.125 15.920042
58.130 16.011213
58.135 15.720944
58.140 15.874649
58.145 16.321899
58.150 15.945115
58.155 16.530485
58.160 16.652016
58.165 16.585579
58.170 16.840797
58.175 16.577038
58.180 15.797017
58.185 15.869226
58.190 15.776374
58.195 15.76358
58.200 15.873311
58.205 15.942215
58.210 16.087103
58.215 16.455086
58.220 16.322487
58.225 16.363224
58.230 16.621546
58.235 16.15449
58.240 15.591698
58.245 14.899731
58.250 14.653547
58.255 15.053447
58.260 14.845124
58.265 14.575564
58.270 14.922052
58.275 15.345897
58.280 16.169624
58.285 16.300734
58.290 16.25493
58.295 16.797115
58.300 17.778673
58.305 18.19529
58.310 18.656355
58.315 18.829561
58.320 18.380159
58.325 17.679054
58.330 17.219921
58.335 17.012026
58.340 16.656155
58.345 15.961663
58.350 15.578616
58.355 16.156607
58.360 16.076551
58.365 15.874808
58.370 15.237699
58.375 15.386639
58.380 15.510008
58.385 15.348061
58.390 15.50086
58.395 16.12406
58.400 15.798621
58.405 15.640301
58.410 15.749126
58.415 15.085381
58.420 14.684321
58.425 14.600642
58.430 14.474552
58.435 14.751675
58.440 14.757325
58.445 14.648639
58.450 15.281339
58.455 15.30496
58.460 15.247632
58.465 15.159444
58.470 15.40325
58.475 15.59715
58.480 16.125565
58.485 16.230265
58.490 16.248936
58.495 16.562716
58.500 16.794085
58.505 16.500481
58.510 16.388691
58.515 16.061556
58.520 16.288092
58.525 16.656612
58.530 16.611919
58.535 16.634333
58.540 16.801022
58.545 17.109112
58.550 16.907484
58.555 16.600845
58.560 16.499868
58.565 16.141615
58.570 16.127607
58.575 16.67927
58.580 16.441141
58.585 16.917355
58.590 16.935854
58.595 17.043991
58.600 17.337929
58.605 16.943758
58.610 16.631001
58.615 16.427073
58.620 16.359442
58.625 16.699659
58.630 16.406992
58.635 16.845608
58.640 17.170704
58.645 16.98332
58.650 16.651533
58.655 16.208467
58.660 15.861484
58.665 15.896405
58.670 15.868625
58.675 16.210894
58.680 16.471523
58.685 16.77879
58.690 17.12582
58.695 17.551926
58.700 17.974142
58.705 17.598499
58.710 17.023167
58.715 16.641375
58.720 16.665001
58.725 16.626513
58.730 16.549782
58.735 16.26325
58.740 16.557034
58.745 16.742653
58.750 17.492321
58.755 18.023312
58.760 18.142094
58.765 18.146282
58.770 18.205242
58.775 18.104147
58.780 18.19747
58.785 17.801168
58.790 17.838205
58.795 17.994841
58.800 17.911572
58.805 17.5923
58.810 17.915916
58.815 17.728113
58.820 17.55147
58.825 17.21273
58.830 17.00452
58.835 16.464779
58.840 16.376532
58.845 16.05512
58.850 16.48732
58.855 16.985426
58.860 17.090218
58.865 17.263285
58.870 17.43762
58.875 17.609695
58.880 17.799627
58.885 17.372181
58.890 17.09992
58.895 16.893604
58.900 16.725044
58.905 16.88291
58.910 16.525967
58.915 16.185278
58.920 16.239897
58.925 15.400208
58.930 15.079175
58.935 15.318742
58.940 16.083824
58.945 16.196508
58.950 15.889104
58.955 15.65877
58.960 16.211126
58.965 16.697535
58.970 16.54973
58.975 16.528618
58.980 16.954262
58.985 17.615316
58.990 17.934572
58.995 17.710066
59.000 17.71426
59.005 17.922907
59.010 17.336338
59.015 16.704594
59.020 15.724287
59.025 16.017292
59.030 16.390322
59.035 15.962784
59.040 15.651332
59.045 16.465317
59.050 17.10614
59.055 17.726086
59.060 17.187222
59.065 16.689188
59.070 17.242249
59.075 16.713282
59.080 16.566399
59.085 16.406311
59.090 16.549322
59.095 16.452843
59.100 16.485859
59.105 16.269974
59.110 15.948917
59.115 15.230981
59.120 14.929643
59.125 14.501187
59.130 15.009353
59.135 15.852425
59.140 16.518099
59.145 17.573828
59.150 18.011549
59.155 18.18111
59.160 18.679565
59.165 19.100121
59.170 18.835882
59.175 18.310545
59.180 17.938198
59.185 18.380138
59.190 18.576775
59.195 18.232899
59.200 17.483145
59.205 16.927361
59.210 16.918455
59.215 16.531038
59.220 16.073204
59.225 16.399412
59.230 16.585762
59.235 16.749229
59.240 16.83662
59.245 16.825985
59.250 17.919153
59.255 18.211145
59.260 18.232277
59.265 18.881966
59.270 19.425081
59.275 20.150921
59.280 20.104746
59.285 19.689129
59.290 19.608025
59.295 19.58107
59.300 19.067207
59.305 18.964342
59.310 18.174601
59.315 17.988182
59.320 18.148167
59.325 18.234152
59.330 17.965406
59.335 17.570005
59.340 17.26195
59.345 17.617336
59.350 17.855322
59.355 17.474449
59.360 17.641897
59.365 18.538816
59.370 18.658241
59.375 18.698965
59.380 19.407
59.385 19.972361
59.390 20.789642
59.395 20.827742
59.400 20.188408
59.405 20.10416
59.410 19.794069
59.415 18.698431
59.420 18.368193
59.425 17.9776
59.430 18.169262
59.435 18.362707
59.440 18.424858
59.445 18.623264
59.450 19.049171
59.455 18.490921
59.460 18.244471
59.465 18.119352
59.470 18.176945
59.475 18.515606
59.480 18.399033
59.485 18.176937
59.490 18.614264
59.495 18.909105
59.500 18.290604
59.505 18.093533
59.510 18.152172
59.515 18.200371
59.520 17.978415
59.525 17.741066
59.530 17.849266
59.535 18.284412
59.540 18.70083
59.545 18.531322
59.550 18.873173
59.555 19.384274
59.560 19.386757
59.565 19.112717
59.570 19.001322
59.575 19.069098
59.580 18.923847
59.585 18.984058
59.590 18.679976
59.595 18.631195
59.600 18.625654
59.605 19.020527
59.610 18.725679
59.615 18.918829
59.620 18.933395
59.625 19.332724
59.630 19.859568
59.635 20.013655
59.640 19.371717
59.645 19.378815
59.650 19.239649
59.655 18.998768
59.660 18.737568
59.665 18.356398
59.670 18.192181
59.675 19.021631
59.680 19.160236
59.685 18.876783
59.690 18.741455
59.695 18.754538
59.700 20.020317
59.705 20.471972
59.710 20.075073
59.715 19.792141
59.720 20.245249
59.725 20.069229
59.730 19.621361
59.735 18.470974
59.740 18.223064
59.745 17.903999
59.750 18.37299
59.755 18.65967
59.760 19.117426
59.765 19.309132
59.770 19.534004
59.775 19.809692
59.780 20.314875
59.785 19.900129
59.790 19.647205
59.795 19.879255
59.800 20.354309
59.805 19.690996
59.810 19.23872
59.815 19.325918
59.820 19.893114
59.825 20.471777
59.830 20.225615
59.835 19.977459
59.840 20.818508
59.845 21.046432
59.850 20.787073
59.855 20.711609
59.860 20.839106
59.865 21.265079
59.870 21.534824
59.875 21.260756
59.880 21.047125
59.885 21.368349
59.890 21.480169
59.895 21.158659
59.900 20.750214
59.905 20.56888
59.910 20.884275
59.915 21.367117
59.920 21.29896
59.925 20.841774
59.930 20.583054
59.935 20.572626
59.940 20.813377
59.945 21.020098
59.950 20.862797
59.955 20.745028
59.960 21.27902
59.965 21.923256
59.970 22.077457
59.975 22.258144
59.980 22.47645
59.985 22.688435
59.990 23.270672
59.995 23.037674
60.000 22.888876
60.005 23.014973
60.010 22.719957
60.015 22.509212
60.020 22.206045
60.025 22.012148
60.030 22.435423
60.035 22.737778
60.040 23.279131
60.045 23.607962
60.050 23.47459
60.055 24.093044
60.060 24.054792
60.065 24.043634
60.070 23.473898
60.075 22.656204
60.080 22.07881
60.085 22.12159
60.090 21.746849
60.095 22.110525
60.100 22.348751
60.105 22.699678
60.110 23.370338
60.115 23.980772
60.120 24.92359
60.125 25.121775
60.130 25.125959
60.135 25.088043
60.140 25.284689
60.145 25.110317
60.150 24.446218
60.155 24.143534
60.160 24.156605
60.165 24.235096
60.170 23.732998
60.175 23.495279
60.180 23.372549
60.185 23.924393
60.190 23.464769
60.195 23.106426
60.200 22.597942
60.205 22.74317
60.210 23.026859
60.215 23.604305
60.220 23.855766
60.225 24.764963
60.230 24.964396
60.235 24.974625
60.240 25.245564
60.245 25.27677
60.250 24.439032
60.255 23.226383
60.260 22.13755
60.265 21.621
60.270 21.755985
60.275 21.846807
60.280 21.852814
60.285 21.612286
60.290 22.417171
60.295 22.764095
60.300 23.096428
60.305 23.218794
60.310 23.474209
60.315 23.791452
60.320 24.382998
60.325 24.504116
60.330 24.835876
60.335 24.969751
60.340 24.564703
60.345 23.796503
60.350 23.442642
60.355 23.151478
60.360 22.760389
60.365 22.194214
60.370 22.039721
60.375 21.713348
60.380 21.867937
60.385 21.622118
60.390 21.814356
60.395 22.644775
60.400 22.36832
60.405 22.503254
60.410 22.73921
60.415 22.676853
60.420 22.859148
60.425 22.820892
60.430 22.228661
60.435 21.99036
60.440 21.555145
60.445 21.583019
60.450 21.858665
60.455 21.940954
60.460 21.743818
60.465 22.04681
60.470 23.027775
60.475 23.527691
60.480 23.837955
60.485 23.959873
60.490 23.776588
60.495 24.4272
60.500 24.317465
60.505 24.400152
60.510 24.524567
60.515 24.210703
60.520 23.948011
60.525 24.161947
60.530 23.466877
60.535 23.470175
60.540 23.202911
60.545 23.066492
60.550 23.605757
60.555 24.016212
60.560 23.754414
60.565 23.324139
60.570 23.307327
60.575 22.978609
60.580 22.736647
60.585 22.164066
60.590 21.518337
60.595 21.353172
60.600 21.338392
60.605 21.160904
60.610 20.977705
60.615 20.447546
60.620 20.358978
60.625 20.403996
60.630 20.155582
60.635 20.03834
60.640 19.739874
60.645 20.175325
60.650 20.365185
60.655 20.01815
60.660 19.565268
60.665 20.011154
60.670 20.191593
60.675 20.881104
60.680 21.099052
60.685 21.135912
60.690 21.394857
60.695 21.921894
60.700 22.140512
60.705 22.381472
60.710 21.463154
60.715 20.850494
60.720 20.712215
60.725 21.043772
60.730 21.135132
60.735 20.133291
60.740 19.425793
60.745 19.562323
60.750 19.482086
60.755 19.930519
60.760 19.859768
60.765 20.148724
60.770 20.405144
60.775 19.784325
60.780 19.607653
60.785 19.455526
60.790 18.590483
60.795 18.467001
60.800 17.954737
60.805 18.414886
60.810 19.581915
60.815 19.873121
60.820 20.178652
60.825 20.309938
60.830 19.572374
60.835 19.794321
60.840 19.905037
60.845 18.929718
60.850 18.603863
60.855 18.641098
60.860 18.407495
60.865 18.39497
60.870 17.950176
60.875 17.643906
60.880 18.287512
60.885 18.901718
60.890 18.947649
60.895 19.137253
60.900 19.533157
60.905 20.048178
60.910 20.277811
60.915 20.500418
60.920 20.183727
60.925 20.072357
60.930 20.772116
60.935 20.661816
60.940 20.580656
60.945 20.519762
60.950 19.863361
60.955 19.478786
60.960 18.671904
60.965 18.44379
60.970 18.741301
60.975 18.641041
60.980 18.064034
60.985 17.207542
60.990 17.151461
60.995 17.753929
61.000 17.601322
61.005 17.64999
61.010 17.344933
61.015 17.698282
61.020 18.108685
61.025 18.315575
61.030 18.784889
61.035 18.919201
61.040 18.270403
61.045 18.152367
61.050 18.609735
61.055 18.722794
61.060 18.889307
61.065 18.650671
61.070 18.53787
61.075 19.109486
61.080 19.271599
61.085 18.570297
61.090 18.813309
61.095 18.224575
61.100 17.874453
61.105 18.318914
61.110 18.424414
61.115 18.534472
61.120 19.135344
61.125 19.607058
61.130 19.428213
61.135 19.32185
61.140 18.519016
61.145 18.290356
61.150 18.637934
61.155 18.072134
61.160 17.710392
61.165 18.382605
61.170 18.257181
61.175 18.128473
61.180 17.708958
61.185 17.866776
61.190 18.312269
61.195 18.224133
61.200 18.182037
61.205 18.399855
61.210 18.344101
61.215 18.429193
61.220 17.669138
61.225 17.102501
61.230 17.527039
61.235 17.771122
61.240 17.592577
61.245 18.203825
61.250 18.261688
61.255 19.146503
61.260 19.403961
61.265 18.673502
61.270 18.140366
61.275 17.896057
61.280 17.825214
61.285 17.879454
61.290 17.077366
61.295 17.082884
61.300 17.346972
61.305 17.966631
61.310 18.130161
61.315 18.412695
61.320 18.205536
61.325 17.71423
61.330 17.395994
61.335 17.509073
61.340 17.038565
61.345 16.965853
61.350 16.781105
61.355 17.982168
61.360 18.885225
61.365 19.188158
61.370 18.711962
61.375 18.578053
61.380 18.860107
61.385 18.965954
61.390 18.445475
61.395 18.498255
61.400 18.903454
61.405 19.459597
61.410 19.57012
61.415 19.961607
61.420 19.765881
61.425 19.282293
61.430 19.155966
61.435 18.68074
61.440 18.481453
61.445 18.100876
61.450 17.186901
61.455 17.284029
61.460 17.593313
61.465 17.316755
61.470 17.524374
61.475 17.704414
61.480 18.137966
61.485 18.169622
61.490 18.224255
61.495 18.858025
61.500 18.815172
61.505 18.737558
61.510 18.805159
61.515 18.553654
61.520 18.422346
61.525 17.830383
61.530 17.27173
61.535 17.476887
61.540 17.270679
61.545 17.660919
61.550 18.49087
61.555 19.296858
61.560 20.063133
61.565 19.914127
61.570 19.717001
61.575 20.141905
61.580 19.657957
61.585 19.351223
61.590 19.245539
61.595 19.019001
61.600 18.936111
61.605 19.496489
61.610 19.629942
61.615 19.84684
61.620 19.973991
61.625 19.553194
61.630 19.332909
61.635 19.373732
61.640 19.199972
61.645 19.524721
61.650 19.376226
61.655 18.683107
61.660 18.854794
61.665 18.716757
61.670 19.051006
61.675 18.830595
61.680 17.769133
61.685 17.480928
61.690 17.275387
61.695 16.984053
61.700 17.008211
61.705 16.511835
61.710 16.558815
61.715 17.031511
61.720 17.791454
61.725 17.798578
61.730 17.987677
61.735 18.336544
61.740 18.966057
61.745 19.408806
61.750 19.377508
61.755 18.630167
61.760 18.227398
61.765 18.025742
61.770 18.66605
61.775 18.227654
61.780 17.400167
61.785 17.654472
61.790 17.919346
61.795 18.638834
61.800 18.889614
61.805 17.93775
61.810 18.138498
61.815 18.775999
61.820 18.725019
61.825 19.264084
61.830 19.609671
61.835 19.51292
61.840 19.466551
61.845 18.801039
61.850 18.15567
61.855 17.682236
61.860 17.067846
61.865 16.409777
61.870 16.6141
61.875 17.017925
61.880 18.087366
61.885 18.326723
61.890 18.540684
61.895 18.803867
61.900 19.345154
61.905 19.369211
61.910 19.282999
61.915 18.963688
61.920 19.116745
61.925 19.088758
61.930 19.107529
61.935 18.983599
61.940 18.638605
61.945 18.604279
61.950 18.315384
61.955 17.775492
61.960 17.966175
61.965 17.91655
61.970 17.877789
61.975 17.730791
61.980 17.670195
61.985 17.558268
61.990 18.279478
61.995 18.680326
62.000 18.483715
62.005 18.538074
62.010 19.226542
62.015 19.565905
62.020 19.637884
62.025 19.207788
62.030 18.926281
62.035 19.195587
62.040 19.115608
62.045 18.687492
62.050 18.60393
62.055 18.587587
62.060 18.865437
62.065 18.997459
62.070 18.497353
62.075 18.994574
62.080 19.001204
62.085 19.262527
62.090 19.352613
62.095 18.881979
62.100 18.175922
62.105 18.085403
62.110 18.194315
62.115 18.107904
62.120 17.661425
62.125 17.857878
62.130 17.73736
62.135 17.559292
62.140 17.558569
62.145 16.600107
62.150 16.474756
62.155 16.188831
62.160 16.167639
62.165 16.694172
62.170 17.25766
62.175 17.947641
62.180 18.635103
62.185 19.112206
62.190 19.37125
62.195 19.172983
62.200 19.19396
62.205 19.546217
62.210 19.385784
62.215 19.07827
62.220 18.375635
62.225 18.303968
62.230 18.185556
62.235 17.859634
62.240 17.695759
62.245 17.241943
62.250 17.082827
62.255 17.151724
62.260 17.2442
62.265 17.448963
62.270 17.395914
62.275 17.434069
62.280 17.564669
62.285 17.597351
62.290 17.483463
62.295 17.884005
62.300 17.889502
62.305 17.101965
62.310 17.266184
62.315 17.870104
62.320 18.084503
62.325 18.223234
62.330 17.540775
62.335 17.53903
62.340 18.835207
62.345 19.191517
62.350 18.650373
62.355 18.652166
62.360 19.040932
62.365 19.339853
62.370 19.288761
62.375 18.223337
62.380 17.456404
62.385 17.090519
62.390 16.954391
62.395 17.012144
62.400 16.783298
62.405 17.289532
62.410 18.017609
62.415 18.585505
62.420 19.482546
62.425 19.624159
62.430 19.550747
62.435 19.889168
62.440 19.777794
62.445 19.579453
62.450 19.467499
62.455 19.11442
62.460 19.071663
62.465 19.061197
62.470 19.042011
62.475 19.169758
62.480 18.970602
62.485 18.27038
62.490 17.602713
62.495 17.297892
62.500 16.923727
62.505 16.896286
62.510 16.712093
62.515 17.254946
62.520 17.773376
62.525 18.375879
62.530 18.481985
62.535 18.525778
62.540 18.129486
62.545 18.218597
62.550 17.299309
62.555 16.889025
62.560 16.73398
62.565 16.885847
62.570 16.90781
62.575 16.848133
62.580 16.713552
62.585 17.696159
62.590 18.096291
62.595 18.204285
62.600 17.939703
62.605 17.70084
62.610 17.569506
62.615 17.541605
62.620 17.082638
62.625 16.623678
62.630 16.952564
62.635 17.295448
62.640 17.23115
62.645 17.44611
62.650 17.332348
62.655 18.325397
62.660 18.990795
62.665 18.759533
62.670 18.716232
62.675 19.216021
62.680 19.031528
62.685 18.655546
62.690 18.050398
62.695 17.255245
62.700 17.063066
62.705 17.041878
62.710 16.659494
62.715 16.74016
62.720 16.89217
62.725 16.985462
62.730 17.634472
62.735 18.429195
62.740 18.733164
62.745 19.534573
62.750 19.602303
62.755 19.415379
62.760 19.421476
62.765 18.837313
62.770 18.269489
62.775 17.700134
62.780 17.102074
62.785 17.149227
62.790 17.31904
62.795 17.664864
62.800 17.978653
62.805 18.416891
62.810 18.855848
62.815 19.516764
62.820 20.000395
62.825 19.734533
62.830 19.234211
62.835 18.7286
62.840 18.715958
62.845 19.070335
62.850 18.664986
62.855 18.263979
62.860 18.207088
62.865 17.870659
62.870 17.948751
62.875 17.776817
62.880 17.257044
62.885 16.935547
62.890 16.680912
62.895 16.752745
62.900 17.526318
62.905 17.873196
62.910 18.088083
62.915 18.369576
62.920 18.483263
62.925 18.997416
62.930 19.227678
62.935 19.199257
62.940 18.951035
62.945 18.73399
62.950 18.123945
62.955 18.085672
62.960 17.884686
62.965 17.472864
62.970 17.505575
62.975 17.848284
62.980 18.041763
62.985 18.457836
62.990 18.901587
62.995 19.205082
63.000 19.405994
63.005 18.614594
63.010 18.258268
63.015 17.937706
63.020 18.139059
63.025 18.100666
63.030 18.443394
63.035 18.892103
63.040 19.210613
63.045 19.575939
63.050 20.404161
63.055 20.380287
63.060 19.5387
63.065 19.183096
63.070 19.300776
63.075 19.344929
63.080 18.838884
63.085 18.369368
63.090 18.097475
63.095 18.61216
63.100 18.552326
63.105 18.683455
63.110 18.794973
63.115 18.938837
63.120 18.406713
63.125 18.431557
63.130 18.7162
63.135 18.542297
63.140 18.016659
63.145 17.556498
63.150 17.398106
63.155 17.713068
63.160 17.751534
63.165 17.712162
63.170 17.969702
63.175 17.741575
63.180 17.633949
63.185 17.914501
63.190 18.244608
63.195 18.488844
63.200 18.45694
63.205 17.787506
63.210 18.536358
63.215 19.108068
63.220 18.946228
63.225 18.8127
63.230 18.758018
63.235 19.024387
63.240 19.235312
63.245 18.431517
63.250 18.051739
63.255 18.388897
63.260 18.01763
63.265 17.805988
63.270 17.342091
63.275 18.030539
63.280 18.603786
63.285 19.118996
63.290 18.253698
63.295 18.257017
63.300 18.409849
63.305 18.811909
63.310 18.931917
63.315 18.472528
63.320 18.108006
63.325 18.85289
63.330 18.783777
63.335 18.607233
63.340 18.184916
63.345 17.876284
63.350 17.848436
63.355 17.682951
63.360 17.723185
63.365 18.5816
63.370 18.584316
63.375 18.851564
63.380 18.919922
63.385 19.356918
63.390 19.85186
63.395 20.054512
63.400 19.742226
63.405 19.707392
63.410 19.748877
63.415 20.141708
63.420 20.795025
63.425 20.620897
63.430 20.401361
63.435 20.246466
63.440 20.36677
63.445 20.056303
63.450 19.508945
63.455 18.470108
63.460 17.75835
63.465 17.7199
63.470 17.763411
63.475 17.825521
63.480 18.476517
63.485 18.714422
63.490 19.010225
63.495 19.342434
63.500 19.197796
63.505 19.176241
63.510 18.975407
63.515 18.589733
63.520 18.582201
63.525 18.811325
63.530 18.882904
63.535 18.88973
63.540 18.868031
63.545 19.024654
63.550 18.82419
63.555 18.713501
63.560 18.756735
63.565 19.105179
63.570 19.099508
63.575 18.861
63.580 18.754332
63.585 18.663834
63.590 19.063263
63.595 18.792355
63.600 18.394426
63.605 18.480429
63.610 18.254848
63.615 18.573046
63.620 18.771164
63.625 18.515663
63.630 18.227497
63.635 18.309772
63.640 18.108999
63.645 18.363594
63.650 18.057114
63.655 17.723475
63.660 17.739016
63.665 18.175127
63.670 18.241377
63.675 18.78957
63.680 19.073246
63.685 19.366941
63.690 19.629335
63.695 20.244431
63.700 20.355026
63.705 20.514952
63.710 20.057196
63.715 19.825903
63.720 19.73777
63.725 19.845654
63.730 19.505388
63.735 19.024822
63.740 18.419483
63.745 17.883541
63.750 18.085413
63.755 17.660965
63.760 17.098717
63.765 17.457937
63.770 17.694588
63.775 17.586708
63.780 18.053078
63.785 18.020544
63.790 18.457401
63.795 18.812904
63.800 18.274963
63.805 18.170544
63.810 18.773912
63.815 19.165667
63.820 19.109215
63.825 19.19697
63.830 19.288647
63.835 19.518721
63.840 19.529694
63.845 19.49028
63.850 18.962212
63.855 18.865017
63.860 18.649309
63.865 18.224739
63.870 18.327326
63.875 18.445597
63.880 18.534206
63.885 18.697538
63.890 18.667862
63.895 18.597126
63.900 18.631577
63.905 18.451933
63.910 18.307053
63.915 17.891462
63.920 17.580513
63.925 17.601616
63.930 17.463242
63.935 17.853395
63.940 18.122017
63.945 18.202818
63.950 18.823112
63.955 19.41515
63.960 19.612852
63.965 20.347729
63.970 20.05508
63.975 19.843534
63.980 19.868368
63.985 19.802395
63.990 19.954514
63.995 19.940363
64.000 19.796787
64.005 19.919312
64.010 20.183933
64.015 20.3363
64.020 20.156631
64.025 19.863331
64.030 19.758886
64.035 20.025492
64.040 20.388052
64.045 20.05757
64.050 20.07102
64.055 19.544039
64.060 19.322882
64.065 19.098232
64.070 18.97028
64.075 18.577
64.080 18.274296
64.085 18.50049
64.090 18.774122
64.095 18.613304
64.100 18.464014
64.105 17.998573
64.110 17.936207
64.115 18.082582
64.120 17.378939
64.125 17.334183
64.130 17.438271
64.135 17.312635
64.140 17.381559
64.145 17.294243
64.150 17.177383
64.155 17.334236
64.160 16.996435
64.165 17.003912
64.170 17.053225
64.175 17.849981
64.180 18.270746
64.185 18.348154
64.190 18.657169
64.195 18.673363
64.200 18.453131
64.205 18.444286
64.210 18.047192
64.215 17.535082
64.220 17.295399
64.225 17.561119
64.230 17.888853
64.235 18.411566
64.240 18.123705
64.245 17.578613
64.250 17.997082
64.255 19.195087
64.260 19.523209
64.265 19.344147
64.270 19.063053
64.275 18.746902
64.280 19.022381
64.285 18.571774
64.290 18.391888
64.295 18.77923
64.300 18.925272
64.305 19.505327
64.310 20.359291
64.315 20.550209
64.320 20.767458
64.325 20.580488
64.330 20.785721
64.335 21.019331
64.340 20.805744
64.345 20.488449
64.350 21.013975
64.355 21.290758
64.360 20.525969
64.365 19.709393
64.370 19.815794
64.375 20.424908
64.380 20.275461
64.385 19.786089
64.390 19.646431
64.395 19.680557
64.400 20.097418
64.405 19.969028
64.410 20.00359
64.415 20.395803
64.420 20.396086
64.425 20.69397
64.430 20.722593
64.435 20.18523
64.440 20.250593
64.445 19.873751
64.450 19.778919
64.455 20.075191
64.460 19.82686
64.465 19.641184
64.470 20.010668
64.475 20.165897
64.480 20.530136
64.485 21.047409
64.490 20.956966
64.495 21.127411
64.500 21.30739
64.505 21.133348
64.510 20.558401
64.515 20.219353
64.520 19.989475
64.525 20.136356
64.530 19.952286
64.535 19.657398
64.540 19.392315
64.545 19.601412
64.550 19.779234
64.555 19.533781
64.560 18.938471
64.565 18.679325
64.570 19.106277
64.575 19.033573
64.580 19.003361
64.585 18.896179
64.590 19.019968
64.595 19.158716
64.600 19.519569
64.605 19.916107
64.610 20.115635
64.615 19.743206
64.620 19.886551
64.625 19.249189
64.630 19.212358
64.635 18.893061
64.640 18.745369
64.645 18.62826
64.650 18.900028
64.655 18.873365
64.660 19.578112
64.665 19.393791
64.670 19.425665
64.675 19.299528
64.680 19.639818
64.685 19.672768
64.690 18.853855
64.695 18.772532
64.700 19.394114
64.705 19.680576
64.710 19.493019
64.715 18.944658
64.720 18.887766
64.725 19.363455
64.730 19.185854
64.735 18.860115
64.740 18.385324
64.745 18.667376
64.750 19.20463
64.755 19.370075
64.760 19.521421
64.765 19.64114
64.770 20.087582
64.775 20.375988
64.780 19.878807
64.785 20.157545
64.790 20.503513
64.795 20.379457
64.800 20.11525
64.805 20.228642
64.810 20.6679
64.815 21.463223
64.820 20.802889
64.825 20.585217
64.830 20.641399
64.835 20.984921
64.840 20.619507
64.845 20.447172
64.850 20.207497
64.855 20.543667
64.860 20.671736
64.865 20.410881
64.870 20.626398
64.875 21.227966
64.880 21.678158
64.885 21.922934
64.890 21.9195
64.895 21.492605
64.900 21.775997
64.905 21.925987
64.910 21.499006
64.915 21.376646
64.920 21.833822
64.925 22.223501
64.930 22.505756
64.935 22.732067
64.940 22.924583
64.945 23.326595
64.950 23.56218
64.955 23.505898
64.960 23.602081
64.965 23.950962
64.970 23.494356
64.975 23.599926
64.980 23.538115
64.985 23.197151
64.990 23.020298
64.995 23.073359
65.000 22.976294
65.005 23.149807
65.010 23.327925
65.015 23.70224
65.020 24.15099
65.025 24.160963
65.030 24.070818
65.035 24.29348
65.040 24.575443
65.045 24.631777
65.050 23.972721
65.055 23.615637
65.060 23.351826
65.065 23.029556
65.070 22.975664
65.075 22.468533
65.080 22.230005
65.085 22.749275
65.090 23.255774
65.095 23.932648
65.100 24.213924
65.105 24.437452
65.110 24.848957
65.115 24.748365
65.120 24.639681
65.125 24.188843
65.130 23.999863
65.135 24.56072
65.140 24.218462
65.145 24.921503
65.150 25.175615
65.155 25.394611
65.160 25.881821
65.165 26.086666
65.170 26.929701
65.175 27.486027
65.180 26.709425
65.185 26.376915
65.190 26.059488
65.195 25.720993
65.200 24.931288
65.205 23.557678
65.210 23.316984
65.215 23.016397
65.220 23.120667
65.225 23.171066
65.230 23.093115
65.235 23.19248
65.240 23.695784
65.245 23.287889
65.250 23.553465
65.255 22.880476
65.260 22.399351
65.265 22.466822
65.270 22.354698
65.275 21.89325
65.280 22.29158
65.285 22.11717
65.290 22.737703
65.295 23.751497
65.300 23.20182
65.305 23.577681
65.310 23.54878
65.315 23.581224
65.320 23.682819
65.325 23.571396
65.330 23.453794
65.335 24.431307
65.340 24.78334
65.345 24.855864
65.350 24.947878
65.355 25.178238
65.360 24.942474
65.365 25.320837
65.370 25.46489
65.375 24.864134
65.380 25.563139
65.385 25.456097
65.390 25.552208
65.395 25.934835
65.400 26.425127
65.405 26.920805
65.410 26.951998
65.415 26.211006
65.420 26.583145
65.425 26.596865
65.430 26.053699
65.435 25.568356
65.440 25.192873
65.445 25.544279
65.450 25.220001
65.455 24.762493
65.460 25.465172
65.465 25.887529
65.470 25.661709
65.475 25.952787
65.480 25.638172
65.485 26.029846
65.490 26.50905
65.495 26.405634
65.500 26.220053
65.505 26.318993
65.510 26.228056
65.515 27.293226
65.520 27.839964
65.525 28.293736
65.530 28.462149
65.535 29.212948
65.540 29.52002
65.545 29.891462
65.550 30.440882
65.555 31.26627
65.560 30.470156
65.565 30.368187
65.570 29.993095
65.575 29.745998
65.580 30.199299
65.585 29.808035
65.590 28.972979
65.595 29.183956
65.600 29.453735
65.605 29.415192
65.610 30.21744
65.615 30.303045
65.620 30.22743
65.625 30.522076
65.630 30.242796
65.635 30.550903
65.640 30.983429
65.645 31.199814
65.650 31.13518
65.655 31.546291
65.660 31.975445
65.665 32.86319
65.670 32.88665
65.675 32.951233
65.680 33.531162
65.685 34.897182
65.690 35.468887
65.695 35.920963
65.700 36.088097
65.705 36.007801
65.710 36.222954
65.715 35.527851
65.720 35.274673
65.725 34.793804
65.730 34.331108
65.735 34.341251
65.740 34.725193
65.745 34.304398
65.750 34.277046
65.755 33.453556
65.760 33.914242
65.765 34.376389
65.770 35.237946
65.775 35.912605
65.780 36.796272
65.785 37.755131
65.790 38.099583
65.795 37.754585
65.800 37.753002
65.805 37.584702
65.810 37.529747
65.815 37.898926
65.820 37.451874
65.825 37.501759
65.830 38.80587
65.835 39.082748
65.840 39.220463
65.845 38.845421
65.850 38.580387
65.855 38.946552
65.860 38.978725
65.865 38.966156
65.870 39.177811
65.875 39.208897
65.880 39.230095
65.885 38.763721
65.890 38.51215
65.895 39.215816
65.900 38.999203
65.905 38.780991
65.910 38.283657
65.915 38.295067
65.920 38.814243
65.925 39.706745
65.930 40.369827
65.935 40.343159
65.940 40.936913
65.945 41.674393
65.950 41.134151
65.955 41.007778
65.960 40.866837
65.965 40.235855
65.970 40.968609
65.975 40.414391
65.980 40.251446
65.985 41.077446
65.990 40.776299
65.995 40.506817
66.000 40.038006
66.005 39.717438
66.010 39.843399
66.015 39.827072
66.020 40.064404
66.025 40.611774
66.030 41.157139
66.035 40.786945
66.040 40.173836
66.045 39.80381
66.050 39.303341
66.055 38.267757
66.060 37.679737
66.065 36.982796
66.070 36.78764
66.075 36.582779
66.080 36.76899
66.085 37.314285
66.090 37.394257
66.095 37.500824
66.100 37.622215
66.105 37.917652
66.110 37.767834
66.115 37.514408
66.120 37.175106
66.125 37.334465
66.130 37.52808
66.135 37.652214
66.140 38.466114
66.145 38.975498
66.150 39.00843
66.155 38.493668
66.160 38.165081
66.165 38.370293
66.170 37.802059
66.175 37.043053
66.180 36.530491
66.185 36.506088
66.190 36.890915
66.195 36.933067
66.200 36.62558
66.205 37.121727
66.210 37.25629
66.215 36.642323
66.220 36.060261
66.225 35.910786
66.230 36.126671
66.235 36.019569
66.240 35.39381
66.245 35.128506
66.250 35.247917
66.255 35.697483
66.260 35.892586
66.265 35.149628
66.270 34.939449
66.275 34.716473
66.280 34.34779
66.285 34.426163
66.290 34.95966
66.295 35.560852
66.300 35.398361
66.305 35.112488
66.310 35.015984
66.315 34.847248
66.320 34.688972
66.325 33.898739
66.330 33.396416
66.335 33.409374
66.340 33.171116
66.345 32.853329
66.350 33.281368
66.355 33.122589
66.360 32.593102
66.365 31.820896
66.370 31.257507
66.375 30.741133
66.380 30.424389
66.385 30.016735
66.390 29.648952
66.395 30.073439
66.400 30.003849
66.405 30.024818
66.410 30.61512
66.415 31.358885
66.420 31.659264
66.425 31.459936
66.430 30.696531
66.435 31.225159
66.440 31.264576
66.445 30.488327
66.450 30.014706
66.455 30.618895
66.460 31.0086
66.465 31.655336
66.470 31.344353
66.475 30.749828
66.480 30.416307
66.485 29.821856
66.490 29.250092
66.495 29.658239
66.500 29.199631
66.505 29.064497
66.510 30.017302
66.515 29.817627
66.520 29.885685
66.525 29.729399
66.530 29.524902
66.535 29.413176
66.540 29.078043
66.545 28.525877
66.550 28.373978
66.555 28.344389
66.560 28.161604
66.565 28.006279
66.570 28.443043
66.575 28.727335
66.580 28.899046
66.585 29.28455
66.590 29.454485
66.595 30.008827
66.600 30.015238
66.605 29.496334
66.610 29.548471
66.615 29.244736
66.620 29.165205
66.625 28.776062
66.630 27.806309
66.635 27.650078
66.640 27.586912
66.645 27.005522
66.650 26.863554
66.655 27.084215
66.660 26.78528
66.665 26.841356
66.670 26.315151
66.675 26.235559
66.680 26.699699
66.685 26.798157
66.690 25.991673
66.695 24.726126
66.700 24.169338
66.705 24.969051
66.710 25.103201
66.715 24.355318
66.720 24.415648
66.725 24.606476
66.730 25.089283
66.735 25.476971
66.740 25.140661
66.745 24.636873
66.750 24.868879
66.755 24.576328
66.760 24.231108
66.765 24.851181
66.770 24.642738
66.775 23.848988
66.780 24.304861
66.785 24.098352
66.790 23.57736
66.795 23.994616
66.800 24.258167
66.805 24.719158
66.810 24.751841
66.815 24.995834
66.820 25.372051
66.825 26.129723
66.830 26.004465
66.835 25.005339
66.840 25.098841
66.845 25.332047
66.850 24.875307
66.855 24.131495
66.860 23.80825
66.865 23.749876
66.870 24.387701
66.875 24.273939
66.880 24.059486
66.885 23.632545
66.890 23.584906
66.895 23.641899
66.900 22.883101
66.905 22.368912
66.910 22.328617
66.915 22.721903
66.920 23.56875
66.925 23.906054
66.930 23.701324
66.935 24.275581
66.940 23.660017
66.945 23.899815
66.950 24.385618
66.955 23.881689
66.960 24.421469
66.965 24.773943
66.970 24.549461
66.975 25.492002
66.980 25.086359
66.985 24.6752
66.990 24.789106
66.995 24.647057
67.000 24.487627
67.005 24.758904
67.010 24.643553
67.015 24.328564
67.020 24.158245
67.025 24.073303
67.030 23.922441
67.035 24.322947
67.040 24.322767
67.045 24.613434
67.050 24.420135
67.055 24.088486
67.060 24.206511
67.065 24.14002
67.070 24.168139
67.075 24.002472
67.080 23.394672
67.085 23.800457
67.090 24.324568
67.095 24.376425
67.100 24.117386
67.105 23.692324
67.110 23.640963
67.115 23.616085
67.120 23.306679
67.125 23.101387
67.130 22.859053
67.135 23.310144
67.140 24.187693
67.145 24.362837
67.150 24.390301
67.155 24.34919
67.160 24.724159
67.165 24.203726
67.170 23.783688
67.175 23.112307
67.180 22.728088
67.185 22.90258
67.190 23.326605
67.195 23.656797
67.200 23.794336
67.205 23.5527
67.210 23.258717
67.215 22.831444
67.220 23.11117
67.225 23.10066
67.230 22.133007
67.235 21.932894
67.240 21.68656
67.245 21.537739
67.250 21.478796
67.255 21.352322
67.260 20.711647
67.265 20.712503
67.270 20.928713
67.275 21.775192
67.280 21.798882
67.285 22.11739
67.290 22.411686
67.295 22.764334
67.300 23.298092
67.305 22.931499
67.310 22.308569
67.315 22.445871
67.320 21.824158
67.325 21.506922
67.330 21.84816
67.335 21.755529
67.340 21.860718
67.345 21.987219
67.350 22.205704
67.355 22.663458
67.360 22.151281
67.365 21.857397
67.370 21.571115
67.375 22.033981
67.380 22.673208
67.385 22.86364
67.390 23.201036
67.395 23.448881
67.400 23.294823
67.405 23.676174
67.410 23.355972
67.415 23.634281
67.420 23.299654
67.425 22.510527
67.430 22.27545
67.435 22.801178
67.440 23.146235
67.445 23.032951
67.450 22.444483
67.455 23.164103
67.460 23.828321
67.465 23.962536
67.470 23.29438
67.475 22.998051
67.480 23.1833
67.485 22.983702
67.490 22.737556
67.495 22.871494
67.500 23.228996
67.505 23.122734
67.510 23.028887
67.515 23.277273
67.520 22.954447
67.525 22.632988
67.530 22.720335
67.535 22.557993
67.540 22.781443
67.545 22.666759
67.550 21.954933
67.555 22.626144
67.560 22.99951
67.565 23.065989
67.570 22.757692
67.575 22.726044
67.580 23.18368
67.585 23.204556
67.590 22.687576
67.595 22.246305
67.600 22.105415
67.605 22.6229
67.610 22.283104
67.615 22.013493
67.620 22.015354
67.625 22.101349
67.630 21.620291
67.635 21.458815
67.640 21.456781
67.645 21.673033
67.650 21.555532
67.655 21.629467
67.660 21.809042
67.665 21.758591
67.670 22.307863
67.675 22.413149
67.680 22.297499
67.685 22.435627
67.690 22.168352
67.695 22.286509
67.700 22.563112
67.705 21.868536
67.710 21.736664
67.715 21.723257
67.720 21.706139
67.725 21.988129
67.730 21.500612
67.735 21.469296
67.740 21.890154
67.745 21.92495
67.750 22.03825
67.755 21.72327
67.760 21.565498
67.765 21.236141
67.770 21.221016
67.775 20.779219
67.780 20.866371
67.785 20.661207
67.790 20.453033
67.795 20.790422
67.800 21.119972
67.805 21.229385
67.810 21.210588
67.815 21.322336
67.820 21.768623
67.825 22.628965
67.830 23.277447
67.835 23.548861
67.840 23.746969
67.845 23.663433
67.850 23.693275
67.855 23.233934
67.860 22.734657
67.865 22.104301
67.870 22.302343
67.875 22.010288
67.880 21.854702
67.885 21.901525
67.890 22.105249
67.895 21.945772
67.900 21.617928
67.905 21.686537
67.910 22.67968
67.915 23.318907
67.920 23.392323
67.925 22.827015
67.930 23.114992
67.935 23.418575
67.940 22.980234
67.945 22.408974
67.950 21.919313
67.955 21.488068
67.960 21.593592
67.965 21.673737
67.970 21.431744
67.975 21.315451
67.980 21.526196
67.985 21.719797
67.990 21.884951
67.995 21.566116
68.000 21.889292
68.005 22.452595
68.010 22.521503
68.015 22.238852
68.020 22.28285
68.025 21.955343
68.030 21.997639
68.035 21.223488
68.040 21.073153
68.045 21.33942
68.050 21.475319
68.055 21.398371
68.060 21.81394
68.065 22.098873
68.070 22.580721
68.075 22.974442
68.080 22.898207
68.085 22.952881
68.090 22.878273
68.095 22.809361
68.100 22.865463
68.105 22.71192
68.110 22.84833
68.115 22.68532
68.120 22.399553
68.125 22.757616
68.130 23.228916
68.135 23.263906
68.140 23.211933
68.145 22.973568
68.150 22.907316
68.155 22.804623
68.160 22.689667
68.165 22.741459
68.170 22.709335
68.175 22.012123
68.180 21.40958
68.185 21.857487
68.190 22.700956
68.195 22.969481
68.200 22.263849
68.205 22.216385
68.210 22.394001
68.215 22.871561
68.220 22.936647
68.225 22.494984
68.230 22.410917
68.235 22.601774
68.240 22.499804
68.245 22.008591
68.250 21.625496
68.255 21.613911
68.260 21.858398
68.265 21.604628
68.270 21.87163
68.275 21.958145
68.280 22.796629
68.285 22.801699
68.290 22.325285
68.295 22.160402
68.300 21.858683
68.305 21.947876
68.310 22.202806
68.315 21.709509
68.320 21.832111
68.325 21.682899
68.330 21.935553
68.335 22.294998
68.340 22.614635
68.345 22.697048
68.350 22.986164
68.355 22.418877
68.360 22.224514
68.365 21.625895
68.370 21.21685
68.375 20.915676
68.380 20.963989
68.385 21.220989
68.390 21.25388
68.395 21.567799
68.400 21.948481
68.405 21.870266
68.410 21.296844
68.415 21.216396
68.420 21.167185
68.425 21.713959
68.430 21.569031
68.435 21.080561
68.440 21.218405
68.445 21.401424
68.450 20.832716
68.455 20.880501
68.460 20.701761
68.465 20.596073
68.470 21.375525
68.475 21.702087
68.480 22.227446
68.485 22.701694
68.490 22.040461
68.495 22.318808
68.500 22.513426
68.505 22.258036
68.510 21.80979
68.515 21.603458
68.520 21.814018
68.525 22.246548
68.530 22.448694
68.535 22.271427
68.540 22.301142
68.545 22.629112
68.550 22.914646
68.555 23.151329
68.560 23.266312
68.565 22.758905
68.570 22.281464
68.575 21.896702
68.580 21.404608
68.585 20.957253
68.590 20.432367
68.595 20.431406
68.600 20.683817
68.605 21.174248
68.610 21.446949
68.615 21.732527
68.620 21.977823
68.625 21.570835
68.630 22.220263
68.635 22.416565
68.640 22.707285
68.645 23.171864
68.650 23.260397
68.655 23.112751
68.660 23.546686
68.665 22.821365
68.670 22.286287
68.675 22.280128
68.680 22.211782
68.685 22.308723
68.690 22.459475
68.695 22.26635
68.700 22.948889
68.705 23.266916
68.710 22.693712
68.715 22.265152
68.720 22.037741
68.725 21.932981
68.730 22.129288
68.735 21.847895
68.740 21.76753
68.745 22.427744
68.750 23.295223
68.755 23.718699
68.760 24.078623
68.765 24.113298
68.770 24.171844
68.775 23.896889
68.780 23.532877
68.785 23.307486
68.790 23.468643
68.795 23.119644
68.800 22.547392
68.805 22.283003
68.810 22.585386
68.815 22.922823
68.820 23.046122
68.825 22.997896
68.830 23.677053
68.835 25.066446
68.840 25.593775
68.845 25.622747
68.850 25.033573
68.855 24.849344
68.860 24.497059
68.865 24.055229
68.870 23.313364
68.875 23.444609
68.880 22.970409
68.885 22.849861
68.890 22.393332
68.895 22.264769
68.900 21.9224
68.905 21.760109
68.910 22.05475
68.915 22.922384
68.920 23.221552
68.925 23.483866
68.930 23.909658
68.935 23.880001
68.940 23.773554
68.945 23.277588
68.950 22.683935
68.955 22.550274
68.960 23.055576
68.965 22.873583
68.970 23.187311
68.975 23.270685
68.980 22.94381
68.985 23.323935
68.990 23.537344
68.995 22.820066
69.000 23.642427
69.005 23.964842
69.010 24.447861
69.015 24.666092
69.020 23.801283
69.025 23.436226
69.030 23.27887
69.035 23.42869
69.040 23.215672
69.045 23.058361
69.050 23.006321
69.055 24.185574
69.060 25.074766
69.065 25.876698
69.070 25.252668
69.075 25.481659
69.080 26.091566
69.085 26.314209
69.090 26.655581
69.095 26.469511
69.100 26.231213
69.105 26.472914
69.110 26.70315
69.115 26.531469
69.120 26.278217
69.125 25.72241
69.130 26.066618
69.135 26.303957
69.140 26.160421
69.145 26.335371
69.150 25.912277
69.155 26.176748
69.160 25.851107
69.165 25.16353
69.170 25.066811
69.175 25.356218
69.180 25.520844
69.185 26.299458
69.190 26.228903
69.195 25.998867
69.200 26.137747
69.205 26.267452
69.210 26.658709
69.215 26.40769
69.220 26.341742
69.225 26.485064
69.230 27.056751
69.235 26.381395
69.240 26.242086
69.245 25.402201
69.250 25.259132
69.255 25.856655
69.260 26.629601
69.265 27.395515
69.270 28.926805
69.275 29.495304
69.280 30.115292
69.285 30.428764
69.290 30.100193
69.295 29.71578
69.300 29.693169
69.305 28.942295
69.310 28.776505
69.315 28.884378
69.320 28.0872
69.325 27.358643
69.330 27.072445
69.335 26.650585
69.340 26.804195
69.345 26.906006
69.350 27.307863
69.355 28.021643
69.360 28.625643
69.365 28.213545
69.370 28.288614
69.375 28.362755
69.380 28.629698
69.385 28.188717
69.390 28.681644
69.395 29.307697
69.400 30.394508
69.405 30.82892
69.410 30.134726
69.415 29.392876
69.420 29.327595
69.425 29.94239
69.430 29.671074
69.435 29.085489
69.440 29.673557
69.445 30.268646
69.450 30.458534
69.455 30.517645
69.460 29.524946
69.465 28.891361
69.470 28.391451
69.475 27.556824
69.480 27.74712
69.485 28.072933
69.490 28.390326
69.495 28.735693
69.500 29.10355
69.505 29.641766
69.510 30.265409
69.515 30.495749
69.520 30.67911
69.525 30.756281
69.530 30.850166
69.535 31.217979
69.540 30.950768
69.545 30.131056
69.550 30.630623
69.555 30.340216
69.560 29.914875
69.565 29.982527
69.570 29.997959
69.575 30.186729
69.580 29.846193
69.585 29.029581
69.590 28.821438
69.595 29.464331
69.600 29.094858
69.605 28.702372
69.610 28.426964
69.615 28.756584
69.620 28.741236
69.625 28.360064
69.630 27.52404
69.635 27.738298
69.640 28.935877
69.645 28.940756
69.650 28.752184
69.655 29.303213
69.660 29.77713
69.665 29.784016
69.670 29.297924
69.675 28.50812
69.680 28.996725
69.685 29.296722
69.690 29.311449
69.695 29.068134
69.700 28.87833
69.705 29.000702
69.710 28.664234
69.715 28.233187
69.720 28.074888
69.725 27.641018
69.730 27.244591
69.735 27.097643
69.740 27.067392
69.745 27.190638
69.750 27.476887
69.755 27.11651
69.760 27.691154
69.765 27.942034
69.770 28.632187
69.775 28.808578
69.780 28.314392
69.785 28.016445
69.790 27.676874
69.795 26.670061
69.800 27.012432
69.805 27.023405
69.810 26.387894
69.815 27.127722
69.820 26.99085
69.825 27.058601
69.830 27.445917
69.835 26.955246
69.840 26.859932
69.845 26.850233
69.850 26.340929
69.855 26.84642
69.860 26.555244
69.865 26.442734
69.870 26.287003
69.875 26.508217
69.880 26.581615
69.885 26.635015
69.890 26.466568
69.895 25.865301
69.900 24.988415
69.905 23.999695
69.910 23.786121
69.915 23.603657
69.920 23.053036
69.925 23.037951
69.930 23.027626
69.935 23.62421
69.940 24.089264
69.945 23.575941
69.950 23.318884
69.955 23.708256
69.960 23.880882
69.965 24.460831
69.970 23.962536
69.975 24.215988
69.980 24.881863
69.985 24.587469
69.990 24.159849
69.995 24.064095
70.000 24.743633
70.005 24.905376
70.010 24.494307
70.015 24.173956
70.020 24.139435
70.025 24.677902
70.030 24.687307
70.035 24.210453
70.040 24.188847
70.045 23.966768
70.050 23.996174
70.055 24.363218
70.060 23.762669
70.065 23.156591
70.070 22.955435
70.075 22.738827
70.080 22.566132
70.085 22.365145
70.090 21.903027
70.095 21.944817
70.100 22.050385
70.105 21.807434
70.110 21.623533
70.115 22.043854
70.120 21.805038
70.125 21.683998
70.130 21.532049
70.135 21.221251
70.140 21.385143
70.145 21.064054
70.150 20.594759
70.155 21.143871
70.160 21.318825
70.165 21.579378
70.170 21.285822
70.175 21.113014
70.180 21.180468
70.185 21.211092
70.190 21.426041
70.195 20.961597
70.200 20.537071
70.205 20.801456
70.210 20.566532
70.215 20.555738
70.220 20.162474
70.225 19.770317
70.230 20.16309
70.235 19.978727
70.240 19.787056
70.245 19.794971
70.250 19.765991
70.255 20.089228
70.260 19.978064
70.265 19.665258
70.270 19.560265
70.275 19.928074
70.280 19.814009
70.285 19.873684
70.290 19.912497
70.295 19.730774
70.300 20.096487
70.305 20.169882
70.310 20.363947
70.315 20.864876
70.320 21.514452
70.325 21.245649
70.330 21.047174
70.335 21.077305
70.340 21.132639
70.345 20.985851
70.350 20.192636
70.355 19.356512
70.360 19.877548
70.365 20.213327
70.370 20.493122
70.375 20.307301
70.380 21.087244
70.385 22.027906
70.390 23.070198
70.395 23.272102
70.400 23.877556
70.405 24.069778
70.410 24.670443
70.415 24.269798
70.420 23.4177
70.425 22.294403
70.430 21.924
70.435 21.793623
70.440 21.466351
70.445 20.840294
70.450 20.590797
70.455 20.850319
70.460 21.419357
70.465 21.333691
70.470 21.08437
70.475 21.540319
70.480 22.210228
70.485 21.948494
70.490 22.314596
70.495 22.221004
70.500 22.356026
70.505 22.437315
70.510 21.999342
70.515 21.263977
70.520 22.24432
70.525 21.815557
70.530 21.438511
70.535 21.317812
70.540 21.223204
70.545 21.365398
70.550 20.885895
70.555 20.816319
70.560 21.42144
70.565 21.773203
70.570 21.14123
70.575 20.632158
70.580 21.033251
70.585 21.360628
70.590 20.552174
70.595 19.918087
70.600 19.145638
70.605 19.718836
70.610 20.267361
70.615 19.747253
70.620 19.419029
70.625 19.494522
70.630 20.238024
70.635 21.081625
70.640 20.824343
70.645 20.094608
70.650 20.261194
70.655 20.581585
70.660 20.775434
70.665 20.067268
70.670 19.246504
70.675 18.867283
70.680 19.455597
70.685 19.765053
70.690 19.947113
70.695 19.317814
70.700 19.540554
70.705 20.275217
70.710 20.222019
70.715 20.218035
70.720 20.000004
70.725 19.627846
70.730 20.135101
70.735 20.328213
70.740 19.948658
70.745 19.977589
70.750 19.829559
70.755 19.879309
70.760 20.258688
70.765 19.47776
70.770 18.790827
70.775 19.13596
70.780 18.896225
70.785 18.774216
70.790 18.327358
70.795 18.209499
70.800 18.918879
70.805 19.203457
70.810 19.810154
70.815 20.114824
70.820 20.362946
70.825 20.846096
70.830 21.415588
70.835 21.392469
70.840 20.947781
70.845 20.465364
70.850 20.10705
70.855 19.965952
70.860 19.56617
70.865 18.781504
70.870 18.626856
70.875 18.624657
70.880 18.81912
70.885 19.316751
70.890 19.799929
70.895 19.977982
70.900 20.148161
70.905 20.049009
70.910 19.975552
70.915 19.88483
70.920 19.323313
70.925 18.168463
70.930 18.197502
70.935 18.52066
70.940 19.295603
70.945 20.156582
70.950 20.155657
70.955 20.103497
70.960 20.397524
70.965 20.531832
70.970 20.345894
70.975 19.494743
70.980 19.225056
70.985 19.493328
70.990 19.368563
70.995 19.378822
71.000 19.283684
71.005 19.378532
71.010 19.719044
71.015 19.416273
71.020 19.337717
71.025 19.756111
71.030 19.68589
71.035 19.871489
71.040 19.44228
71.045 19.221781
71.050 19.219419
71.055 19.031807
71.060 19.189388
71.065 19.202749
71.070 19.21703
71.075 19.020998
71.080 19.344006
71.085 19.446903
71.090 19.667519
71.095 19.291283
71.100 18.707899
71.105 18.695906
71.110 18.725765
71.115 17.900911
71.120 17.655912
71.125 17.195765
71.130 18.04669
71.135 18.503586
71.140 18.763245
71.145 18.695824
71.150 18.940363
71.155 19.045288
71.160 18.942915
71.165 18.286314
71.170 18.068352
71.175 18.096382
71.180 18.115366
71.185 18.22467
71.190 18.82052
71.195 19.264143
71.200 19.132431
71.205 19.310575
71.210 19.444466
71.215 19.977499
71.220 19.948233
71.225 19.528206
71.230 19.537569
71.235 20.42474
71.240 20.345812
71.245 19.982422
71.250 20.679813
71.255 20.515471
71.260 19.850643
71.265 19.871983
71.270 19.545996
71.275 19.756302
71.280 20.138491
71.285 19.805632
71.290 20.362799
71.295 20.855112
71.300 20.556808
71.305 20.444632
71.310 20.929379
71.315 20.436182
71.320 20.203653
71.325 19.592176
71.330 19.226982
71.335 19.325291
71.340 19.068722
71.345 19.361229
71.350 19.382402
71.355 19.489336
71.360 19.756626
71.365 19.569056
71.370 19.786934
71.375 19.530867
71.380 18.975258
71.385 18.65464
71.390 18.65032
71.395 19.108318
71.400 19.921679
71.405 20.28953
71.410 20.148365
71.415 20.764118
71.420 21.130604
71.425 20.603699
71.430 20.608566
71.435 20.846802
71.440 20.170742
71.445 20.379717
71.450 20.575031
71.455 20.521812
71.460 20.977859
71.465 20.851786
71.470 20.516775
71.475 20.663033
71.480 20.193916
71.485 19.72703
71.490 19.511555
71.495 19.422756
71.500 18.494011
71.505 17.590824
71.510 17.165541
71.515 16.778664
71.520 17.127214
71.525 16.917192
71.530 16.503897
71.535 17.37989
71.540 18.472843
71.545 18.949377
71.550 19.416948
71.555 19.309008
71.560 20.040028
71.565 20.642756
71.570 20.617325
71.575 20.196238
71.580 20.057467
71.585 20.678692
71.590 20.653278
71.595 20.748764
71.600 20.58181
71.605 20.736214
71.610 21.071743
71.615 20.724014
71.620 19.80072
71.625 19.613449
71.630 19.300003
71.635 19.222589
71.640 18.176805
71.645 17.64304
71.650 17.99192
71.655 18.146925
71.660 18.145332
71.665 17.465906
71.670 17.390215
71.675 18.344131
71.680 18.291756
71.685 17.971199
71.690 17.629404
71.695 17.813486
71.700 18.405573
71.705 18.996622
71.710 19.363653
71.715 19.437916
71.720 19.653154
71.725 19.777622
71.730 19.625828
71.735 19.699839
71.740 20.284428
71.745 19.718349
71.750 19.337576
71.755 19.371267
71.760 19.72987
71.765 19.697958
71.770 19.460764
71.775 18.913948
71.780 18.775961
71.785 18.851925
71.790 18.49369
71.795 18.103416
71.800 18.342854
71.805 18.396896
71.810 18.821289
71.815 19.163273
71.820 19.066414
71.825 18.960802
71.830 18.921671
71.835 18.066927
71.840 17.736553
71.845 17.518421
71.850 17.52998
71.855 17.631306
71.860 18.1607
71.865 19.307747
71.870 19.51025
71.875 20.090725
71.880 20.156145
71.885 20.619179
71.890 20.851101
71.895 20.262672
71.900 20.072104
71.905 20.182472
71.910 19.985201
71.915 19.723921
71.920 20.234243
71.925 20.441252
71.930 20.214849
71.935 20.060749
71.940 19.6891
71.945 19.151609
71.950 18.66194
71.955 18.277681
71.960 18.463779
71.965 18.430809
71.970 18.085505
71.975 18.706289
71.980 19.277042
71.985 19.55258
71.990 19.306129
71.995 19.489979
72.000 19.998411
72.005 20.293945
72.010 19.859312
72.015 19.667425
72.020 19.888964
72.025 19.902542
72.030 19.290262
72.035 18.916782
72.040 18.851488
72.045 18.413124
72.050 18.307552
72.055 18.164209
72.060 18.396446
72.065 18.637051
72.070 18.662144
72.075 18.423273
72.080 18.076067
72.085 18.137337
72.090 17.54859
72.095 16.781704
72.100 16.702946
72.105 16.901867
72.110 17.447258
72.115 17.767685
72.120 18.528732
72.125 19.881456
72.130 20.403179
72.135 20.842772
72.140 20.234068
72.145 20.510447
72.150 20.62915
72.155 19.958
72.160 19.173378
72.165 19.302454
72.170 19.351086
72.175 19.182413
72.180 18.615072
72.185 18.203049
72.190 18.794544
72.195 19.546402
72.200 19.945114
72.205 20.093756
72.210 20.191633
72.215 20.12022
72.220 19.921932
72.225 19.44463
72.230 18.432352
72.235 17.867529
72.240 18.270548
72.245 19.248106
72.250 19.592083
72.255 19.86871
72.260 19.804348
72.265 20.310623
72.270 20.25164
72.275 19.7307
72.280 18.972034
72.285 18.994106
72.290 18.740629
72.295 19.146952
72.300 19.348633
72.305 19.495234
72.310 19.526653
72.315 20.153036
72.320 20.003729
72.325 20.023951
72.330 19.069115
72.335 18.741047
72.340 18.935957
72.345 19.073818
72.350 18.465992
72.355 18.643345
72.360 18.894175
72.365 18.971046
72.370 18.708912
72.375 18.961718
72.380 18.833363
72.385 19.015827
72.390 18.146685
72.395 17.888069
72.400 18.305773
72.405 18.578709
72.410 18.368889
72.415 18.655603
72.420 18.800503
72.425 19.133095
72.430 18.866352
72.435 18.784359
72.440 18.360584
72.445 17.869457
72.450 18.10343
72.455 18.331348
72.460 18.638334
72.465 19.385189
72.470 19.25404
72.475 19.758198
72.480 19.832335
72.485 20.08461
72.490 20.305174
72.495 19.824808
72.500 19.512941
72.505 19.381573
72.510 18.911028
72.515 18.690165
72.520 18.569946
72.525 19.145699
72.530 19.066124
72.535 18.926563
72.540 18.896532
72.545 18.960022
72.550 19.00152
72.555 18.5408
72.560 18.193878
72.565 17.4963
72.570 17.085596
72.575 17.668062
72.580 17.888866
72.585 17.594839
72.590 17.122877
72.595 17.285955
72.600 18.241705
72.605 18.623285
72.610 17.992388
72.615 17.868773
72.620 18.403137
72.625 18.880335
72.630 18.589592
72.635 17.956404
72.640 17.577261
72.645 17.670172
72.650 17.621933
72.655 17.382858
72.660 17.564552
72.665 17.94698
72.670 18.041561
72.675 18.571505
72.680 18.380209
72.685 18.329962
72.690 18.10671
72.695 18.221622
72.700 17.903572
72.705 18.213987
72.710 17.729448
72.715 17.941847
72.720 18.565674
72.725 18.567823
72.730 18.415939
72.735 18.583469
72.740 18.284939
72.745 18.537754
72.750 18.725342
72.755 18.559628
72.760 18.317278
72.765 18.42288
72.770 18.423302
72.775 18.394361
72.780 18.233307
72.785 18.063103
72.790 17.661314
72.795 18.026796
72.800 17.951464
72.805 18.703901
72.810 19.267752
72.815 19.048048
72.820 19.172049
72.825 19.143894
72.830 19.023514
72.835 18.541115
72.840 17.31395
72.845 17.443163
72.850 17.614592
72.855 17.865814
72.860 17.982445
72.865 17.818714
72.870 18.229027
72.875 18.684141
72.880 18.173994
72.885 17.988565
72.890 17.643057
72.895 18.174229
72.900 18.615704
72.905 18.70443
72.910 18.494423
72.915 18.352137
72.920 18.057871
72.925 17.842628
72.930 17.320175
72.935 17.219656
72.940 17.928377
72.945 18.328144
72.950 18.46847
72.955 18.47884
72.960 18.232767
72.965 18.258574
72.970 18.296318
72.975 18.097425
72.980 18.045628
72.985 18.128548
72.990 18.872143
72.995 18.765026
73.000 18.03768
