!@!!GADDS PLOTSO FILE: Chi integration type
!@!!Title/SampleName: map-10
!@!!Comment: ?
!@!!User: Bruker Instrument Administrator
!@!!Site: University of Illinois Chicago
!@!!Frame: map-10_01_000.gfrm
!@!!Wavelengths    1.54184   1.54056   1.54439
!@!!Frame angles: 2Theta: 63.000 Omega: 50.000 Phi: 0.000 Chi: 90.000
!@!!Integration range: 2Theta: 53.000 to 73.000  Gamma: -105.000 to -75.000
!@!!Integration method: bin normalized
!@!N
!@!SS
!@!M
!@!L 0.0 0.0 0.0 0.0
!@!XDegrees
!@!YCounts
53.000 9.389359
53.005 9.698808
53.010 9.539467
53.015 9.289403
53.020 9.20883
53.025 9.178831
53.030 9.291652
53.035 9.063357
53.040 8.913444
53.045 9.384353
53.050 9.592789
53.055 9.787705
53.060 9.357512
53.065 9.268948
53.070 9.212766
53.075 9.233587
53.080 8.888288
53.085 8.43859
53.090 8.459517
53.095 8.429405
53.100 8.607417
53.105 8.788485
53.110 8.633221
53.115 8.676812
53.120 8.823723
53.125 8.926708
53.130 9.337218
53.135 9.563492
53.140 9.460678
53.145 9.756262
53.150 9.960485
53.155 10.114667
53.160 9.909791
53.165 9.88422
53.170 9.471781
53.175 8.93609
53.180 8.614713
53.185 8.842824
53.190 9.104899
53.195 9.128901
53.200 8.737134
53.205 9.070762
53.210 9.441578
53.215 9.149275
53.220 8.714541
53.225 9.034094
53.230 9.147353
53.235 9.473929
53.240 9.151229
53.245 9.182467
53.250 9.435195
53.255 9.548477
53.260 9.386836
53.265 9.023544
53.270 8.942001
53.275 9.117356
53.280 8.905509
53.285 8.59736
53.290 8.801326
53.295 8.738548
53.300 8.92944
53.305 9.22745
53.310 9.189842
53.315 9.517612
53.320 9.78564
53.325 9.833467
53.330 10.068526
53.335 9.989542
53.340 9.562167
53.345 10.025691
53.350 10.25107
53.355 10.230756
53.360 10.123391
53.365 10.254174
53.370 10.522635
53.375 10.807623
53.380 10.678456
53.385 10.110772
53.390 9.96173
53.395 9.432697
53.400 9.132507
53.405 8.507027
53.410 8.314231
53.415 8.557176
53.420 8.930723
53.425 9.221776
53.430 9.468057
53.435 9.999181
53.440 10.271185
53.445 10.421185
53.450 10.401734
53.455 10.751021
53.460 11.043279
53.465 10.994522
53.470 10.914605
53.475 11.252402
53.480 10.988109
53.485 10.873019
53.490 10.579143
53.495 10.458401
53.500 10.440851
53.505 10.63417
53.510 10.393995
53.515 10.38144
53.520 10.668708
53.525 10.715147
53.530 10.419824
53.535 10.178649
53.540 9.489955
53.545 9.527382
53.550 9.322944
53.555 8.985835
53.560 9.288033
53.565 9.647195
53.570 9.987082
53.575 9.974061
53.580 9.852822
53.585 9.847461
53.590 9.841488
53.595 9.455288
53.600 9.700688
53.605 9.701236
53.610 9.765854
53.615 9.820865
53.620 9.470521
53.625 9.261324
53.630 9.352237
53.635 9.070823
53.640 9.083535
53.645 9.399126
53.650 9.777293
53.655 10.195255
53.660 10.070396
53.665 10.130802
53.670 10.371589
53.675 10.330005
53.680 10.124152
53.685 9.707482
53.690 9.772412
53.695 9.928755
53.700 9.945498
53.705 10.059445
53.710 10.466431
53.715 10.619835
53.720 10.969522
53.725 10.792614
53.730 10.737535
53.735 10.840323
53.740 10.951966
53.745 10.699849
53.750 10.358364
53.755 10.310982
53.760 10.4348
53.765 10.454147
53.770 10.290796
53.775 10.401923
53.780 10.580453
53.785 10.778873
53.790 10.260309
53.795 10.178292
53.800 10.179456
53.805 10.089211
53.810 10.025587
53.815 9.851319
53.820 10.079415
53.825 10.333007
53.830 9.897725
53.835 9.562848
53.840 9.428908
53.845 9.427515
53.850 10.051177
53.855 9.818343
53.860 10.22708
53.865 10.6733
53.870 10.70882
53.875 11.263336
53.880 11.815541
53.885 11.717657
53.890 12.050622
53.895 12.027181
53.900 12.120666
53.905 12.61517
53.910 11.857095
53.915 11.300387
53.920 11.061183
53.925 10.600833
53.930 10.277254
53.935 10.004187
53.940 9.695043
53.945 9.705697
53.950 9.47323
53.955 9.481594
53.960 10.135521
53.965 10.391961
53.970 10.522721
53.975 10.744089
53.980 10.980198
53.985 10.99862
53.990 11.139388
53.995 10.68243
54.000 10.798951
54.005 10.421062
54.010 10.429512
54.015 10.464754
54.020 11.031074
54.025 10.937894
54.030 11.245725
54.035 11.326055
54.040 11.484312
54.045 10.968668
54.050 10.37259
54.055 10.039831
54.060 9.974296
54.065 9.845195
54.070 9.611641
54.075 9.33564
54.080 9.770077
54.085 9.780395
54.090 9.669807
54.095 9.658111
54.100 9.232013
54.105 9.451071
54.110 9.685115
54.115 9.756774
54.120 10.029842
54.125 10.448278
54.130 10.401314
54.135 10.880674
54.140 10.965248
54.145 10.735543
54.150 10.722301
54.155 10.685856
54.160 10.56275
54.165 10.397254
54.170 10.185633
54.175 10.400468
54.180 10.35357
54.185 10.177274
54.190 9.630067
54.195 9.197003
54.200 9.284073
54.205 9.18786
54.210 8.965636
54.215 9.091016
54.220 9.329796
54.225 10.19305
54.230 10.654285
54.235 11.019631
54.240 10.822109
54.245 11.199464
54.250 11.671175
54.255 11.639737
54.260 11.617375
54.265 11.766542
54.270 11.119629
54.275 11.011601
54.280 10.471807
54.285 10.206698
54.290 9.945392
54.295 9.759199
54.300 10.021868
54.305 10.613049
54.310 10.886443
54.315 11.181211
54.320 11.608914
54.325 11.802004
54.330 11.451419
54.335 11.492233
54.340 11.603249
54.345 11.930556
54.350 11.570048
54.355 10.833685
54.360 11.158659
54.365 10.894642
54.370 11.052905
54.375 11.017386
54.380 10.938754
54.385 11.387398
54.390 11.554627
54.395 11.30116
54.400 11.674577
54.405 11.323838
54.410 11.007187
54.415 10.782668
54.420 10.70203
54.425 11.099516
54.430 11.888788
54.435 12.167103
54.440 12.565678
54.445 12.769521
54.450 12.628191
54.455 12.164065
54.460 11.792008
54.465 11.221892
54.470 10.597095
54.475 10.436822
54.480 10.673284
54.485 10.831371
54.490 11.261675
54.495 11.374314
54.500 11.305555
54.505 11.967119
54.510 11.967667
54.515 12.048257
54.520 12.126654
54.525 11.399065
54.530 11.334616
54.535 11.406033
54.540 10.89387
54.545 10.973267
54.550 10.440961
54.555 10.602495
54.560 10.62972
54.565 10.386134
54.570 10.476454
54.575 10.381983
54.580 10.324084
54.585 11.044433
54.590 11.137105
54.595 11.388691
54.600 11.20625
54.605 11.273184
54.610 11.585843
54.615 11.264778
54.620 10.505178
54.625 10.106024
54.630 10.248381
54.635 10.283534
54.640 10.335149
54.645 10.334754
54.650 10.617241
54.655 11.257382
54.660 11.535844
54.665 11.494934
54.670 11.751695
54.675 11.225076
54.680 11.18163
54.685 11.000034
54.690 10.798251
54.695 10.94256
54.700 10.871585
54.705 10.812374
54.710 10.63669
54.715 10.704576
54.720 10.616371
54.725 10.780398
54.730 10.777663
54.735 10.366397
54.740 10.114226
54.745 10.664038
54.750 10.76354
54.755 11.047686
54.760 10.60034
54.765 10.446972
54.770 10.859098
54.775 10.957585
54.780 10.033319
54.785 9.842965
54.790 10.130664
54.795 9.979242
54.800 10.089655
54.805 10.175363
54.810 11.127981
54.815 11.686579
54.820 11.484436
54.825 11.68047
54.830 12.414556
54.835 12.549862
54.840 12.021813
54.845 11.948299
54.850 12.180921
54.855 12.033725
54.860 11.523711
54.865 11.305493
54.870 11.496729
54.875 12.037742
54.880 11.574132
54.885 11.674013
54.890 11.805478
54.895 11.780552
54.900 11.867697
54.905 11.542929
54.910 11.174558
54.915 11.437796
54.920 11.42743
54.925 11.519618
54.930 11.306874
54.935 11.035926
54.940 11.149995
54.945 10.800632
54.950 10.485027
54.955 10.677196
54.960 11.122637
54.965 11.683018
54.970 11.756494
54.975 11.628633
54.980 12.162276
54.985 12.347775
54.990 11.947308
54.995 11.576828
55.000 11.243796
55.005 11.496826
55.010 11.67334
55.015 11.594813
55.020 11.351786
55.025 11.603084
55.030 12.061334
55.035 12.238169
55.040 12.107144
55.045 11.684023
55.050 11.589337
55.055 11.807495
55.060 11.177649
55.065 10.703175
55.070 10.667992
55.075 11.171198
55.080 11.646937
55.085 11.763251
55.090 11.921376
55.095 12.241819
55.100 12.274583
55.105 12.233848
55.110 11.987768
55.115 12.090902
55.120 11.68673
55.125 11.689101
55.130 11.635602
55.135 11.454275
55.140 11.364525
55.145 11.329597
55.150 11.011033
55.155 11.515667
55.160 11.580855
55.165 11.585114
55.170 11.577691
55.175 11.63359
55.180 11.479888
55.185 11.712455
55.190 11.512949
55.195 11.427694
55.200 11.232466
55.205 11.508001
55.210 11.984753
55.215 12.802335
55.220 12.713778
55.225 12.720659
55.230 12.847202
55.235 13.150848
55.240 13.323061
55.245 13.083158
55.250 12.755428
55.255 12.681828
55.260 13.01123
55.265 12.968709
55.270 12.573862
55.275 12.352361
55.280 12.143952
55.285 12.359529
55.290 12.659976
55.295 12.215591
55.300 11.983982
55.305 11.574107
55.310 11.599776
55.315 11.633467
55.320 11.606695
55.325 11.576574
55.330 12.033905
55.335 12.609935
55.340 13.183054
55.345 13.368186
55.350 13.414302
55.355 13.237395
55.360 13.472169
55.365 13.248723
55.370 13.346203
55.375 13.302191
55.380 13.08444
55.385 12.72589
55.390 12.555092
55.395 12.277349
55.400 12.256283
55.405 12.045163
55.410 11.462606
55.415 11.324406
55.420 10.916373
55.425 10.761661
55.430 10.716439
55.435 10.590655
55.440 10.756132
55.445 10.865703
55.450 11.277613
55.455 11.514362
55.460 11.430385
55.465 11.874277
55.470 12.650061
55.475 13.046671
55.480 13.246883
55.485 12.992553
55.490 13.15182
55.495 13.81243
55.500 13.602367
55.505 13.102953
55.510 12.735372
55.515 12.511621
55.520 12.430202
55.525 12.278543
55.530 11.527704
55.535 10.887821
55.540 10.285478
55.545 10.425426
55.550 10.892531
55.555 11.341986
55.560 11.34503
55.565 11.61163
55.570 11.746942
55.575 12.21009
55.580 12.438284
55.585 12.368657
55.590 12.15761
55.595 12.014359
55.600 11.958452
55.605 12.08361
55.610 12.027217
55.615 11.485613
55.620 11.117525
55.625 11.463524
55.630 11.321629
55.635 11.432375
55.640 11.312949
55.645 10.818315
55.650 10.886831
55.655 11.292392
55.660 10.94824
55.665 11.310301
55.670 11.296862
55.675 11.497681
55.680 11.89402
55.685 11.96599
55.690 12.055358
55.695 12.025146
55.700 11.785575
55.705 11.260757
55.710 11.466347
55.715 11.56824
55.720 11.521663
55.725 11.536883
55.730 11.882523
55.735 11.639353
55.740 11.672262
55.745 11.638312
55.750 11.925086
55.755 11.790278
55.760 11.700817
55.765 11.531082
55.770 11.864697
55.775 12.182766
55.780 12.252193
55.785 12.296621
55.790 12.112728
55.795 11.635989
55.800 11.106258
55.805 11.030142
55.810 10.805058
55.815 10.307477
55.820 10.546338
55.825 11.043888
55.830 11.811981
55.835 12.359756
55.840 12.781032
55.845 13.176487
55.850 13.244273
55.855 13.372368
55.860 13.234557
55.865 13.047413
55.870 12.874597
55.875 12.671767
55.880 12.633632
55.885 12.82487
55.890 13.261246
55.895 13.303096
55.900 12.964711
55.905 13.38644
55.910 14.173825
55.915 14.70952
55.920 14.903489
55.925 14.731684
55.930 14.814401
55.935 15.297537
55.940 15.517186
55.945 15.270395
55.950 14.867411
55.955 14.438929
55.960 14.034734
55.965 14.253635
55.970 14.09866
55.975 13.424964
55.980 13.686193
55.985 13.5102
55.990 13.533886
55.995 13.778038
56.000 13.51807
56.005 13.563881
56.010 13.539063
56.015 12.922442
56.020 12.578269
56.025 12.62519
56.030 12.779082
56.035 12.997267
56.040 13.278043
56.045 12.975907
56.050 12.963223
56.055 13.300184
56.060 13.165733
56.065 13.060029
56.070 13.100677
56.075 13.163466
56.080 13.046871
56.085 13.43672
56.090 13.449842
56.095 13.393475
56.100 13.246065
56.105 12.975639
56.110 12.698635
56.115 13.074144
56.120 12.854877
56.125 13.138431
56.130 12.99356
56.135 13.323313
56.140 13.455019
56.145 13.83262
56.150 13.932472
56.155 13.695435
56.160 13.653995
56.165 13.283936
56.170 13.099202
56.175 12.984923
56.180 12.624726
56.185 12.362467
56.190 12.32554
56.195 12.642035
56.200 13.047933
56.205 13.250389
56.210 13.456014
56.215 13.990401
56.220 14.764476
56.225 14.740284
56.230 15.15223
56.235 15.109008
56.240 14.812066
56.245 15.211503
56.250 14.913432
56.255 14.315003
56.260 14.019487
56.265 13.68674
56.270 13.827566
56.275 13.839513
56.280 13.025113
56.285 12.678955
56.290 13.035408
56.295 13.196936
56.300 13.295746
56.305 13.279275
56.310 13.613066
56.315 13.569786
56.320 13.334202
56.325 12.63889
56.330 12.1119
56.335 11.936048
56.340 11.923351
56.345 12.033643
56.350 11.995794
56.355 12.024093
56.360 12.147032
56.365 12.252231
56.370 12.367132
56.375 11.923339
56.380 11.565047
56.385 12.198531
56.390 12.744061
56.395 12.614795
56.400 13.044088
56.405 12.927608
56.410 12.942615
56.415 13.045807
56.420 12.8277
56.425 13.525434
56.430 13.853864
56.435 13.713099
56.440 13.979251
56.445 13.91744
56.450 14.032294
56.455 13.806357
56.460 13.716926
56.465 13.878221
56.470 13.795397
56.475 14.045879
56.480 14.196496
56.485 13.939028
56.490 14.788576
56.495 14.443959
56.500 14.201644
56.505 14.553536
56.510 14.471488
56.515 14.739195
56.520 14.56827
56.525 13.789945
56.530 13.671005
56.535 13.674297
56.540 13.107065
56.545 12.452052
56.550 12.332253
56.555 12.68983
56.560 12.651052
56.565 12.60031
56.570 12.198964
56.575 12.562714
56.580 13.113604
56.585 13.327438
56.590 13.918976
56.595 14.692889
56.600 14.997736
56.605 15.217623
56.610 15.210222
56.615 15.206036
56.620 14.85036
56.625 13.901123
56.630 13.027842
56.635 12.663996
56.640 12.406684
56.645 12.336266
56.650 12.227016
56.655 12.293067
56.660 12.947656
56.665 13.512608
56.670 13.742845
56.675 13.771742
56.680 13.96436
56.685 14.292238
56.690 14.761953
56.695 14.151007
56.700 14.286156
56.705 14.667818
56.710 14.732297
56.715 14.602506
56.720 14.003519
56.725 13.809242
56.730 14.531853
56.735 14.134625
56.740 14.437909
56.745 14.5339
56.750 14.503067
56.755 14.982971
56.760 14.890751
56.765 14.722413
56.770 15.277251
56.775 15.558369
56.780 15.616242
56.785 15.656911
56.790 15.542619
56.795 15.555463
56.800 15.661774
56.805 15.026299
56.810 14.754183
56.815 14.41712
56.820 14.689238
56.825 14.724624
56.830 14.531772
56.835 14.481507
56.840 14.246203
56.845 13.932472
56.850 14.203823
56.855 13.709201
56.860 13.699477
56.865 13.856244
56.870 13.54507
56.875 13.728965
56.880 14.027452
56.885 13.955015
56.890 14.18715
56.895 13.938699
56.900 14.054347
56.905 14.450925
56.910 14.313649
56.915 13.753286
56.920 13.424749
56.925 13.093459
56.930 13.318655
56.935 13.000566
56.940 12.158953
56.945 12.658136
56.950 12.783992
56.955 12.673803
56.960 12.837503
56.965 12.782681
56.970 13.243564
56.975 13.700334
56.980 14.015008
56.985 14.271427
56.990 14.873842
56.995 15.351896
57.000 15.526105
57.005 15.235826
57.010 14.932092
57.015 14.487107
57.020 15.148699
57.025 15.285281
57.030 14.639252
57.035 14.831832
57.040 15.215102
57.045 15.682557
57.050 16.218233
57.055 15.686533
57.060 15.12691
57.065 15.409546
57.070 15.138223
57.075 14.773986
57.080 14.535293
57.085 13.771518
57.090 13.795393
57.095 13.776173
57.100 13.453433
57.105 13.482049
57.110 13.184494
57.115 13.425646
57.120 13.50322
57.125 14.098864
57.130 14.27886
57.135 14.894791
57.140 14.811684
57.145 14.690214
57.150 13.920456
57.155 13.421558
57.160 13.226697
57.165 13.193002
57.170 12.838739
57.175 13.126373
57.180 13.371404
57.185 13.952806
57.190 14.317624
57.195 14.012325
57.200 14.181126
57.205 14.41379
57.210 14.417576
57.215 14.725098
57.220 14.926719
57.225 15.076021
57.230 14.644589
57.235 14.154134
57.240 13.774814
57.245 13.496737
57.250 13.09549
57.255 12.813217
57.260 13.019389
57.265 13.477801
57.270 13.490855
57.275 13.834852
57.280 14.533189
57.285 15.019573
57.290 15.474896
57.295 15.228562
57.300 15.23117
57.305 15.190212
57.310 15.057218
57.315 15.238703
57.320 15.574714
57.325 15.758835
57.330 15.88077
57.335 16.153545
57.340 16.256536
57.345 15.799889
57.350 15.033278
57.355 14.415093
57.360 14.756716
57.365 14.61898
57.370 14.49073
57.375 14.598812
57.380 15.053156
57.385 14.980404
57.390 14.894785
57.395 14.562329
57.400 14.849626
57.405 15.105185
57.410 14.813432
57.415 14.569438
57.420 14.888256
57.425 14.812186
57.430 14.517324
57.435 14.120993
57.440 13.890988
57.445 14.121641
57.450 14.329709
57.455 14.220814
57.460 14.32814
57.465 14.611156
57.470 14.982715
57.475 15.413537
57.480 15.56763
57.485 15.308923
57.490 15.337558
57.495 15.025622
57.500 14.673495
57.505 14.521334
57.510 13.731359
57.515 13.781456
57.520 14.384001
57.525 14.577307
57.530 14.764347
57.535 14.883204
57.540 15.040772
57.545 15.140459
57.550 15.048726
57.555 14.713008
57.560 14.760618
57.565 14.915434
57.570 15.034856
57.575 14.717036
57.580 14.821763
57.585 15.298383
57.590 15.016816
57.595 14.477684
57.600 13.969552
57.605 14.131991
57.610 14.366272
57.615 14.060368
57.620 13.983892
57.625 14.559723
57.630 15.02559
57.635 15.049024
57.640 14.572399
57.645 13.949525
57.650 13.805819
57.655 13.374662
57.660 13.354058
57.665 13.075467
57.670 13.095184
57.675 13.796894
57.680 14.563874
57.685 14.537768
57.690 14.726778
57.695 14.612127
57.700 14.499956
57.705 14.446698
57.710 13.978514
57.715 13.7051
57.720 13.683412
57.725 13.798849
57.730 13.845363
57.735 13.889734
57.740 13.981538
57.745 14.536057
57.750 15.022308
57.755 14.971821
57.760 14.690842
57.765 14.54276
57.770 15.049412
57.775 15.082051
57.780 14.463182
57.785 14.353461
57.790 14.359823
57.795 13.973195
57.800 13.68955
57.805 13.237039
57.810 12.664989
57.815 12.98861
57.820 13.469544
57.825 13.41905
57.830 14.039784
57.835 14.227851
57.840 14.487514
57.845 15.082216
57.850 14.905924
57.855 14.263441
57.860 14.235718
57.865 13.70368
57.870 13.817987
57.875 13.889962
57.880 13.631674
57.885 14.099671
57.890 14.474753
57.895 14.387641
57.900 14.691936
57.905 14.122552
57.910 13.810173
57.915 14.046123
57.920 13.748374
57.925 13.372113
57.930 13.65195
57.935 13.950002
57.940 14.51695
57.945 14.610929
57.950 14.332248
57.955 13.715988
57.960 13.573085
57.965 13.103912
57.970 12.425733
57.975 12.606184
57.980 12.819451
57.985 13.14182
57.990 13.549664
57.995 14.035728
58.000 14.30794
58.005 14.918476
58.010 14.884507
58.015 14.868281
58.020 15.300462
58.025 15.264912
58.030 15.285591
58.035 15.500046
58.040 15.932372
58.045 16.047468
58.050 16.128477
58.055 16.175587
58.060 16.759605
58.065 16.429617
58.070 16.239433
58.075 15.860638
58.080 15.489866
58.085 15.084344
58.090 14.966014
58.095 14.377866
58.100 14.795617
58.105 15.54962
58.110 15.630659
58.115 16.087446
58.120 16.432074
58.125 16.133747
58.130 16.272108
58.135 16.11804
58.140 15.295341
58.145 14.727997
58.150 14.193017
58.155 13.993366
58.160 14.188747
58.165 14.528846
58.170 15.040297
58.175 15.459991
58.180 15.713503
58.185 15.89573
58.190 16.080566
58.195 16.607904
58.200 16.204193
58.205 15.994616
58.210 16.048222
58.215 16.22788
58.220 16.491217
58.225 16.534983
58.230 15.963652
58.235 16.120844
58.240 15.919463
58.245 15.753089
58.250 15.456216
58.255 14.969209
58.260 14.556997
58.265 14.548396
58.270 14.829261
58.275 15.050264
58.280 15.060097
58.285 15.197116
58.290 15.298369
58.295 15.679504
58.300 15.80726
58.305 15.687526
58.310 15.705092
58.315 15.597232
58.320 15.055735
58.325 14.952504
58.330 14.794649
58.335 14.821687
58.340 14.819283
58.345 14.591918
58.350 14.334722
58.355 14.739019
58.360 14.789869
58.365 14.578478
58.370 14.514956
58.375 14.157644
58.380 13.982468
58.385 14.255082
58.390 14.22844
58.395 14.274778
58.400 14.270119
58.405 14.329144
58.410 14.161406
58.415 14.129601
58.420 14.586525
58.425 15.053586
58.430 14.890756
58.435 15.348979
58.440 15.858364
58.445 16.718779
58.450 17.205099
58.455 17.266344
58.460 16.953621
58.465 17.381033
58.470 17.221245
58.475 16.593201
58.480 15.818416
58.485 15.649371
58.490 15.40221
58.495 16.063295
58.500 15.715147
58.505 15.597026
58.510 15.32075
58.515 15.397914
58.520 15.238739
58.525 15.446605
58.530 14.88168
58.535 14.678343
58.540 14.879479
58.545 15.314092
58.550 15.828246
58.555 16.170712
58.560 16.213196
58.565 16.441193
58.570 16.883505
58.575 16.47929
58.580 16.507677
58.585 15.746232
58.590 15.086765
58.595 14.699138
58.600 14.365035
58.605 14.15169
58.610 14.269268
58.615 14.424895
58.620 15.046867
58.625 15.619707
58.630 16.048559
58.635 16.595497
58.640 17.134903
58.645 17.269232
58.650 17.402363
58.655 17.441273
58.660 17.071192
58.665 16.617178
58.670 16.442976
58.675 16.101263
58.680 15.947931
58.685 16.016186
58.690 15.752902
58.695 16.689194
58.700 16.819944
58.705 16.509018
58.710 16.54561
58.715 16.211214
58.720 15.273891
58.725 15.187698
58.730 14.543996
58.735 15.09801
58.740 15.395601
58.745 15.833436
58.750 16.147856
58.755 16.46184
58.760 17.154343
58.765 17.067909
58.770 16.412481
58.775 16.100597
58.780 15.994948
58.785 16.303259
58.790 16.340258
58.795 16.331377
58.800 16.509975
58.805 17.01265
58.810 17.113255
58.815 17.169456
58.820 17.163628
58.825 17.27005
58.830 16.936285
58.835 16.964874
58.840 16.777634
58.845 16.299215
58.850 15.70624
58.855 15.70389
58.860 15.093506
58.865 15.120027
58.870 15.251405
58.875 15.059198
58.880 15.213675
58.885 15.676239
58.890 15.775644
58.895 16.237816
58.900 16.386944
58.905 16.504166
58.910 16.298412
58.915 16.106012
58.920 15.307283
58.925 14.840619
58.930 14.6829
58.935 14.296749
58.940 14.28012
58.945 14.76336
58.950 15.231927
58.955 14.963398
58.960 14.61656
58.965 14.504804
58.970 14.433753
58.975 14.068478
58.980 13.787395
58.985 13.446761
58.990 14.676867
58.995 15.339106
59.000 15.417068
59.005 15.617435
59.010 16.366947
59.015 17.467335
59.020 17.510618
59.025 17.460032
59.030 17.574972
59.035 17.718267
59.040 17.739395
59.045 17.35631
59.050 16.969707
59.055 17.04748
59.060 16.633299
59.065 16.399132
59.070 16.584774
59.075 16.156891
59.080 16.17174
59.085 15.680862
59.090 15.893544
59.095 15.87648
59.100 15.804331
59.105 15.440671
59.110 15.566257
59.115 15.572374
59.120 15.754281
59.125 15.532374
59.130 15.883617
59.135 15.754429
59.140 16.009186
59.145 16.332951
59.150 16.305611
59.155 16.431391
59.160 16.278494
59.165 16.122282
59.170 16.775053
59.175 16.384485
59.180 16.176764
59.185 16.163445
59.190 16.708626
59.195 17.422508
59.200 17.432573
59.205 17.408499
59.210 17.993835
59.215 17.686171
59.220 17.321268
59.225 16.589579
59.230 16.207972
59.235 15.733004
59.240 15.532971
59.245 15.425235
59.250 16.000607
59.255 15.954873
59.260 15.894452
59.265 15.41228
59.270 15.356315
59.275 15.518929
59.280 15.258491
59.285 15.634999
59.290 16.593779
59.295 17.10792
59.300 17.966339
59.305 18.116676
59.310 17.918554
59.315 18.055183
59.320 17.515474
59.325 17.061329
59.330 16.883808
59.335 16.868786
59.340 17.617636
59.345 17.563715
59.350 17.351885
59.355 17.457537
59.360 17.296497
59.365 17.055254
59.370 16.387226
59.375 15.870969
59.380 15.77102
59.385 15.858973
59.390 16.614391
59.395 16.721199
59.400 16.654684
59.405 17.297243
59.410 17.199158
59.415 16.926386
59.420 16.779253
59.425 16.660027
59.430 16.899694
59.435 17.28805
59.440 17.216085
59.445 17.179094
59.450 17.360609
59.455 17.14172
59.460 17.343075
59.465 17.144327
59.470 17.055328
59.475 16.600868
59.480 16.660553
59.485 17.114613
59.490 17.595709
59.495 17.268465
59.500 17.534765
59.505 17.980284
59.510 18.212246
59.515 18.604853
59.520 18.628759
59.525 18.672075
59.530 18.240692
59.535 18.356827
59.540 18.101784
59.545 17.939955
59.550 17.49839
59.555 17.185522
59.560 17.135075
59.565 17.777031
59.570 17.912125
59.575 17.596876
59.580 17.62924
59.585 17.374826
59.590 17.269945
59.595 17.314863
59.600 17.372684
59.605 17.348099
59.610 17.72456
59.615 18.024244
59.620 18.455412
59.625 18.63146
59.630 18.193176
59.635 17.683681
59.640 17.534554
59.645 17.312599
59.650 17.451918
59.655 17.364836
59.660 17.608639
59.665 17.838692
59.670 17.685581
59.675 17.742306
59.680 18.085684
59.685 17.880814
59.690 17.637232
59.695 17.346443
59.700 17.930643
59.705 17.941071
59.710 17.654007
59.715 17.112123
59.720 17.10693
59.725 17.532639
59.730 17.798939
59.735 17.526968
59.740 17.986898
59.745 18.225563
59.750 18.394711
59.755 18.706541
59.760 18.664253
59.765 17.960932
59.770 17.038406
59.775 16.871977
59.780 17.323793
59.785 17.56019
59.790 16.982502
59.795 16.612968
59.800 17.17696
59.805 17.830475
59.810 17.889711
59.815 17.682076
59.820 18.027733
59.825 18.746143
59.830 19.072472
59.835 19.015276
59.840 18.987753
59.845 18.633417
59.850 18.275557
59.855 18.322268
59.860 17.982063
59.865 18.286701
59.870 18.187674
59.875 17.712318
59.880 18.397432
59.885 18.233175
59.890 18.256498
59.895 18.736103
59.900 18.819571
59.905 19.306141
59.910 20.390953
59.915 20.282328
59.920 20.47183
59.925 20.278288
59.930 19.662708
59.935 19.618141
59.940 19.521151
59.945 19.016611
59.950 19.228849
59.955 19.886688
59.960 20.187929
59.965 20.845747
59.970 20.669342
59.975 20.563208
59.980 20.53507
59.985 20.746782
59.990 20.598795
59.995 20.245205
60.000 20.159893
60.005 20.519373
60.010 20.763954
60.015 20.952023
60.020 20.858261
60.025 20.846674
60.030 21.391291
60.035 21.325756
60.040 21.47497
60.045 21.71244
60.050 22.722391
60.055 22.866949
60.060 22.53418
60.065 22.361954
60.070 22.553782
60.075 22.662468
60.080 22.160528
60.085 21.831003
60.090 21.941828
60.095 22.506313
60.100 22.723492
60.105 22.869406
60.110 22.735926
60.115 22.7927
60.120 21.954239
60.125 21.911255
60.130 21.478163
60.135 21.692684
60.140 21.706514
60.145 21.83296
60.150 21.206856
60.155 21.157845
60.160 21.204794
60.165 21.607635
60.170 21.145845
60.175 21.055134
60.180 20.622015
60.185 21.0527
60.190 21.552582
60.195 21.153572
60.200 21.157822
60.205 21.41375
60.210 21.316456
60.215 21.539949
60.220 20.967747
60.225 20.601635
60.230 20.566114
60.235 20.681179
60.240 20.985527
60.245 21.43647
60.250 22.067564
60.255 23.038147
60.260 22.984694
60.265 22.769632
60.270 22.244122
60.275 21.612118
60.280 21.291649
60.285 20.730759
60.290 20.365202
60.295 20.804434
60.300 20.897913
60.305 20.347479
60.310 20.431171
60.315 20.382206
60.320 20.594961
60.325 20.818556
60.330 20.372562
60.335 20.695259
60.340 21.631073
60.345 21.641151
60.350 22.021179
60.355 22.11598
60.360 22.00279
60.365 22.357073
60.370 22.125372
60.375 21.738047
60.380 22.273169
60.385 22.353899
60.390 22.245831
60.395 22.327797
60.400 22.638144
60.405 22.811304
60.410 22.870537
60.415 22.300938
60.420 21.997393
60.425 22.160166
60.430 22.413906
60.435 22.771397
60.440 23.078899
60.445 22.52606
60.450 22.294968
60.455 22.529997
60.460 22.119865
60.465 21.184114
60.470 21.013779
60.475 21.41774
60.480 22.275959
60.485 22.175291
60.490 21.861231
60.495 22.314707
60.500 22.945614
60.505 23.118103
60.510 22.930782
60.515 22.479298
60.520 22.698812
60.525 23.134375
60.530 22.861721
60.535 21.784903
60.540 21.524792
60.545 21.599669
60.550 21.522629
60.555 21.668493
60.560 21.047304
60.565 20.993498
60.570 20.648245
60.575 20.614183
60.580 20.498238
60.585 20.719795
60.590 20.482584
60.595 20.48175
60.600 21.035677
60.605 21.96034
60.610 21.762148
60.615 21.819983
60.620 21.300413
60.625 20.638033
60.630 21.09095
60.635 20.612516
60.640 20.158312
60.645 19.332758
60.650 19.000723
60.655 18.957899
60.660 19.453321
60.665 19.016241
60.670 18.684095
60.675 18.510992
60.680 19.3503
60.685 19.567242
60.690 19.382345
60.695 19.839041
60.700 19.650234
60.705 19.633656
60.710 19.278524
60.715 18.582619
60.720 18.430424
60.725 18.645702
60.730 18.265533
60.735 18.063416
60.740 18.494696
60.745 18.69499
60.750 18.86466
60.755 19.059752
60.760 19.215708
60.765 18.894966
60.770 19.001005
60.775 18.277382
60.780 18.290707
60.785 18.506254
60.790 18.566935
60.795 18.488087
60.800 18.489594
60.805 18.499704
60.810 19.623543
60.815 20.25491
60.820 20.332581
60.825 20.08466
60.830 20.433718
60.835 21.011724
60.840 21.341236
60.845 20.700081
60.850 19.749701
60.855 19.504808
60.860 19.498596
60.865 19.282206
60.870 18.918135
60.875 18.751543
60.880 19.05727
60.885 19.173866
60.890 18.534365
60.895 17.782764
60.900 17.541172
60.905 17.374146
60.910 17.255701
60.915 16.4555
60.920 16.191998
60.925 16.424765
60.930 16.88698
60.935 16.901237
60.940 16.681627
60.945 16.479094
60.950 17.084074
60.955 17.498587
60.960 17.622473
60.965 17.085787
60.970 16.791094
60.975 17.027197
60.980 17.473297
60.985 17.83511
60.990 18.223558
60.995 19.064554
61.000 19.603653
61.005 20.029547
61.010 20.6292
61.015 20.091928
61.020 19.878206
61.025 19.420282
61.030 18.7533
61.035 18.70676
61.040 18.184797
61.045 17.69302
61.050 18.086199
61.055 17.744221
61.060 17.849148
61.065 18.120731
61.070 18.562189
61.075 19.237118
61.080 19.340536
61.085 18.953142
61.090 18.799095
61.095 18.381788
61.100 17.826286
61.105 17.776031
61.110 17.605093
61.115 17.582516
61.120 18.057228
61.125 18.319353
61.130 18.70232
61.135 18.699949
61.140 18.023743
61.145 17.928869
61.150 18.07365
61.155 17.487194
61.160 17.615471
61.165 17.74828
61.170 17.779295
61.175 18.223057
61.180 18.117161
61.185 17.728878
61.190 18.184872
61.195 19.261837
61.200 19.584917
61.205 19.885275
61.210 19.606571
61.215 19.205828
61.220 19.545223
61.225 19.256212
61.230 18.394527
61.235 17.710777
61.240 17.287394
61.245 17.514463
61.250 18.200191
61.255 18.284853
61.260 18.266869
61.265 18.426727
61.270 18.605141
61.275 18.603769
61.280 18.519169
61.285 17.98037
61.290 17.565409
61.295 17.863401
61.300 17.255735
61.305 16.987688
61.310 16.960506
61.315 16.916056
61.320 17.13846
61.325 16.906588
61.330 16.186611
61.335 16.355936
61.340 16.757044
61.345 16.636124
61.350 16.254816
61.355 16.574486
61.360 17.204708
61.365 17.071091
61.370 16.603348
61.375 15.741483
61.380 15.548049
61.385 15.742579
61.390 15.350667
61.395 14.751781
61.400 15.45963
61.405 15.907008
61.410 16.923269
61.415 17.213902
61.420 17.22879
61.425 17.191381
61.430 17.484444
61.435 17.357769
61.440 17.876291
61.445 18.201895
61.450 18.786615
61.455 19.136892
61.460 19.200518
61.465 19.44248
61.470 19.150932
61.475 18.937973
61.480 18.674101
61.485 18.386667
61.490 18.141914
61.495 17.886581
61.500 17.911749
61.505 17.395266
61.510 16.623507
61.515 16.484896
61.520 15.637698
61.525 15.550778
61.530 15.658167
61.535 15.762383
61.540 16.061745
61.545 16.581093
61.550 16.970892
61.555 18.418242
61.560 19.527792
61.565 20.035223
61.570 20.031546
61.575 20.600044
61.580 21.050369
61.585 20.827471
61.590 20.329922
61.595 19.660812
61.600 18.780668
61.605 17.860376
61.610 17.824446
61.615 17.295044
61.620 17.103411
61.625 16.571329
61.630 16.310394
61.635 16.632263
61.640 17.400352
61.645 17.358089
61.650 17.399128
61.655 17.484766
61.660 17.591934
61.665 17.71311
61.670 17.630676
61.675 17.445707
61.680 17.065027
61.685 16.45558
61.690 16.379145
61.695 16.227036
61.700 16.047077
61.705 15.831534
61.710 16.08959
61.715 16.028671
61.720 16.244036
61.725 15.96268
61.730 16.011265
61.735 16.602818
61.740 16.847902
61.745 16.888325
61.750 17.149546
61.755 16.978907
61.760 17.439974
61.765 17.242517
61.770 17.471214
61.775 17.796465
61.780 17.781561
61.785 17.292328
61.790 17.394123
61.795 17.544643
61.800 18.148531
61.805 17.946281
61.810 17.485012
61.815 17.648891
61.820 18.056892
61.825 17.808033
61.830 17.68453
61.835 17.01029
61.840 16.443291
61.845 16.588936
61.850 16.930691
61.855 18.387871
61.860 19.136477
61.865 19.281969
61.870 19.791132
61.875 20.329824
61.880 20.531469
61.885 19.938389
61.890 18.873663
61.895 17.992088
61.900 17.711483
61.905 17.324652
61.910 17.470182
61.915 17.776445
61.920 18.14782
61.925 17.93199
61.930 17.569523
61.935 17.405174
61.940 17.297321
61.945 17.142035
61.950 16.644642
61.955 16.289272
61.960 16.019438
61.965 16.465921
61.970 16.620461
61.975 16.571644
61.980 16.153711
61.985 16.213552
61.990 16.038507
61.995 16.481102
62.000 16.46681
62.005 16.344551
62.010 16.714586
62.015 16.679777
62.020 16.341129
62.025 16.4813
62.030 16.030378
62.035 16.476753
62.040 16.571575
62.045 16.611992
62.050 16.844294
62.055 16.748562
62.060 16.580521
62.065 17.272219
62.070 17.027769
62.075 16.756792
62.080 16.689177
62.085 16.378994
62.090 16.390175
62.095 16.344927
62.100 16.183603
62.105 16.678278
62.110 17.095903
62.115 17.258707
62.120 17.456551
62.125 17.790905
62.130 18.320169
62.135 18.421825
62.140 18.141186
62.145 17.712164
62.150 16.876204
62.155 16.504889
62.160 16.632978
62.165 16.340416
62.170 16.609295
62.175 16.698477
62.180 17.236385
62.185 17.852827
62.190 18.481106
62.195 18.459208
62.200 18.282671
62.205 17.850124
62.210 17.470896
62.215 17.5228
62.220 17.475578
62.225 17.560625
62.230 17.160843
62.235 17.370672
62.240 17.959179
62.245 18.342396
62.250 18.288792
62.255 18.486027
62.260 18.288715
62.265 18.868816
62.270 19.066204
62.275 18.731291
62.280 17.843231
62.285 17.676191
62.290 16.904818
62.295 16.370516
62.300 15.767633
62.305 15.228702
62.310 14.960373
62.315 15.023802
62.320 14.933496
62.325 15.326174
62.330 15.230766
62.335 15.350621
62.340 15.205182
62.345 15.479149
62.350 15.429466
62.355 15.295845
62.360 15.869718
62.365 16.182566
62.370 16.027725
62.375 16.120911
62.380 15.976975
62.385 16.044033
62.390 15.849518
62.395 15.773226
62.400 16.033119
62.405 16.255455
62.410 16.532627
62.415 17.181164
62.420 17.900818
62.425 18.016479
62.430 18.383278
62.435 18.461243
62.440 18.783102
62.445 19.04497
62.450 19.024519
62.455 19.394579
62.460 19.897242
62.465 19.604708
62.470 20.255966
62.475 20.377558
62.480 20.025202
62.485 19.650927
62.490 19.079899
62.495 18.594261
62.500 18.535372
62.505 18.028624
62.510 17.843493
62.515 17.76894
62.520 17.859983
62.525 17.900169
62.530 17.606403
62.535 17.245935
62.540 16.930332
62.545 17.223471
62.550 17.043497
62.555 16.818449
62.560 16.695608
62.565 16.769724
62.570 16.782688
62.575 16.390373
62.580 15.423508
62.585 14.89125
62.590 15.061507
62.595 15.491442
62.600 15.579986
62.605 15.394864
62.610 15.450645
62.615 16.314001
62.620 16.978523
62.625 16.873013
62.630 16.75149
62.635 17.155746
62.640 17.531347
62.645 17.559511
62.650 17.365295
62.655 16.877863
62.660 17.057117
62.665 16.861511
62.670 16.319798
62.675 15.914049
62.680 15.81594
62.685 15.593095
62.690 15.776574
62.695 16.04109
62.700 16.400782
62.705 16.926304
62.710 17.546127
62.715 17.621912
62.720 18.027084
62.725 18.627615
62.730 18.738081
62.735 19.029234
62.740 18.999405
62.745 19.381632
62.750 19.417282
62.755 18.977386
62.760 18.452618
62.765 18.288334
62.770 17.839251
62.775 17.391325
62.780 17.124611
62.785 17.05945
62.790 17.926622
62.795 18.168385
62.800 18.570705
62.805 18.817766
62.810 19.334639
62.815 19.266335
62.820 19.509903
62.825 19.230759
62.830 18.857031
62.835 18.194151
62.840 18.329941
62.845 18.334225
62.850 18.141779
62.855 17.64439
62.860 18.038788
62.865 18.133572
62.870 17.621195
62.875 16.808874
62.880 16.190344
62.885 15.865129
62.890 15.788522
62.895 15.225973
62.900 15.62536
62.905 15.887334
62.910 16.108364
62.915 16.57292
62.920 17.237961
62.925 17.620739
62.930 17.404671
62.935 17.340746
62.940 17.019295
62.945 17.472879
62.950 17.405546
62.955 17.684036
62.960 17.705612
62.965 17.560005
62.970 17.602577
62.975 18.14262
62.980 17.939217
62.985 17.727259
62.990 17.631361
62.995 17.51679
63.000 18.379356
63.005 18.053268
63.010 17.87994
63.015 18.192593
63.020 18.671972
63.025 18.52499
63.030 18.368965
63.035 17.796648
63.040 18.260784
63.045 18.417007
63.050 18.340744
63.055 17.973919
63.060 17.928749
63.065 17.903528
63.070 17.877213
63.075 17.680851
63.080 17.404274
63.085 17.422571
63.090 17.664865
63.095 17.663805
63.100 17.604977
63.105 17.459946
63.110 17.613552
63.115 17.457621
63.120 17.299612
63.125 16.837511
63.130 16.961723
63.135 17.352749
63.140 17.719744
63.145 18.115543
63.150 17.949678
63.155 17.658136
63.160 18.18726
63.165 17.849861
63.170 17.941906
63.175 17.890226
63.180 17.867144
63.185 18.526318
63.190 18.801374
63.195 18.732819
63.200 18.978428
63.205 18.652582
63.210 18.540751
63.215 18.130077
63.220 17.70648
63.225 17.617716
63.230 17.858715
63.235 18.137819
63.240 18.207075
63.245 17.943214
63.250 17.683939
63.255 17.694508
63.260 17.283352
63.265 17.01869
63.270 16.564407
63.275 16.700941
63.280 17.265722
63.285 17.689884
63.290 17.771677
63.295 17.857397
63.300 17.507271
63.305 17.471947
63.310 17.435904
63.315 17.302181
63.320 17.322792
63.325 17.356035
63.330 17.583912
63.335 18.405737
63.340 18.842541
63.345 18.672646
63.350 18.516621
63.355 18.787172
63.360 19.186232
63.365 19.516872
63.370 19.379448
63.375 19.099363
63.380 19.153414
63.385 18.619692
63.390 18.385983
63.395 17.796345
63.400 17.511478
63.405 17.031857
63.410 17.281874
63.415 17.284164
63.420 17.252811
63.425 17.518181
63.430 17.779934
63.435 17.304514
63.440 17.091215
63.445 16.776556
63.450 16.578693
63.455 16.74967
63.460 16.426468
63.465 16.339359
63.470 16.423166
63.475 16.619356
63.480 16.572327
63.485 16.804939
63.490 17.053345
63.495 17.638706
63.500 18.138763
63.505 18.492361
63.510 18.9573
63.515 19.736406
63.520 19.621876
63.525 19.576603
63.530 19.667009
63.535 19.776655
63.540 19.867456
63.545 20.069805
63.550 19.312504
63.555 18.965723
63.560 18.3153
63.565 17.919683
63.570 17.756941
63.575 17.138323
63.580 16.460558
63.585 16.31881
63.590 16.907545
63.595 17.989973
63.600 17.816706
63.605 17.68704
63.610 17.484564
63.615 17.950331
63.620 18.323681
63.625 17.590561
63.630 17.314642
63.635 17.328453
63.640 17.644888
63.645 18.492462
63.650 18.824114
63.655 18.588392
63.660 19.025763
63.665 18.899517
63.670 18.640095
63.675 18.173393
63.680 17.758472
63.685 17.316713
63.690 17.397842
63.695 16.76969
63.700 16.30378
63.705 16.899979
63.710 17.317921
63.715 17.050468
63.720 16.858854
63.725 16.692669
63.730 17.236143
63.735 17.53651
63.740 17.092108
63.745 17.1227
63.750 17.267576
63.755 17.593813
63.760 17.796268
63.765 17.815811
63.770 18.346268
63.775 18.34643
63.780 18.193722
63.785 18.408543
63.790 18.039711
63.795 18.207399
63.800 18.145035
63.805 17.507933
63.810 17.339432
63.815 17.569828
63.820 17.413837
63.825 17.921543
63.830 17.927492
63.835 17.924446
63.840 18.694918
63.845 19.247395
63.850 19.146242
63.855 18.548229
63.860 18.084051
63.865 18.350475
63.870 18.621439
63.875 18.092976
63.880 17.11322
63.885 16.568384
63.890 17.463387
63.895 17.808861
63.900 17.902935
63.905 17.664961
63.910 17.728138
63.915 18.51123
63.920 19.613291
63.925 19.758259
63.930 20.059504
63.935 20.147459
63.940 20.439665
63.945 20.702595
63.950 20.754782
63.955 20.023315
63.960 19.771065
63.965 19.321215
63.970 19.263334
63.975 19.571465
63.980 20.473415
63.985 20.75909
63.990 20.492441
63.995 20.383997
64.000 20.613266
64.005 20.724958
64.010 20.562042
64.015 19.348734
64.020 18.898144
64.025 19.619965
64.030 19.692657
64.035 19.786222
64.040 19.304792
64.045 19.079947
64.050 19.260292
64.055 19.019901
64.060 18.836685
64.065 18.99881
64.070 18.828773
64.075 19.273867
64.080 19.204933
64.085 18.911861
64.090 18.764627
64.095 18.534313
64.100 18.487465
64.105 18.563696
64.110 18.811285
64.115 18.634407
64.120 18.839355
64.125 19.094994
64.130 18.56398
64.135 17.998919
64.140 17.545233
64.145 16.818226
64.150 16.943626
64.155 16.665125
64.160 16.514372
64.165 17.097313
64.170 17.700525
64.175 17.827963
64.180 17.704159
64.185 17.684986
64.190 17.479319
64.195 17.576559
64.200 18.098524
64.205 18.003807
64.210 18.421511
64.215 18.440998
64.220 18.889833
64.225 19.950155
64.230 20.204153
64.235 19.127306
64.240 18.827642
64.245 18.805546
64.250 18.816603
64.255 18.426394
64.260 17.92182
64.265 17.708269
64.270 18.472216
64.275 18.365637
64.280 18.411283
64.285 18.495005
64.290 18.334743
64.295 18.096117
64.300 18.132307
64.305 17.709488
64.310 17.889025
64.315 17.711479
64.320 17.724901
64.325 18.343924
64.330 18.671335
64.335 18.908134
64.340 19.139633
64.345 19.292662
64.350 19.71814
64.355 20.033501
64.360 20.154612
64.365 20.006887
64.370 19.24054
64.375 18.777521
64.380 18.516182
64.385 18.231058
64.390 17.844585
64.395 18.012096
64.400 18.495571
64.405 18.83049
64.410 19.528202
64.415 19.88719
64.420 19.82394
64.425 19.845192
64.430 18.955448
64.435 18.456661
64.440 18.792774
64.445 18.271658
64.450 18.541883
64.455 18.875366
64.460 18.756676
64.465 19.478874
64.470 19.575907
64.475 19.572405
64.480 20.039797
64.485 19.797121
64.490 19.323996
64.495 19.231781
64.500 18.496641
64.505 18.116777
64.510 17.687944
64.515 17.266394
64.520 17.161236
64.525 17.594492
64.530 17.526571
64.535 18.544601
64.540 19.252083
64.545 19.594948
64.550 19.952223
64.555 19.960278
64.560 20.1959
64.565 20.596569
64.570 20.025631
64.575 19.99947
64.580 20.533241
64.585 20.661572
64.590 20.468613
64.595 19.713768
64.600 19.594606
64.605 19.845348
64.610 18.874302
64.615 18.279385
64.620 18.381504
64.625 18.468683
64.630 19.572342
64.635 20.152077
64.640 20.296402
64.645 21.296028
64.650 21.92465
64.655 21.830629
64.660 21.608601
64.665 20.810637
64.670 19.728868
64.675 19.338387
64.680 19.41128
64.685 19.087605
64.690 18.717751
64.695 18.734077
64.700 18.982861
64.705 19.709467
64.710 20.049639
64.715 19.831644
64.720 19.369888
64.725 19.364075
64.730 19.385508
64.735 19.435707
64.740 19.666519
64.745 19.642925
64.750 19.634758
64.755 19.48975
64.760 20.185184
64.765 20.455803
64.770 20.430552
64.775 19.990259
64.780 20.12459
64.785 20.340002
64.790 21.393782
64.795 21.151726
64.800 20.799963
64.805 21.209316
64.810 21.289299
64.815 21.578167
64.820 21.567278
64.825 21.088612
64.830 20.882219
64.835 21.072886
64.840 20.981899
64.845 21.728544
64.850 21.676649
64.855 21.197973
64.860 21.093472
64.865 20.998236
64.870 21.020409
64.875 20.987799
64.880 20.464613
64.885 20.365011
64.890 20.52669
64.895 20.416311
64.900 20.397728
64.905 20.142414
64.910 19.660074
64.915 18.907867
64.920 18.998211
64.925 19.225513
64.930 19.159836
64.935 19.299376
64.940 19.817808
64.945 20.019756
64.950 19.995636
64.955 19.439344
64.960 19.508333
64.965 19.863008
64.970 19.589006
64.975 19.558796
64.980 19.990704
64.985 20.580753
64.990 21.444323
64.995 21.355915
65.000 21.616667
65.005 22.384275
65.010 22.12834
65.015 22.091915
65.020 22.542067
65.025 22.312759
65.030 22.619867
65.035 22.574963
65.040 22.278446
65.045 22.228573
65.050 21.976326
65.055 21.889669
65.060 22.058529
65.065 21.803328
65.070 22.110275
65.075 22.159674
65.080 22.138391
65.085 22.303312
65.090 21.898561
65.095 21.446354
65.100 21.518194
65.105 22.320318
65.110 22.377407
65.115 22.4701
65.120 23.222042
65.125 23.915514
65.130 24.9671
65.135 25.314215
65.140 24.530186
65.145 24.61936
65.150 24.774031
65.155 24.241465
65.160 23.762638
65.165 23.198042
65.170 22.347673
65.175 22.364296
65.180 22.328369
65.185 22.45443
65.190 23.147673
65.195 23.292717
65.200 23.36845
65.205 23.224134
65.210 23.198042
65.215 23.679153
65.220 23.245146
65.225 22.599483
65.230 22.852783
65.235 23.210081
65.240 23.758255
65.245 24.033484
65.250 23.414164
65.255 23.289623
65.260 23.63776
65.265 23.578745
65.270 23.192089
65.275 23.170671
65.280 23.111061
65.285 23.131081
65.290 23.400126
65.295 22.909323
65.300 23.548578
65.305 23.416885
65.310 23.105017
65.315 22.883278
65.320 23.472292
65.325 23.68837
65.330 23.514103
65.335 22.929287
65.340 23.288746
65.345 23.724289
65.350 24.155418
65.355 24.189116
65.360 24.234396
65.365 24.475691
65.370 24.584734
65.375 24.430607
65.380 24.23893
65.385 23.715513
65.390 23.550196
65.395 23.551168
65.400 23.823511
65.405 24.235924
65.410 23.992031
65.415 23.889997
65.420 23.945423
65.425 23.884857
65.430 23.665333
65.435 23.826719
65.440 24.068552
65.445 24.251238
65.450 24.115805
65.455 24.375843
65.460 24.643614
65.465 24.77927
65.470 24.572529
65.475 24.556314
65.480 25.052023
65.485 25.457794
65.490 25.322222
65.495 25.869534
65.500 25.909708
65.505 26.199554
65.510 26.386627
65.515 27.024174
65.520 27.372063
65.525 27.520439
65.530 27.644556
65.535 27.559175
65.540 27.860876
65.545 27.680159
65.550 27.470083
65.555 27.328041
65.560 27.5214
65.565 27.581728
65.570 28.073832
65.575 28.177217
65.580 28.837936
65.585 29.454897
65.590 30.376867
65.595 30.944176
65.600 30.458599
65.605 30.109846
65.610 30.305979
65.615 30.22649
65.620 30.317736
65.625 30.18062
65.630 29.620909
65.635 30.304129
65.640 31.395245
65.645 31.827869
65.650 31.961124
65.655 31.69463
65.660 31.207827
65.665 31.687332
65.670 31.821756
65.675 31.147194
65.680 30.859547
65.685 30.339472
65.690 30.365185
65.695 31.497816
65.700 32.059772
65.705 32.36261
65.710 32.824158
65.715 33.312691
65.720 33.745682
65.725 34.087711
65.730 34.601315
65.735 34.110291
65.740 33.539318
65.745 33.388031
65.750 34.20858
65.755 35.649452
65.760 35.539234
65.765 35.190502
65.770 35.872639
65.775 36.433941
65.780 36.308628
65.785 36.069038
65.790 36.033535
65.795 36.336384
65.800 36.625782
65.805 36.204369
65.810 36.603546
65.815 37.255104
65.820 37.312576
65.825 37.628197
65.830 38.264996
65.835 38.255352
65.840 38.602619
65.845 38.298958
65.850 38.321648
65.855 38.553226
65.860 38.180676
65.865 38.148533
65.870 37.870724
65.875 38.19923
65.880 38.603848
65.885 38.610741
65.890 38.92514
65.895 39.305401
65.900 38.865318
65.905 39.453831
65.910 39.234432
65.915 39.012634
65.920 38.313099
65.925 37.564476
65.930 37.712399
65.935 38.483322
65.940 38.440914
65.945 38.118099
65.950 38.090996
65.955 38.865929
65.960 39.939018
65.965 39.671638
65.970 38.949417
65.975 38.639629
65.980 39.044765
65.985 38.658791
65.990 38.531345
65.995 38.325542
66.000 38.321793
66.005 38.409222
66.010 37.838402
66.015 38.234146
66.020 38.418465
66.025 38.110157
66.030 37.794849
66.035 37.479176
66.040 37.246544
66.045 37.529564
66.050 37.182274
66.055 37.115753
66.060 36.698643
66.065 36.746857
66.070 37.172276
66.075 37.247017
66.080 37.820496
66.085 38.028358
66.090 38.398769
66.095 38.832371
66.100 38.930656
66.105 38.85297
66.110 39.525322
66.115 39.454201
66.120 38.906372
66.125 38.543537
66.130 38.407349
66.135 38.132011
66.140 37.736946
66.145 36.302551
66.150 35.826092
66.155 35.689384
66.160 35.56712
66.165 35.294701
66.170 34.983097
66.175 34.980831
66.180 35.837498
66.185 36.38055
66.190 36.143986
66.195 35.769451
66.200 35.769814
66.205 35.416988
66.210 35.510197
66.215 34.896233
66.220 33.441982
66.225 33.437405
66.230 33.978077
66.235 33.683517
66.240 33.402565
66.245 33.207722
66.250 33.71497
66.255 34.05188
66.260 33.764137
66.265 33.139252
66.270 32.818478
66.275 32.099884
66.280 31.2045
66.285 31.160641
66.290 32.048153
66.295 31.952436
66.300 32.129528
66.305 32.734058
66.310 33.268467
66.315 33.212879
66.320 32.082478
66.325 31.397978
66.330 31.745506
66.335 30.754339
66.340 30.224161
66.345 30.574917
66.350 30.498755
66.355 30.048431
66.360 29.821676
66.365 29.44813
66.370 30.165133
66.375 29.845993
66.380 29.045479
66.385 28.679426
66.390 29.709341
66.395 30.099325
66.400 30.104824
66.405 30.155457
66.410 31.100117
66.415 30.811712
66.420 31.166719
66.425 30.680498
66.430 30.00132
66.435 29.336521
66.440 28.746296
66.445 28.267099
66.450 28.476732
66.455 28.167597
66.460 27.678303
66.465 27.636024
66.470 28.406546
66.475 28.61898
66.480 28.782051
66.485 28.998255
66.490 29.259001
66.495 29.624311
66.500 30.149214
66.505 29.771456
66.510 30.04167
66.515 29.361223
66.520 28.798796
66.525 28.60207
66.530 28.452147
66.535 28.103277
66.540 27.350349
66.545 27.355276
66.550 28.096413
66.555 28.049305
66.560 28.222769
66.565 28.428627
66.570 28.092842
66.575 28.192141
66.580 27.545824
66.585 27.063822
66.590 27.452324
66.595 27.290859
66.600 27.113295
66.605 27.169292
66.610 27.404964
66.615 27.586121
66.620 28.624876
66.625 28.530897
66.630 27.705156
66.635 27.500301
66.640 27.722012
66.645 27.451904
66.650 27.410799
66.655 26.912745
66.660 26.499382
66.665 26.453672
66.670 26.810741
66.675 26.829004
66.680 26.859097
66.685 25.727873
66.690 25.182415
66.695 24.832308
66.700 24.674631
66.705 24.355495
66.710 24.173044
66.715 24.078037
66.720 23.925854
66.725 23.370808
66.730 23.9893
66.735 24.187353
66.740 24.293499
66.745 23.712761
66.750 23.505936
66.755 22.942751
66.760 23.250271
66.765 22.927315
66.770 22.81068
66.775 22.20142
66.780 22.677124
66.785 23.001678
66.790 22.979448
66.795 22.927647
66.800 23.205711
66.805 23.41869
66.810 24.186378
66.815 23.905758
66.820 23.675632
66.825 24.611059
66.830 25.226402
66.835 25.068533
66.840 25.495743
66.845 25.576786
66.850 25.482521
66.855 25.369303
66.860 24.386984
66.865 23.202372
66.870 22.879753
66.875 22.426632
66.880 22.08655
66.885 22.254702
66.890 22.593651
66.895 22.982252
66.900 22.849367
66.905 22.533381
66.910 21.789343
66.915 21.875378
66.920 22.116837
66.925 21.55312
66.930 22.146103
66.935 23.403765
66.940 24.203617
66.945 24.595093
66.950 24.518047
66.955 24.300987
66.960 24.763374
66.965 24.027798
66.970 23.488512
66.975 23.054672
66.980 23.567511
66.985 22.9377
66.990 23.161625
66.995 23.508383
67.000 23.459785
67.005 23.315313
67.010 23.45565
67.015 23.615654
67.020 23.296831
67.025 23.170382
67.030 22.929619
67.035 23.686836
67.040 23.429504
67.045 23.371279
67.050 23.664206
67.055 24.285805
67.060 23.868587
67.065 23.479668
67.070 22.988001
67.075 23.359745
67.080 23.69068
67.085 23.049511
67.090 22.597576
67.095 22.559429
67.100 22.702963
67.105 22.475559
67.110 22.160681
67.115 21.539461
67.120 21.842566
67.125 22.187101
67.130 22.902075
67.135 22.98118
67.140 24.037239
67.145 24.29031
67.150 24.416431
67.155 24.965559
67.160 25.360216
67.165 24.70739
67.170 24.166218
67.175 23.401934
67.180 22.874378
67.185 22.658516
67.190 21.905813
67.195 21.891809
67.200 21.746933
67.205 22.230564
67.210 22.644678
67.215 23.160685
67.220 23.720133
67.225 23.288048
67.230 23.053988
67.235 23.450922
67.240 22.876442
67.245 22.813759
67.250 22.32062
67.255 22.248417
67.260 22.340158
67.265 22.583296
67.270 22.578526
67.275 22.586222
67.280 22.673252
67.285 22.550772
67.290 22.4055
67.295 22.354685
67.300 21.980862
67.305 22.16914
67.310 22.806328
67.315 23.066729
67.320 23.195692
67.325 23.059429
67.330 23.367579
67.335 23.454576
67.340 22.895092
67.345 23.193027
67.350 23.23793
67.355 23.345505
67.360 23.257933
67.365 22.949495
67.370 22.961905
67.375 23.750837
67.380 23.043592
67.385 22.577543
67.390 22.510555
67.395 22.644865
67.400 22.537775
67.405 22.279783
67.410 21.882685
67.415 21.735321
67.420 21.413845
67.425 21.309679
67.430 20.870235
67.435 21.32729
67.440 21.36401
67.445 20.903379
67.450 20.742199
67.455 21.296526
67.460 21.014618
67.465 21.493233
67.470 21.04755
67.475 20.854559
67.480 21.134031
67.485 21.39476
67.490 21.34226
67.495 21.502562
67.500 21.582251
67.505 22.639223
67.510 22.984331
67.515 22.804821
67.520 22.909273
67.525 23.280622
67.530 23.042255
67.535 23.097473
67.540 22.734869
67.545 22.615644
67.550 22.575823
67.555 22.52702
67.560 22.402838
67.565 22.632294
67.570 23.147383
67.575 22.818571
67.580 23.008425
67.585 23.321783
67.590 23.486589
67.595 23.570156
67.600 22.81929
67.605 21.963581
67.610 22.090841
67.615 22.004248
67.620 22.450783
67.625 22.614887
67.630 22.945776
67.635 23.22118
67.640 22.885555
67.645 22.720697
67.650 22.854635
67.655 22.096064
67.660 21.378927
67.665 20.807699
67.670 21.132833
67.675 21.921642
67.680 22.501612
67.685 22.570927
67.690 22.7635
67.695 23.026155
67.700 23.580875
67.705 23.10869
67.710 22.392002
67.715 22.313982
67.720 22.131226
67.725 21.810856
67.730 21.708284
67.735 21.536762
67.740 22.064924
67.745 22.685701
67.750 22.880993
67.755 22.68803
67.760 22.765633
67.765 22.352203
67.770 22.256447
67.775 21.658808
67.780 21.626287
67.785 20.781857
67.790 21.022846
67.795 21.505226
67.800 22.073433
67.805 22.363308
67.810 22.516993
67.815 22.465399
67.820 23.414082
67.825 23.368301
67.830 22.852398
67.835 23.172474
67.840 23.53602
67.845 23.741386
67.850 23.745802
67.855 23.952271
67.860 24.264233
67.865 24.124561
67.870 23.14983
67.875 22.598469
67.880 22.548138
67.885 22.616604
67.890 21.977911
67.895 21.942629
67.900 21.556303
67.905 21.958363
67.910 21.622614
67.915 20.971287
67.920 20.72263
67.925 20.65959
67.930 20.24926
67.935 19.738729
67.940 19.06673
67.945 19.34704
67.950 19.42555
67.955 19.198441
67.960 18.727354
67.965 18.833467
67.970 19.872044
67.975 20.417208
67.980 20.185108
67.985 20.2099
67.990 19.873468
67.995 20.067303
68.000 19.862495
68.005 19.893787
68.010 19.675922
68.015 19.92425
68.020 19.592718
68.025 19.365498
68.030 19.494965
68.035 19.699635
68.040 19.114828
68.045 19.468426
68.050 19.053656
68.055 19.355762
68.060 19.771032
68.065 19.430857
68.070 19.347706
68.075 19.73579
68.080 19.33411
68.085 19.566751
68.090 19.941252
68.095 20.129919
68.100 20.339493
68.105 20.90513
68.110 20.990955
68.115 21.682758
68.120 22.542107
68.125 23.091595
68.130 23.246504
68.135 23.261696
68.140 22.826208
68.145 22.649038
68.150 21.854151
68.155 21.097496
68.160 20.692005
68.165 20.862143
68.170 21.290836
68.175 21.904957
68.180 21.583384
68.185 21.5445
68.190 21.395962
68.195 21.600206
68.200 21.152464
68.205 20.982327
68.210 20.762865
68.215 21.121994
68.220 21.786137
68.225 22.096653
68.230 22.003843
68.235 22.013174
68.240 21.630718
68.245 21.805195
68.250 21.80183
68.255 21.24128
68.260 20.907953
68.265 21.230762
68.270 21.471073
68.275 21.227577
68.280 20.587227
68.285 20.912476
68.290 21.470781
68.295 22.046261
68.300 22.139576
68.305 21.985264
68.310 22.483244
68.315 22.923309
68.320 22.663231
68.325 22.155348
68.330 20.72093
68.335 20.401148
68.340 20.467285
68.345 19.813454
68.350 19.208406
68.355 19.050871
68.360 19.908199
68.365 20.638655
68.370 21.073729
68.375 21.233007
68.380 22.058559
68.385 22.94117
68.390 22.85795
68.395 22.135126
68.400 22.312138
68.405 22.037624
68.410 22.356205
68.415 21.739429
68.420 21.217663
68.425 21.198236
68.430 21.112083
68.435 21.075302
68.440 20.859066
68.445 20.45269
68.450 21.319733
68.455 21.935547
68.460 21.806459
68.465 22.134808
68.470 22.101112
68.475 22.166
68.480 22.029505
68.485 21.98941
68.490 22.283966
68.495 22.991793
68.500 22.97065
68.505 22.629318
68.510 22.528118
68.515 23.142702
68.520 22.506252
68.525 21.550846
68.530 21.083527
68.535 20.572187
68.540 20.313423
68.545 20.459394
68.550 19.660555
68.555 19.735735
68.560 19.621778
68.565 19.748045
68.570 20.244785
68.575 20.415819
68.580 20.919094
68.585 21.562325
68.590 21.987753
68.595 22.368465
68.600 22.493721
68.605 23.100565
68.610 23.287868
68.615 22.961145
68.620 22.329967
68.625 22.354597
68.630 21.950308
68.635 21.582829
68.640 21.701542
68.645 21.857946
68.650 21.536572
68.655 21.608681
68.660 21.83502
68.665 22.051676
68.670 21.813753
68.675 21.939299
68.680 21.991432
68.685 22.142317
68.690 22.327028
68.695 22.043888
68.700 22.20056
68.705 21.762941
68.710 20.874592
68.715 20.915182
68.720 21.001013
68.725 20.846003
68.730 21.00724
68.735 20.929787
68.740 21.003971
68.745 20.764887
68.750 20.8671
68.755 21.268536
68.760 21.810446
68.765 22.334389
68.770 23.219019
68.775 23.890181
68.780 24.534348
68.785 24.376659
68.790 24.344706
68.795 24.758528
68.800 24.45718
68.805 23.635962
68.810 23.622368
68.815 23.699575
68.820 23.534218
68.825 23.62771
68.830 22.328436
68.835 22.166576
68.840 22.572495
68.845 22.301239
68.850 22.24481
68.855 22.171768
68.860 22.109392
68.865 22.738897
68.870 23.027706
68.875 22.495089
68.880 22.358469
68.885 22.453756
68.890 22.527782
68.895 22.783813
68.900 22.966017
68.905 23.172178
68.910 23.129854
68.915 23.054136
68.920 23.03475
68.925 22.540955
68.930 22.222139
68.935 22.550772
68.940 23.098991
68.945 23.581297
68.950 24.107153
68.955 23.815332
68.960 24.012081
68.965 23.807901
68.970 23.738541
68.975 24.106127
68.980 24.310337
68.985 24.356426
68.990 24.447111
68.995 24.732275
69.000 24.802177
69.005 24.347887
69.010 23.908442
69.015 23.690109
69.020 23.729368
69.025 23.924
69.030 23.81514
69.035 23.939217
69.040 24.362915
69.045 24.588463
69.050 24.978399
69.055 24.590874
69.060 24.382332
69.065 24.39229
69.070 24.835619
69.075 23.98489
69.080 23.66321
69.085 24.826214
69.090 25.465118
69.095 25.927721
69.100 26.574434
69.105 26.74275
69.110 26.821507
69.115 26.482021
69.120 25.556833
69.125 25.50193
69.130 25.811918
69.135 25.866396
69.140 26.044489
69.145 27.080931
69.150 28.024712
69.155 28.077379
69.160 27.648863
69.165 27.001186
69.170 26.828915
69.175 26.659447
69.180 25.533882
69.185 25.120041
69.190 24.849068
69.195 25.380594
69.200 25.692207
69.205 26.043497
69.210 25.684021
69.215 26.036015
69.220 25.976763
69.225 26.276688
69.230 26.323439
69.235 26.3561
69.240 26.412954
69.245 27.066803
69.250 27.014822
69.255 27.285044
69.260 27.497152
69.265 26.789061
69.270 26.815277
69.275 26.670044
69.280 27.184614
69.285 26.90134
69.290 26.574142
69.295 26.858103
69.300 27.296936
69.305 27.055346
69.310 26.450825
69.315 26.475088
69.320 26.288807
69.325 26.162867
69.330 26.034775
69.335 26.089361
69.340 26.146509
69.345 26.043451
69.350 26.2092
69.355 27.394329
69.360 27.438005
69.365 27.515379
69.370 27.416615
69.375 27.972721
69.380 28.801483
69.385 28.53582
69.390 28.351782
69.395 28.589939
69.400 28.88991
69.405 29.166443
69.410 29.247467
69.415 29.302048
69.420 29.784969
69.425 29.529894
69.430 29.788673
69.435 30.566328
69.440 30.363842
69.445 30.468378
69.450 30.89076
69.455 30.820225
69.460 31.115368
69.465 31.093517
69.470 30.193724
69.475 30.03367
69.480 30.136429
69.485 29.790571
69.490 30.046162
69.495 30.228607
69.500 30.30448
69.505 31.031576
69.510 31.529781
69.515 31.003981
69.520 30.443262
69.525 29.780611
69.530 29.330364
69.535 28.895132
69.540 29.04598
69.545 28.467068
69.550 28.52739
69.555 29.185465
69.560 29.68346
69.565 29.64336
69.570 29.763727
69.575 29.384384
69.580 29.094254
69.585 28.580645
69.590 27.996372
69.595 27.790228
69.600 27.43001
69.605 26.853439
69.610 26.030792
69.615 26.997311
69.620 27.41185
69.625 28.019056
69.630 28.442856
69.635 29.033953
69.640 29.113398
69.645 29.09893
69.650 27.753374
69.655 26.752106
69.660 26.814774
69.665 26.515514
69.670 26.672199
69.675 27.370609
69.680 27.966072
69.685 29.497763
69.690 29.259382
69.695 28.647217
69.700 29.36615
69.705 29.31558
69.710 29.156096
69.715 28.97007
69.720 28.702045
69.725 28.811913
69.730 28.900782
69.735 28.36982
69.740 28.269472
69.745 28.243086
69.750 27.534445
69.755 27.18157
69.760 27.095247
69.765 27.184811
69.770 26.733507
69.775 25.956081
69.780 25.781309
69.785 25.908346
69.790 25.707237
69.795 25.879583
69.800 25.234388
69.805 25.700357
69.810 25.560373
69.815 26.237112
69.820 26.790138
69.825 27.30183
69.830 27.308636
69.835 26.830349
69.840 25.955387
69.845 25.624893
69.850 24.337883
69.855 23.733768
69.860 23.510666
69.865 23.279253
69.870 23.587479
69.875 23.846888
69.880 23.843672
69.885 23.939587
69.890 23.946293
69.895 23.116426
69.900 22.604456
69.905 22.531189
69.910 22.211761
69.915 22.488922
69.920 22.593523
69.925 21.935638
69.930 22.159855
69.935 22.798996
69.940 22.746529
69.945 23.496193
69.950 23.280106
69.955 22.665321
69.960 22.751244
69.965 22.562834
69.970 22.313984
69.975 22.142784
69.980 21.476038
69.985 22.028543
69.990 22.134192
69.995 22.306595
70.000 22.412624
70.005 22.824051
70.010 23.679163
70.015 23.713263
70.020 23.593954
70.025 23.753206
70.030 23.279182
70.035 22.878778
70.040 22.162926
70.045 21.129744
70.050 20.669498
70.055 20.578543
70.060 20.55282
70.065 21.222485
70.070 21.252167
70.075 20.877064
70.080 21.278446
70.085 21.416998
70.090 21.090242
70.095 20.906223
70.100 20.738155
70.105 20.791189
70.110 21.251667
70.115 21.30649
70.120 21.532217
70.125 21.500378
70.130 20.722048
70.135 20.070044
70.140 20.181269
70.145 19.840185
70.150 20.237539
70.155 20.475634
70.160 21.521498
70.165 22.140972
70.170 22.136066
70.175 21.611855
70.180 21.866447
70.185 20.680172
70.190 20.065445
70.195 18.924147
70.200 18.756117
70.205 18.552158
70.210 18.903862
70.215 19.030336
70.220 19.443615
70.225 19.67627
70.230 20.438869
70.235 20.69264
70.240 21.60425
70.245 21.730526
70.250 21.920918
70.255 22.662392
70.260 23.034979
70.265 22.960304
70.270 22.924671
70.275 22.428425
70.280 22.168734
70.285 21.412285
70.290 20.725109
70.295 20.000626
70.300 20.276739
70.305 20.224144
70.310 19.968864
70.315 20.213642
70.320 20.298063
70.325 20.355516
70.330 20.725998
70.335 20.472857
70.340 20.454861
70.345 20.503603
70.350 20.411673
70.355 20.001205
70.360 20.330389
70.365 20.458488
70.370 21.09001
70.375 20.919054
70.380 20.635069
70.385 20.427021
70.390 20.66427
70.395 20.213112
70.400 19.070559
70.405 18.858892
70.410 19.339512
70.415 20.020287
70.420 20.454803
70.425 20.623747
70.430 20.559565
70.435 20.552853
70.440 20.363174
70.445 19.973557
70.450 19.278296
70.455 18.722593
70.460 18.745667
70.465 19.107626
70.470 19.782415
70.475 19.700087
70.480 19.514109
70.485 19.388493
70.490 19.986416
70.495 19.850651
70.500 19.726978
70.505 19.576258
70.510 20.088888
70.515 20.991493
70.520 21.550581
70.525 21.122614
70.530 21.586136
70.535 21.528801
70.540 21.649757
70.545 21.675076
70.550 21.088226
70.555 20.951731
70.560 20.823748
70.565 20.767225
70.570 20.830843
70.575 20.813662
70.580 20.524227
70.585 20.319933
70.590 20.120514
70.595 20.172026
70.600 20.126923
70.605 19.861135
70.610 19.456985
70.615 19.345676
70.620 19.636621
70.625 19.777487
70.630 19.213228
70.635 18.114792
70.640 17.964874
70.645 17.982212
70.650 18.45907
70.655 17.993334
70.660 17.946222
70.665 18.718
70.670 19.127331
70.675 19.515257
70.680 19.342609
70.685 19.200935
70.690 19.388254
70.695 19.931303
70.700 19.911516
70.705 20.154308
70.710 20.089527
70.715 20.27187
70.720 19.703711
70.725 19.616602
70.730 19.71744
70.735 19.722221
70.740 19.651855
70.745 19.125916
70.750 19.278591
70.755 19.819519
70.760 19.018887
70.765 18.145218
70.770 17.966011
70.775 18.141836
70.780 17.876976
70.785 17.258318
70.790 17.658968
70.795 18.660601
70.800 19.60384
70.805 19.232401
70.810 19.533289
70.815 20.445713
70.820 21.17189
70.825 21.223118
70.830 20.731094
70.835 20.133736
70.840 20.550468
70.845 20.138414
70.850 19.720976
70.855 19.074804
70.860 18.785143
70.865 19.00123
70.870 19.338186
70.875 19.440197
70.880 19.899906
70.885 19.991058
70.890 20.311081
70.895 20.73897
70.900 20.436722
70.905 20.375437
70.910 20.333994
70.915 19.775808
70.920 19.232693
70.925 18.632437
70.930 18.469896
70.935 18.825434
70.940 18.863831
70.945 19.016748
70.950 19.651123
70.955 20.714161
70.960 20.569433
70.965 20.098604
70.970 20.531303
70.975 20.707846
70.980 20.565876
70.985 19.906837
70.990 19.656298
70.995 20.257906
71.000 20.606071
71.005 19.582331
71.010 19.485847
71.015 19.8043
71.020 20.151175
71.025 18.961359
71.030 18.244169
71.035 18.600964
71.040 19.817467
71.045 19.254147
71.050 18.771519
71.055 18.429104
71.060 19.538624
71.065 19.797684
71.070 18.905865
71.075 17.819496
71.080 17.842667
71.085 18.217649
71.090 18.688278
71.095 18.626955
71.100 19.204035
71.105 19.529825
71.110 20.081614
71.115 20.545498
71.120 20.683426
71.125 20.91791
71.130 20.886341
71.135 20.477131
71.140 20.786457
71.145 20.436991
71.150 20.519728
71.155 20.153744
71.160 18.916204
71.165 19.22003
71.170 19.119146
71.175 19.041735
71.180 19.183983
71.185 19.307518
71.190 19.782946
71.195 19.958155
71.200 19.052006
71.205 19.311754
71.210 19.280436
71.215 18.888887
71.220 18.756039
71.225 18.948471
71.230 19.60202
71.235 19.702951
71.240 19.965282
71.245 20.53384
71.250 20.995407
71.255 21.359692
71.260 20.950764
71.265 21.059464
71.270 20.937902
71.275 20.358158
71.280 19.918272
71.285 19.597637
71.290 18.860518
71.295 19.014547
71.300 19.201574
71.305 18.800682
71.310 19.471054
71.315 19.355776
71.320 19.423748
71.325 19.696117
71.330 19.562281
71.335 19.937292
71.340 19.880096
71.345 19.916262
71.350 20.413868
71.355 20.406485
71.360 20.430771
71.365 20.077837
71.370 20.140469
71.375 20.212368
71.380 20.046259
71.385 19.876057
71.390 19.871851
71.395 19.802227
71.400 20.00522
71.405 19.720327
71.410 19.936447
71.415 19.770315
71.420 19.925846
71.425 19.618549
71.430 19.647007
71.435 19.400574
71.440 19.032631
71.445 18.826128
71.450 18.770638
71.455 18.662722
71.460 19.232395
71.465 19.759995
71.470 20.117971
71.475 20.025305
71.480 19.648607
71.485 19.11314
71.490 18.645166
71.495 18.280758
71.500 17.631395
71.505 17.756447
71.510 18.137037
71.515 18.436689
71.520 18.667994
71.525 18.760828
71.530 18.613823
71.535 19.069927
71.540 18.779579
71.545 18.700146
71.550 18.877798
71.555 19.314535
71.560 19.152096
71.565 19.196766
71.570 19.707598
71.575 19.31724
71.580 19.126577
71.585 18.634619
71.590 18.026814
71.595 18.430458
71.600 17.964987
71.605 17.087509
71.610 17.679649
71.615 17.243011
71.620 17.50783
71.625 17.87204
71.630 17.00835
71.635 17.326008
71.640 17.660397
71.645 17.758694
71.650 18.202177
71.655 18.018822
71.660 18.310087
71.665 19.118074
71.670 19.228485
71.675 19.781
71.680 20.096529
71.685 20.429146
71.690 21.018642
71.695 21.427904
71.700 21.230158
71.705 20.950581
71.710 21.141214
71.715 21.294613
71.720 20.754982
71.725 20.230536
71.730 20.301117
71.735 20.140896
71.740 19.857536
71.745 19.419336
71.750 19.587278
71.755 20.241566
71.760 19.769833
71.765 19.893198
71.770 19.901442
71.775 19.753378
71.780 19.384825
71.785 18.960682
71.790 19.031359
71.795 18.969389
71.800 19.184799
71.805 19.338217
71.810 19.265602
71.815 19.481142
71.820 19.324572
71.825 19.148413
71.830 18.963007
71.835 18.806255
71.840 18.809875
71.845 18.990694
71.850 19.38077
71.855 19.240929
71.860 19.550446
71.865 19.98634
71.870 20.056028
71.875 20.690823
71.880 20.058809
71.885 19.78072
71.890 19.42238
71.895 19.214996
71.900 19.247753
71.905 19.140179
71.910 18.804024
71.915 18.65189
71.920 18.851824
71.925 19.140415
71.930 19.191492
71.935 19.41638
71.940 19.455004
71.945 20.05372
71.950 20.306421
71.955 20.452778
71.960 20.332804
71.965 20.127275
71.970 19.742649
71.975 19.779068
71.980 19.949972
71.985 20.419094
71.990 20.184654
71.995 20.44912
72.000 20.162565
72.005 20.259462
72.010 20.02354
72.015 19.696608
72.020 19.355322
72.025 18.88324
72.030 18.872063
72.035 18.73975
72.040 18.122337
72.045 17.793118
72.050 18.047792
72.055 18.678516
72.060 19.25672
72.065 18.943481
72.070 19.232655
72.075 19.381399
72.080 19.254934
72.085 19.225355
72.090 18.79553
72.095 18.609385
72.100 18.842602
72.105 18.531586
72.110 18.529987
72.115 18.514343
72.120 18.073568
72.125 17.930943
72.130 17.781992
72.135 17.520483
72.140 17.985029
72.145 17.865198
72.150 17.940681
72.155 18.000273
72.160 18.202087
72.165 18.683544
72.170 19.140467
72.175 19.448126
72.180 19.874094
72.185 19.794451
72.190 19.532436
72.195 19.311768
72.200 18.857523
72.205 18.920244
72.210 18.637875
72.215 18.767752
72.220 18.941265
72.225 19.419739
72.230 19.960512
72.235 19.892595
72.240 19.45083
72.245 19.713737
72.250 19.788277
72.255 19.598162
72.260 18.827169
72.265 18.782045
72.270 19.070734
72.275 19.046658
72.280 18.279577
72.285 17.408014
72.290 17.551725
72.295 17.411312
72.300 17.384941
72.305 17.485561
72.310 17.564598
72.315 18.165771
72.320 18.626144
72.325 18.723795
72.330 19.01263
72.335 18.328634
72.340 17.941307
72.345 17.519808
72.350 17.413059
72.355 17.539598
72.360 17.696672
72.365 18.102516
72.370 18.361423
72.375 18.295809
72.380 18.518951
72.385 18.612101
72.390 18.285761
72.395 17.929737
72.400 18.099979
72.405 18.33989
72.410 18.268187
72.415 18.198029
72.420 18.653013
72.425 19.158323
72.430 19.124447
72.435 18.634182
72.440 18.839289
72.445 19.04063
72.450 18.80661
72.455 18.459318
72.460 18.425228
72.465 18.578093
72.470 18.589415
72.475 18.202898
72.480 17.930775
72.485 17.209476
72.490 16.762308
72.495 16.689009
72.500 16.635311
72.505 16.597733
72.510 16.699984
72.515 17.111174
72.520 17.904505
72.525 18.376051
72.530 18.382158
72.535 18.854528
72.540 18.998554
72.545 19.365372
72.550 19.659061
72.555 19.771795
72.560 20.313789
72.565 20.495869
72.570 20.116737
72.575 19.982893
72.580 20.353359
72.585 19.975239
72.590 19.214249
72.595 18.378084
72.600 17.8062
72.605 18.390783
72.610 18.152287
72.615 17.86422
72.620 17.600679
72.625 17.766914
72.630 18.388176
72.635 18.233456
72.640 17.796656
72.645 17.523645
72.650 16.820459
72.655 16.664175
72.660 16.333824
72.665 15.738773
72.670 15.564932
72.675 16.005573
72.680 16.639936
72.685 17.689617
72.690 18.096138
72.695 18.692915
72.700 18.850859
72.705 18.810873
72.710 18.812695
72.715 18.214121
72.720 18.2488
72.725 18.326147
72.730 18.221077
72.735 18.481518
72.740 18.511517
72.745 18.254705
72.750 18.230085
72.755 17.394741
72.760 17.931791
72.765 18.33515
72.770 18.030022
72.775 17.880192
72.780 17.690613
72.785 17.793844
72.790 17.940275
72.795 17.006012
72.800 17.133705
72.805 17.528141
72.810 17.602346
72.815 17.706676
72.820 18.007504
72.825 17.954048
72.830 18.474195
72.835 18.391705
72.840 17.988295
72.845 18.186022
72.850 18.229469
72.855 18.050344
72.860 18.014969
72.865 17.902704
72.870 17.99099
72.875 18.41658
72.880 18.519665
72.885 18.566233
72.890 18.607044
72.895 18.284243
72.900 17.928165
72.905 17.550488
72.910 16.85578
72.915 15.829733
72.920 15.898131
72.925 16.210247
72.930 16.483828
72.935 16.744804
72.940 16.836927
72.945 17.617216
72.950 18.096069
72.955 17.940874
72.960 18.055571
72.965 17.206211
72.970 16.954502
72.975 17.370497
72.980 17.674837
72.985 17.888609
72.990 17.515682
72.995 17.34424
73.000 17.712624
