!@!!GADDS PLOTSO FILE: Chi integration type
!@!!Title/SampleName: map-179
!@!!Comment: ?
!@!!User: Bruker Instrument Administrator
!@!!Site: University of Illinois Chicago
!@!!Frame: map-179_01_000.gfrm
!@!!Wavelengths    1.54184   1.54056   1.54439
!@!!Frame angles: 2Theta: 63.000 Omega: 50.000 Phi: 0.000 Chi: 90.000
!@!!Integration range: 2Theta: 53.000 to 73.000  Gamma: -105.000 to -75.000
!@!!Integration method: bin normalized
!@!N
!@!SS
!@!M
!@!L 0.0 0.0 0.0 0.0
!@!XDegrees
!@!YCounts
53.000 5.185584
53.005 5.370769
53.010 5.376806
53.015 5.211837
53.020 5.467633
53.025 5.836143
53.030 6.196657
53.035 6.410048
53.040 6.591569
53.045 6.530668
53.050 6.761468
53.055 6.860725
53.060 6.81618
53.065 6.774459
53.070 6.618488
53.075 6.670706
53.080 6.643816
53.085 6.651795
53.090 6.149468
53.095 5.843424
53.100 5.634899
53.105 5.325778
53.110 5.301168
53.115 4.981398
53.120 5.107812
53.125 5.295019
53.130 5.662251
53.135 5.897959
53.140 5.680732
53.145 5.44097
53.150 5.423474
53.155 5.327384
53.160 5.182837
53.165 5.11289
53.170 5.448158
53.175 5.772465
53.180 5.85079
53.185 5.685288
53.190 5.694012
53.195 5.478344
53.200 4.969436
53.205 5.121418
53.210 5.428372
53.215 5.878939
53.220 6.020568
53.225 6.085707
53.230 6.512749
53.235 6.861793
53.240 6.413404
53.245 5.942343
53.250 6.065187
53.255 6.395556
53.260 6.422565
53.265 6.616894
53.270 6.93307
53.275 7.412045
53.280 7.630262
53.285 7.331899
53.290 7.18619
53.295 7.175499
53.300 7.003091
53.305 6.989061
53.310 7.030185
53.315 7.141845
53.320 7.279388
53.325 6.883172
53.330 6.804371
53.335 6.80822
53.340 6.612513
53.345 6.587101
53.350 6.29032
53.355 6.100665
53.360 6.373634
53.365 6.135347
53.370 5.99139
53.375 5.969267
53.380 6.284693
53.385 6.498488
53.390 6.245217
53.395 6.144495
53.400 6.507636
53.405 6.280033
53.410 6.090183
53.415 5.878559
53.420 5.944951
53.425 6.363965
53.430 6.443974
53.435 6.226205
53.440 6.368425
53.445 6.251673
53.450 6.376044
53.455 6.680165
53.460 6.408873
53.465 6.125184
53.470 6.060095
53.475 5.556258
53.480 5.568176
53.485 5.515374
53.490 5.441431
53.495 5.361934
53.500 5.825233
53.505 5.948664
53.510 6.153367
53.515 6.033638
53.520 6.097088
53.525 6.035498
53.530 6.32553
53.535 6.136415
53.540 6.106557
53.545 5.99811
53.550 6.133742
53.555 6.571451
53.560 6.760426
53.565 6.925644
53.570 7.34734
53.575 7.758911
53.580 7.810348
53.585 7.462483
53.590 7.103119
53.595 6.984001
53.600 6.68316
53.605 6.242834
53.610 5.921489
53.615 5.687978
53.620 5.653465
53.625 5.2533
53.630 4.966794
53.635 5.082857
53.640 5.388499
53.645 5.823009
53.650 6.136784
53.655 6.180368
53.660 6.337824
53.665 6.492244
53.670 6.457852
53.675 6.313225
53.680 6.125309
53.685 6.475505
53.690 6.526005
53.695 6.762537
53.700 6.680954
53.705 6.542895
53.710 6.570851
53.715 6.373483
53.720 5.955009
53.725 5.90254
53.730 6.255851
53.735 7.125949
53.740 7.635472
53.745 7.634293
53.750 8.049882
53.755 8.367863
53.760 8.23037
53.765 7.824298
53.770 7.598643
53.775 7.618647
53.780 7.521645
53.785 7.046438
53.790 7.225273
53.795 7.514471
53.800 7.43343
53.805 6.843187
53.810 6.573041
53.815 6.625659
53.820 6.993926
53.825 7.747257
53.830 7.52048
53.835 7.166485
53.840 7.2082
53.845 7.311199
53.850 7.012959
53.855 6.443536
53.860 5.646472
53.865 5.777964
53.870 5.849428
53.875 5.831964
53.880 5.918476
53.885 6.004583
53.890 5.989095
53.895 5.809852
53.900 6.035882
53.905 6.310774
53.910 6.29249
53.915 6.393887
53.920 6.420224
53.925 6.113579
53.930 6.447257
53.935 6.399438
53.940 6.247602
53.945 6.336308
53.950 6.472987
53.955 6.80072
53.960 7.399051
53.965 7.307087
53.970 7.192004
53.975 7.492799
53.980 7.920842
53.985 8.14364
53.990 7.748586
53.995 7.700908
54.000 7.611499
54.005 7.46818
54.010 7.038068
54.015 6.665933
54.020 6.357632
54.025 6.414568
54.030 6.452333
54.035 6.612643
54.040 6.892347
54.045 7.442622
54.050 7.684254
54.055 8.097283
54.060 8.311522
54.065 8.295267
54.070 8.26325
54.075 8.110785
54.080 7.882246
54.085 7.557162
54.090 7.300508
54.095 7.179777
54.100 6.982786
54.105 6.992317
54.110 7.334839
54.115 7.501667
54.120 7.95101
54.125 7.927527
54.130 8.112156
54.135 8.510591
54.140 8.609355
54.145 8.294565
54.150 7.893066
54.155 7.604288
54.160 7.564604
54.165 7.118912
54.170 6.962642
54.175 6.55816
54.180 6.075795
54.185 5.743928
54.190 5.541051
54.195 5.351265
54.200 5.526073
54.205 5.65634
54.210 5.443364
54.215 5.573225
54.220 5.979065
54.225 6.363448
54.230 6.446219
54.235 6.192416
54.240 6.417992
54.245 6.924446
54.250 6.998823
54.255 6.562009
54.260 6.480565
54.265 6.913304
54.270 7.213253
54.275 7.244749
54.280 7.581914
54.285 7.483654
54.290 7.452229
54.295 7.217363
54.300 7.170603
54.305 7.31345
54.310 7.082366
54.315 6.652481
54.320 6.763286
54.325 6.891277
54.330 6.649714
54.335 6.728426
54.340 6.499982
54.345 6.543972
54.350 6.895808
54.355 7.030526
54.360 6.873479
54.365 6.90693
54.370 6.411805
54.375 6.398858
54.380 6.202846
54.385 5.813808
54.390 5.773902
54.395 6.093641
54.400 5.889855
54.405 5.902219
54.410 6.119498
54.415 6.035804
54.420 6.136554
54.425 6.400105
54.430 6.711316
54.435 6.974713
54.440 6.8427
54.445 6.874517
54.450 6.994187
54.455 6.521801
54.460 6.167614
54.465 6.173215
54.470 6.002078
54.475 5.712392
54.480 5.543197
54.485 5.812315
54.490 6.182621
54.495 5.755265
54.500 5.603719
54.505 6.17273
54.510 6.60289
54.515 6.579578
54.520 6.603988
54.525 6.491041
54.530 6.777146
54.535 6.583895
54.540 6.110413
54.545 6.064137
54.550 6.031164
54.555 6.507597
54.560 6.751104
54.565 7.07105
54.570 7.51986
54.575 7.664415
54.580 7.836811
54.585 7.990617
54.590 7.972939
54.595 7.796684
54.600 7.052442
54.605 6.561407
54.610 6.659199
54.615 6.546597
54.620 6.245473
54.625 6.036197
54.630 6.094293
54.635 6.361791
54.640 6.766115
54.645 6.943575
54.650 7.17677
54.655 7.524986
54.660 7.259933
54.665 7.181732
54.670 7.279823
54.675 7.263268
54.680 7.050118
54.685 6.612501
54.690 6.712213
54.695 7.232418
54.700 7.427589
54.705 7.205542
54.710 6.994074
54.715 6.911776
54.720 6.766512
54.725 6.359525
54.730 6.038375
54.735 5.809
54.740 5.853483
54.745 6.189679
54.750 6.76557
54.755 7.048423
54.760 7.370678
54.765 7.420222
54.770 7.511439
54.775 7.639085
54.780 7.939904
54.785 8.080038
54.790 7.931028
54.795 7.81509
54.800 7.895547
54.805 7.954348
54.810 7.433249
54.815 6.86678
54.820 6.985842
54.825 6.980177
54.830 7.218544
54.835 7.21344
54.840 7.164605
54.845 7.337933
54.850 6.77528
54.855 6.537913
54.860 6.727179
54.865 6.594922
54.870 6.590445
54.875 6.852696
54.880 7.201244
54.885 7.497376
54.890 7.852486
54.895 7.786957
54.900 7.835346
54.905 7.705513
54.910 7.565886
54.915 7.582361
54.920 7.349589
54.925 7.148881
54.930 7.199739
54.935 7.558509
54.940 8.188502
54.945 7.991797
54.950 8.004029
54.955 8.192129
54.960 8.244137
54.965 8.033013
54.970 7.637349
54.975 7.243008
54.980 7.080072
54.985 7.125373
54.990 6.826992
54.995 6.813639
55.000 6.776301
55.005 6.686208
55.010 6.847707
55.015 7.085557
55.020 7.372535
55.025 7.313131
55.030 7.130444
55.035 7.281446
55.040 7.357052
55.045 7.477037
55.050 7.114746
55.055 6.827067
55.060 7.047266
55.065 7.449358
55.070 7.345057
55.075 7.006393
55.080 6.900644
55.085 7.289904
55.090 7.576818
55.095 7.734212
55.100 7.56871
55.105 7.790646
55.110 8.043672
55.115 8.071775
55.120 7.901755
55.125 7.682635
55.130 7.325966
55.135 7.080477
55.140 7.347732
55.145 7.342515
55.150 7.195611
55.155 6.994643
55.160 7.239779
55.165 7.459143
55.170 7.143834
55.175 6.70582
55.180 6.823469
55.185 7.029526
55.190 7.075163
55.195 6.760048
55.200 7.095181
55.205 7.637679
55.210 7.845166
55.215 7.862439
55.220 7.539679
55.225 7.477178
55.230 7.339792
55.235 7.374864
55.240 7.39794
55.245 7.532174
55.250 7.56389
55.255 7.967597
55.260 8.45081
55.265 8.4834
55.270 7.806734
55.275 7.278596
55.280 7.045363
55.285 6.553107
55.290 6.120181
55.295 5.71658
55.300 5.33213
55.305 5.598134
55.310 5.827402
55.315 5.737423
55.320 6.253019
55.325 6.218535
55.330 6.530166
55.335 7.006968
55.340 6.74791
55.345 7.009388
55.350 7.363156
55.355 7.064901
55.360 7.09702
55.365 6.57312
55.370 6.538116
55.375 6.400522
55.380 6.027045
55.385 5.857776
55.390 5.723633
55.395 5.927104
55.400 6.330221
55.405 6.560395
55.410 6.612408
55.415 6.590186
55.420 6.696832
55.425 7.024205
55.430 7.03628
55.435 6.721662
55.440 6.637352
55.445 6.90105
55.450 7.17512
55.455 7.1957
55.460 7.518907
55.465 7.891333
55.470 8.269546
55.475 8.538319
55.480 8.738817
55.485 8.868235
55.490 8.535869
55.495 8.067162
55.500 7.743927
55.505 7.612333
55.510 7.580642
55.515 7.565926
55.520 7.49686
55.525 7.478441
55.530 7.157852
55.535 6.721547
55.540 6.30282
55.545 6.520867
55.550 6.594452
55.555 6.834735
55.560 6.931523
55.565 7.485978
55.570 7.857634
55.575 7.893379
55.580 7.636476
55.585 7.343846
55.590 7.191184
55.595 7.407985
55.600 7.194648
55.605 6.932036
55.610 6.901319
55.615 6.952568
55.620 7.20885
55.625 6.977365
55.630 7.050996
55.635 6.946282
55.640 7.241334
55.645 7.619907
55.650 7.414918
55.655 7.471681
55.660 7.618418
55.665 7.539977
55.670 7.603926
55.675 7.342172
55.680 7.060225
55.685 7.189804
55.690 7.183633
55.695 7.252646
55.700 7.199665
55.705 7.338235
55.710 7.49006
55.715 8.003819
55.720 8.079888
55.725 7.998862
55.730 7.978621
55.735 8.069449
55.740 8.12536
55.745 8.068149
55.750 7.75878
55.755 7.66484
55.760 7.594526
55.765 7.653621
55.770 7.56653
55.775 7.971191
55.780 8.197265
55.785 7.926379
55.790 7.813821
55.795 7.795893
55.800 7.787069
55.805 7.825175
55.810 7.679834
55.815 7.269134
55.820 7.45331
55.825 7.543056
55.830 7.814517
55.835 7.831355
55.840 7.393777
55.845 7.037446
55.850 7.28648
55.855 7.495434
55.860 7.034956
55.865 6.773364
55.870 6.890831
55.875 7.347067
55.880 7.701921
55.885 7.654012
55.890 7.962307
55.895 8.066719
55.900 7.823252
55.905 7.412868
55.910 7.132202
55.915 6.982653
55.920 6.967082
55.925 6.797201
55.930 7.085454
55.935 7.454801
55.940 8.129371
55.945 8.088343
55.950 8.002797
55.955 8.148753
55.960 8.250003
55.965 8.159188
55.970 7.862322
55.975 7.859698
55.980 7.785193
55.985 7.795143
55.990 7.40456
55.995 7.15676
56.000 7.219225
56.005 7.41723
56.010 7.045437
56.015 7.316948
56.020 7.205145
56.025 7.334021
56.030 7.619435
56.035 8.015494
56.040 8.01588
56.045 8.383684
56.050 8.397329
56.055 8.34058
56.060 8.287527
56.065 8.209398
56.070 7.876246
56.075 8.124859
56.080 7.93212
56.085 8.319638
56.090 8.774034
56.095 8.834026
56.100 8.666073
56.105 8.8815
56.110 8.3247
56.115 7.943744
56.120 7.71003
56.125 6.95981
56.130 6.773099
56.135 6.583233
56.140 6.288493
56.145 7.245742
56.150 7.158516
56.155 7.266339
56.160 7.547832
56.165 7.510098
56.170 7.697864
56.175 7.607295
56.180 7.117273
56.185 7.581898
56.190 7.414851
56.195 7.576474
56.200 7.996261
56.205 8.226277
56.210 7.980733
56.215 7.463585
56.220 7.555564
56.225 7.696572
56.230 7.706892
56.235 7.393511
56.240 7.188812
56.245 7.845554
56.250 8.490102
56.255 8.297519
56.260 8.170213
56.265 8.476435
56.270 8.464877
56.275 8.735598
56.280 8.412846
56.285 7.869611
56.290 8.047928
56.295 7.838331
56.300 7.683542
56.305 7.551268
56.310 7.167691
56.315 7.370111
56.320 7.537268
56.325 7.584395
56.330 7.686427
56.335 7.614498
56.340 7.797921
56.345 8.129335
56.350 8.209025
56.355 8.049901
56.360 8.134829
56.365 8.162012
56.370 8.325376
56.375 8.516035
56.380 8.354486
56.385 8.032711
56.390 8.18224
56.395 8.240726
56.400 8.446334
56.405 8.110078
56.410 7.858619
56.415 7.944249
56.420 8.165713
56.425 7.949727
56.430 7.986334
56.435 7.933482
56.440 7.929236
56.445 7.786309
56.450 7.573941
56.455 7.327334
56.460 7.241028
56.465 7.059129
56.470 7.001298
56.475 6.919385
56.480 6.97496
56.485 7.314168
56.490 8.178426
56.495 8.301332
56.500 8.344605
56.505 8.250051
56.510 8.484011
56.515 8.396441
56.520 8.408407
56.525 8.243687
56.530 8.017599
56.535 8.068473
56.540 8.225997
56.545 8.220392
56.550 8.420202
56.555 7.952545
56.560 7.696146
56.565 8.058424
56.570 8.027119
56.575 7.728657
56.580 7.460514
56.585 7.268749
56.590 7.472614
56.595 7.611816
56.600 7.690127
56.605 7.810177
56.610 8.246491
56.615 8.732327
56.620 8.9503
56.625 9.421809
56.630 8.827848
56.635 8.862743
56.640 9.05401
56.645 8.670442
56.650 8.616697
56.655 8.736691
56.660 8.12975
56.665 8.720157
56.670 8.829243
56.675 8.591454
56.680 9.039176
56.685 9.093819
56.690 9.09492
56.695 9.255792
56.700 8.857768
56.705 8.597336
56.710 8.233596
56.715 7.925082
56.720 7.579118
56.725 7.400576
56.730 7.624831
56.735 7.696136
56.740 7.923222
56.745 8.79387
56.750 9.238161
56.755 9.366587
56.760 9.386361
56.765 8.953949
56.770 9.01492
56.775 8.775043
56.780 8.611697
56.785 8.367554
56.790 8.337707
56.795 8.681091
56.800 9.313386
56.805 9.204244
56.810 9.138495
56.815 8.734219
56.820 8.739466
56.825 9.07548
56.830 8.76818
56.835 8.516379
56.840 8.571866
56.845 8.63692
56.850 8.709399
56.855 8.447287
56.860 7.859997
56.865 7.525146
56.870 7.62192
56.875 7.695271
56.880 7.654246
56.885 7.921412
56.890 8.118999
56.895 8.44159
56.900 8.755887
56.905 8.711459
56.910 8.690256
56.915 8.770298
56.920 8.441521
56.925 8.302115
56.930 8.476665
56.935 8.592138
56.940 8.802416
56.945 9.043098
56.950 9.256947
56.955 9.674158
56.960 9.599517
56.965 9.136812
56.970 8.952431
56.975 9.03463
56.980 8.914091
56.985 8.626478
56.990 8.411052
56.995 8.375924
57.000 8.447261
57.005 8.481029
57.010 7.771368
57.015 7.396281
57.020 7.310337
57.025 7.132054
57.030 7.370673
57.035 7.387717
57.040 7.495314
57.045 8.21959
57.050 8.401553
57.055 8.614504
57.060 8.624593
57.065 8.770555
57.070 9.337093
57.075 9.081579
57.080 8.480997
57.085 8.282201
57.090 8.226292
57.095 8.403193
57.100 8.156289
57.105 7.726047
57.110 7.793921
57.115 8.193537
57.120 8.588655
57.125 8.586993
57.130 8.503054
57.135 8.805821
57.140 8.887958
57.145 9.248675
57.150 9.202225
57.155 9.17082
57.160 9.239787
57.165 9.401976
57.170 8.965813
57.175 8.609485
57.180 7.816934
57.185 7.60115
57.190 7.600383
57.195 7.564791
57.200 7.804135
57.205 7.913103
57.210 8.421236
57.215 9.104019
57.220 9.035213
57.225 8.757654
57.230 8.568128
57.235 8.182154
57.240 8.143669
57.245 8.068211
57.250 8.103778
57.255 8.405978
57.260 8.740584
57.265 8.633122
57.270 8.666585
57.275 8.456234
57.280 8.27304
57.285 8.146214
57.290 7.918499
57.295 7.674349
57.300 7.754268
57.305 7.58965
57.310 7.902446
57.315 8.021689
57.320 7.863722
57.325 8.10738
57.330 7.859912
57.335 8.061913
57.340 8.353897
57.345 8.345942
57.350 8.089452
57.355 7.801515
57.360 7.949522
57.365 7.922925
57.370 8.114236
57.375 8.331541
57.380 8.193856
57.385 8.488209
57.390 8.585031
57.395 8.394549
57.400 8.425344
57.405 8.016077
57.410 7.866161
57.415 7.808012
57.420 7.711926
57.425 7.870597
57.430 8.10778
57.435 8.295859
57.440 8.166155
57.445 8.078891
57.450 8.329303
57.455 8.254698
57.460 8.061346
57.465 7.505255
57.470 7.106097
57.475 7.137833
57.480 6.672836
57.485 6.57111
57.490 6.656186
57.495 6.882866
57.500 7.251582
57.505 7.443884
57.510 7.64799
57.515 7.81855
57.520 7.4778
57.525 7.475277
57.530 7.393865
57.535 7.498946
57.540 7.908897
57.545 7.575922
57.550 8.262009
57.555 8.789911
57.560 8.868339
57.565 8.585283
57.570 8.475543
57.575 8.472919
57.580 8.460135
57.585 8.106806
57.590 8.196504
57.595 8.31102
57.600 8.720629
57.605 8.840656
57.610 8.691651
57.615 8.410328
57.620 8.344633
57.625 8.322525
57.630 8.406805
57.635 8.009079
57.640 7.427186
57.645 7.533028
57.650 8.115656
57.655 8.247063
57.660 8.359675
57.665 7.887767
57.670 8.131759
57.675 8.603767
57.680 8.774555
57.685 8.804557
57.690 9.044242
57.695 8.871542
57.700 9.082546
57.705 9.064143
57.710 9.035683
57.715 8.78171
57.720 8.506113
57.725 8.52838
57.730 8.672574
57.735 9.036135
57.740 9.403683
57.745 9.185214
57.750 9.50416
57.755 9.293603
57.760 9.268319
57.765 9.01609
57.770 8.558972
57.775 8.246118
57.780 8.268757
57.785 8.075608
57.790 8.121091
57.795 7.69961
57.800 7.862402
57.805 8.322141
57.810 8.729868
57.815 8.858455
57.820 9.09388
57.825 9.470528
57.830 9.628291
57.835 8.967149
57.840 8.607151
57.845 8.282465
57.850 8.619689
57.855 8.588643
57.860 8.225644
57.865 8.514595
57.870 9.14352
57.875 9.364823
57.880 9.461422
57.885 9.098388
57.890 9.11773
57.895 9.421312
57.900 9.143786
57.905 8.870178
57.910 8.703671
57.915 8.76584
57.920 8.97556
57.925 8.801475
57.930 8.512136
57.935 8.868692
57.940 8.818372
57.945 8.889956
57.950 8.899177
57.955 8.854352
57.960 8.832956
57.965 9.108044
57.970 8.920711
57.975 9.197116
57.980 9.055082
57.985 9.254457
57.990 9.348725
57.995 9.421434
58.000 9.528801
58.005 9.665443
58.010 9.228623
58.015 9.083397
58.020 8.450832
58.025 8.218073
58.030 8.197658
58.035 8.027248
58.040 8.015182
58.045 8.440118
58.050 8.897162
58.055 9.332355
58.060 9.658248
58.065 10.018082
58.070 9.705805
58.075 9.622837
58.080 9.683003
58.085 9.394272
58.090 9.290726
58.095 9.108816
58.100 9.026651
58.105 9.715312
58.110 9.374968
58.115 9.215423
58.120 9.272743
58.125 9.55692
58.130 9.572942
58.135 9.190207
58.140 9.229239
58.145 9.800149
58.150 9.950908
58.155 9.99057
58.160 9.632988
58.165 9.614407
58.170 9.744944
58.175 10.029409
58.180 9.753709
58.185 9.538322
58.190 9.288606
58.195 9.368881
58.200 9.518745
58.205 9.130353
58.210 8.612833
58.215 8.310631
58.220 8.229868
58.225 8.358695
58.230 8.060398
58.235 8.104919
58.240 8.342777
58.245 8.341283
58.250 8.505002
58.255 8.493644
58.260 8.718221
58.265 8.912134
58.270 8.620652
58.275 8.851249
58.280 9.14047
58.285 9.61212
58.290 9.8156
58.295 9.634105
58.300 9.855894
58.305 9.569702
58.310 9.347862
58.315 9.076447
58.320 8.849936
58.325 9.339108
58.330 9.594275
58.335 9.730631
58.340 10.242182
58.345 10.369688
58.350 10.492584
58.355 10.112911
58.360 9.983104
58.365 9.959774
58.370 10.552518
58.375 10.829978
58.380 11.275645
58.385 11.339684
58.390 11.862209
58.395 11.396873
58.400 11.38195
58.405 10.835043
58.410 10.499149
58.415 10.063024
58.420 10.402974
58.425 10.638168
58.430 10.809925
58.435 10.640494
58.440 10.639252
58.445 10.265662
58.450 10.495086
58.455 10.494253
58.460 10.336871
58.465 10.322651
58.470 10.155204
58.475 10.555062
58.480 11.4285
58.485 11.379786
58.490 11.616449
58.495 11.835968
58.500 11.947176
58.505 12.138347
58.510 11.933684
58.515 11.991743
58.520 12.623137
58.525 12.60557
58.530 12.634203
58.535 12.902225
58.540 13.327041
58.545 13.100086
58.550 12.486995
58.555 12.140971
58.560 12.064777
58.565 12.606336
58.570 12.657013
58.575 12.782058
58.580 13.383005
58.585 13.639534
58.590 13.549349
58.595 13.460161
58.600 13.442323
58.605 13.658695
58.610 13.55263
58.615 13.249104
58.620 13.216262
58.625 13.80061
58.630 14.489304
58.635 14.203176
58.640 13.817844
58.645 13.794855
58.650 13.895391
58.655 14.277498
58.660 14.130426
58.665 13.864811
58.670 13.598051
58.675 13.827455
58.680 13.957068
58.685 13.700371
58.690 13.53652
58.695 13.67074
58.700 13.525793
58.705 13.715695
58.710 13.611481
58.715 13.849735
58.720 14.391867
58.725 14.305101
58.730 13.792825
58.735 13.500444
58.740 13.559561
58.745 13.38072
58.750 13.472257
58.755 13.734798
58.760 13.824841
58.765 13.960714
58.770 14.119043
58.775 13.617176
58.780 13.196214
58.785 12.378275
58.790 11.732455
58.795 11.479157
58.800 11.490385
58.805 11.176544
58.810 11.590736
58.815 11.741081
58.820 11.433548
58.825 11.370019
58.830 11.402117
58.835 11.748696
58.840 12.271508
58.845 12.14584
58.850 12.196648
58.855 12.426126
58.860 12.705101
58.865 12.457432
58.870 11.987803
58.875 11.640448
58.880 11.478296
58.885 11.060668
58.890 11.073256
58.895 11.039827
58.900 11.341232
58.905 11.444425
58.910 11.275486
58.915 11.115439
58.920 11.247673
58.925 11.187453
58.930 10.576929
58.935 10.114838
58.940 9.500907
58.945 9.623673
58.950 9.930259
58.955 9.862198
58.960 9.559711
58.965 10.050815
58.970 10.013802
58.975 10.168961
58.980 10.22139
58.985 10.303897
58.990 10.61219
58.995 10.872597
59.000 10.723658
59.005 11.052245
59.010 11.655148
59.015 11.163565
59.020 10.74743
59.025 10.234342
59.030 10.249722
59.035 10.015556
59.040 10.00359
59.045 10.139857
59.050 10.519787
59.055 10.65434
59.060 10.508448
59.065 10.187385
59.070 9.756796
59.075 9.184463
59.080 8.775297
59.085 8.257735
59.090 8.307048
59.095 8.392201
59.100 8.491164
59.105 8.65292
59.110 8.632338
59.115 8.658859
59.120 8.928811
59.125 8.972482
59.130 9.050497
59.135 9.182967
59.140 8.725217
59.145 8.579241
59.150 8.183975
59.155 8.136631
59.160 8.103658
59.165 8.000511
59.170 8.060473
59.175 8.785336
59.180 9.120459
59.185 9.217676
59.190 8.972003
59.195 8.92819
59.200 8.937751
59.205 8.76278
59.210 8.545647
59.215 8.524811
59.220 8.843179
59.225 9.28363
59.230 9.07457
59.235 8.991554
59.240 9.065726
59.245 9.167859
59.250 8.853902
59.255 8.682673
59.260 8.472328
59.265 9.098483
59.270 9.191674
59.275 9.264108
59.280 9.209186
59.285 9.299854
59.290 9.083156
59.295 8.86826
59.300 8.573174
59.305 8.348806
59.310 8.324263
59.315 8.424132
59.320 8.369544
59.325 8.481936
59.330 8.237183
59.335 8.301426
59.340 8.624852
59.345 8.991055
59.350 8.697052
59.355 8.745241
59.360 8.867736
59.365 9.06676
59.370 8.919723
59.375 9.005527
59.380 8.820961
59.385 9.045689
59.390 9.190069
59.395 9.137584
59.400 9.245513
59.405 9.490103
59.410 9.229128
59.415 9.153516
59.420 8.972159
59.425 9.022291
59.430 9.334982
59.435 9.224837
59.440 9.154726
59.445 9.270832
59.450 9.450838
59.455 9.480956
59.460 8.952065
59.465 8.46664
59.470 8.456989
59.475 8.246331
59.480 7.823924
59.485 7.329472
59.490 7.094485
59.495 7.425225
59.500 7.705928
59.505 7.876654
59.510 7.841434
59.515 8.075974
59.520 8.507821
59.525 8.780037
59.530 8.769442
59.535 8.787821
59.540 8.845326
59.545 8.927068
59.550 8.888574
59.555 8.800916
59.560 9.236954
59.565 9.312912
59.570 9.330021
59.575 9.050343
59.580 9.179898
59.585 9.410788
59.590 9.226446
59.595 8.689932
59.600 8.395761
59.605 8.453028
59.610 8.822111
59.615 8.7791
59.620 8.282706
59.625 8.593969
59.630 8.991235
59.635 9.147429
59.640 8.68925
59.645 8.202062
59.650 8.235238
59.655 8.803271
59.660 8.567513
59.665 8.153687
59.670 8.166984
59.675 8.334954
59.680 8.750817
59.685 8.61239
59.690 8.490428
59.695 8.53218
59.700 8.808147
59.705 9.25983
59.710 9.375037
59.715 9.303353
59.720 9.431473
59.725 9.284325
59.730 9.353394
59.735 9.288105
59.740 9.124322
59.745 9.209828
59.750 9.411765
59.755 9.470447
59.760 9.896068
59.765 10.008439
59.770 10.104882
59.775 9.905905
59.780 10.018243
59.785 9.768229
59.790 9.430258
59.795 9.129458
59.800 8.979636
59.805 8.327541
59.810 8.261828
59.815 8.30713
59.820 8.438945
59.825 8.601215
59.830 8.355639
59.835 8.339201
59.840 8.985373
59.845 8.966278
59.850 8.457813
59.855 8.379481
59.860 8.327129
59.865 8.255668
59.870 8.057882
59.875 8.10817
59.880 8.421536
59.885 8.8822
59.890 9.290969
59.895 9.589723
59.900 10.019168
59.905 10.285295
59.910 10.077992
59.915 9.743718
59.920 9.671139
59.925 9.200588
59.930 8.940089
59.935 8.688387
59.940 8.56585
59.945 8.312767
59.950 8.136398
59.955 7.836513
59.960 7.777821
59.965 8.010232
59.970 8.574861
59.975 8.870023
59.980 9.29929
59.985 9.88703
59.990 10.443651
59.995 10.658989
60.000 10.401306
60.005 9.890496
60.010 9.80693
60.015 9.640293
60.020 8.959572
60.025 8.674925
60.030 8.46669
60.035 8.591106
60.040 8.757937
60.045 8.659036
60.050 8.64128
60.055 9.089574
60.060 9.439834
60.065 9.635628
60.070 9.534283
60.075 9.296397
60.080 9.048036
60.085 9.01786
60.090 8.881628
60.095 8.278094
60.100 8.317957
60.105 8.502948
60.110 9.001095
60.115 9.213465
60.120 9.416512
60.125 9.339527
60.130 9.325171
60.135 9.171661
60.140 8.800687
60.145 8.874459
60.150 9.228745
60.155 9.09126
60.160 9.082864
60.165 9.39017
60.170 9.42173
60.175 9.283812
60.180 8.713841
60.185 8.594561
60.190 8.737412
60.195 8.583807
60.200 8.487893
60.205 8.388447
60.210 8.577414
60.215 8.752587
60.220 8.865066
60.225 9.072909
60.230 9.417435
60.235 9.446151
60.240 9.47006
60.245 9.391547
60.250 9.088197
60.255 8.814591
60.260 8.673395
60.265 8.371622
60.270 8.095194
60.275 8.307065
60.280 8.601613
60.285 8.723164
60.290 8.543473
60.295 8.529929
60.300 8.398099
60.305 8.683198
60.310 8.995324
60.315 9.003012
60.320 9.078759
60.325 9.224934
60.330 9.490718
60.335 9.848719
60.340 9.713351
60.345 9.392306
60.350 9.65662
60.355 10.117877
60.360 10.570158
60.365 10.696756
60.370 10.684731
60.375 10.643124
60.380 10.896287
60.385 10.531248
60.390 10.013494
60.395 9.767368
60.400 9.3786
60.405 9.450164
60.410 9.351878
60.415 8.988955
60.420 8.86055
60.425 8.680478
60.430 9.108763
60.435 9.264921
60.440 9.05724
60.445 9.166512
60.450 8.940559
60.455 9.312664
60.460 9.243918
60.465 8.220118
60.470 8.135371
60.475 8.421395
60.480 8.602481
60.485 8.89413
60.490 8.949572
60.495 9.62374
60.500 10.340133
60.505 10.091148
60.510 9.860921
60.515 9.768884
60.520 9.713531
60.525 9.522699
60.530 9.293394
60.535 9.406628
60.540 9.463392
60.545 9.425272
60.550 9.521248
60.555 9.431802
60.560 9.276176
60.565 9.158939
60.570 8.807033
60.575 8.86139
60.580 8.88195
60.585 8.544255
60.590 8.750596
60.595 9.130231
60.600 9.094503
60.605 8.923252
60.610 9.238803
60.615 9.549026
60.620 9.547727
60.625 9.600488
60.630 9.531337
60.635 9.453414
60.640 9.578336
60.645 9.381077
60.650 9.638845
60.655 10.110582
60.660 9.869113
60.665 9.569026
60.670 9.95818
60.675 10.024437
60.680 9.721772
60.685 9.363477
60.690 8.548778
60.695 8.628909
60.700 8.581043
60.705 8.447457
60.710 8.271917
60.715 7.782292
60.720 7.79291
60.725 8.332545
60.730 8.325372
60.735 8.586767
60.740 8.616464
60.745 8.855692
60.750 9.362641
60.755 9.340025
60.760 9.266618
60.765 9.068175
60.770 9.084056
60.775 8.78783
60.780 8.821089
60.785 8.818242
60.790 9.095818
60.795 8.812951
60.800 8.824325
60.805 8.515644
60.810 8.722785
60.815 8.714777
60.820 8.81636
60.825 8.675623
60.830 8.846421
60.835 9.354559
60.840 9.629664
60.845 9.736167
60.850 9.866507
60.855 10.067031
60.860 10.028512
60.865 9.786573
60.870 9.341462
60.875 9.226158
60.880 9.104895
60.885 9.12731
60.890 8.573922
60.895 8.669334
60.900 8.809554
60.905 8.977055
60.910 8.812091
60.915 8.606866
60.920 8.658776
60.925 8.784277
60.930 8.856296
60.935 8.996097
60.940 8.458075
60.945 8.483372
60.950 8.651142
60.955 8.269423
60.960 8.475401
60.965 8.486961
60.970 8.389498
60.975 8.799699
60.980 8.621684
60.985 8.676579
60.990 8.749278
60.995 8.40124
61.000 7.69521
61.005 7.764848
61.010 7.562572
61.015 7.518806
61.020 7.833427
61.025 8.000811
61.030 8.297808
61.035 8.597678
61.040 8.640488
61.045 8.766472
61.050 8.727929
61.055 8.4327
61.060 8.222958
61.065 7.789651
61.070 7.957503
61.075 8.144702
61.080 8.496943
61.085 8.933043
61.090 8.785425
61.095 8.829694
61.100 9.085047
61.105 8.72132
61.110 8.580341
61.115 8.511618
61.120 8.533881
61.125 8.711509
61.130 8.911001
61.135 9.213124
61.140 9.040964
61.145 8.849435
61.150 8.363511
61.155 7.93713
61.160 7.734425
61.165 7.74138
61.170 7.67119
61.175 7.863212
61.180 8.127835
61.185 8.738919
61.190 9.131688
61.195 9.376364
61.200 9.572896
61.205 9.901964
61.210 10.260501
61.215 10.192408
61.220 9.984714
61.225 10.254503
61.230 10.286108
61.235 9.758561
61.240 9.455497
61.245 9.774203
61.250 9.950985
61.255 9.884072
61.260 9.323752
61.265 9.288333
61.270 9.497931
61.275 9.777367
61.280 9.234577
61.285 9.000718
61.290 9.03266
61.295 9.385614
61.300 9.461196
61.305 9.27593
61.310 9.043057
61.315 8.942406
61.320 8.748419
61.325 8.464909
61.330 8.145307
61.335 8.091035
61.340 8.252769
61.345 8.429358
61.350 8.89819
61.355 8.973495
61.360 9.499559
61.365 9.634879
61.370 9.854956
61.375 9.799584
61.380 9.477023
61.385 9.607833
61.390 9.7017
61.395 9.281449
61.400 9.224381
61.405 9.180178
61.410 9.410344
61.415 9.462195
61.420 9.256982
61.425 9.216763
61.430 9.555214
61.435 9.203393
61.440 8.990923
61.445 9.136058
61.450 8.965611
61.455 8.73528
61.460 8.756494
61.465 8.510763
61.470 9.113329
61.475 9.121859
61.480 8.471128
61.485 8.345946
61.490 8.553156
61.495 8.605527
61.500 8.795006
61.505 8.856926
61.510 8.728599
61.515 8.876943
61.520 9.239404
61.525 9.359879
61.530 9.55829
61.535 9.593856
61.540 9.468361
61.545 9.741081
61.550 10.112343
61.555 10.267402
61.560 10.255149
61.565 9.90697
61.570 9.871034
61.575 9.941824
61.580 9.953259
61.585 9.912485
61.590 9.355513
61.595 9.16225
61.600 9.219646
61.605 9.070089
61.610 9.028759
61.615 8.799451
61.620 8.033214
61.625 7.753366
61.630 7.698799
61.635 7.773214
61.640 8.049138
61.645 8.361278
61.650 8.350962
61.655 9.012954
61.660 9.609828
61.665 9.547128
61.670 9.289436
61.675 8.913511
61.680 8.290738
61.685 8.264845
61.690 8.087993
61.695 7.820635
61.700 7.600368
61.705 7.662459
61.710 7.663931
61.715 8.365435
61.720 8.585378
61.725 8.367624
61.730 8.291921
61.735 8.879247
61.740 8.597809
61.745 8.330809
61.750 8.025265
61.755 8.289757
61.760 8.728998
61.765 9.005184
61.770 9.103299
61.775 9.341775
61.780 9.706477
61.785 9.628142
61.790 9.1766
61.795 8.83959
61.800 8.663744
61.805 8.432398
61.810 8.646883
61.815 8.611514
61.820 9.012964
61.825 9.451829
61.830 9.793677
61.835 9.914379
61.840 9.976341
61.845 9.605987
61.850 9.267703
61.855 8.674318
61.860 8.550421
61.865 8.602297
61.870 8.97119
61.875 9.510056
61.880 9.995812
61.885 10.225481
61.890 10.704807
61.895 10.988011
61.900 11.148047
61.905 10.735182
61.910 10.338343
61.915 10.137002
61.920 9.881069
61.925 9.914948
61.930 9.179921
61.935 8.872241
61.940 9.04198
61.945 9.135896
61.950 8.934432
61.955 8.756819
61.960 8.181405
61.965 8.125797
61.970 8.525994
61.975 8.800664
61.980 8.975466
61.985 9.631676
61.990 10.090682
61.995 10.228122
62.000 10.003868
62.005 9.599222
62.010 9.143579
62.015 8.704631
62.020 8.106852
62.025 7.781795
62.030 7.812076
62.035 8.509855
62.040 8.749415
62.045 9.025107
62.050 9.17151
62.055 9.581891
62.060 9.997653
62.065 10.266669
62.070 9.859198
62.075 9.85605
62.080 9.70927
62.085 9.812364
62.090 9.483292
62.095 9.29034
62.100 9.277685
62.105 9.20538
62.110 9.054514
62.115 8.96464
62.120 8.899825
62.125 9.245602
62.130 9.613059
62.135 9.832047
62.140 9.953038
62.145 9.584674
62.150 9.635036
62.155 9.563846
62.160 9.311045
62.165 9.305518
62.170 9.200665
62.175 9.342388
62.180 9.517213
62.185 9.1224
62.190 8.961777
62.195 8.714609
62.200 8.21913
62.205 8.031463
62.210 8.039194
62.215 8.190081
62.220 8.872857
62.225 9.379483
62.230 9.637239
62.235 10.096452
62.240 9.905516
62.245 9.677026
62.250 9.597466
62.255 9.335995
62.260 9.281654
62.265 9.047758
62.270 8.971213
62.275 9.658646
62.280 9.854859
62.285 9.852231
62.290 9.567005
62.295 9.025242
62.300 9.217225
62.305 8.971407
62.310 9.026609
62.315 9.503018
62.320 9.653465
62.325 10.008977
62.330 10.552842
62.335 10.997452
62.340 11.265841
62.345 11.313636
62.350 10.925885
62.355 10.617299
62.360 10.305631
62.365 10.134863
62.370 9.774151
62.375 9.824814
62.380 9.45831
62.385 9.691485
62.390 10.109941
62.395 10.412757
62.400 10.404184
62.405 9.999379
62.410 9.683231
62.415 9.762638
62.420 9.421835
62.425 9.493271
62.430 9.518659
62.435 9.399269
62.440 10.017759
62.445 10.307039
62.450 10.16031
62.455 10.020199
62.460 10.181093
62.465 10.140104
62.470 10.287703
62.475 10.047771
62.480 9.820613
62.485 9.554029
62.490 9.855174
62.495 9.479529
62.500 8.971081
62.505 8.762129
62.510 8.63075
62.515 8.574725
62.520 9.232822
62.525 9.641738
62.530 10.054374
62.535 10.776973
62.540 11.004501
62.545 11.232999
62.550 11.12843
62.555 11.020718
62.560 10.877663
62.565 10.738249
62.570 10.517674
62.575 10.250271
62.580 10.166953
62.585 10.561673
62.590 10.480076
62.595 9.965138
62.600 9.653862
62.605 9.623411
62.610 9.974957
62.615 9.869439
62.620 9.700044
62.625 9.454772
62.630 9.535149
62.635 9.319763
62.640 9.004884
62.645 8.696315
62.650 8.940731
62.655 8.954809
62.660 9.60469
62.665 9.658793
62.670 9.857471
62.675 10.383672
62.680 10.539448
62.685 10.208415
62.690 10.352603
62.695 9.855128
62.700 10.595119
62.705 10.911131
62.710 10.788198
62.715 10.675359
62.720 11.153351
62.725 11.041608
62.730 10.966852
62.735 10.277948
62.740 10.078245
62.745 10.237044
62.750 10.873839
62.755 10.991253
62.760 10.886231
62.765 10.707802
62.770 10.689536
62.775 10.425655
62.780 9.967516
62.785 9.347255
62.790 9.175674
62.795 9.196325
62.800 9.579448
62.805 9.808246
62.810 10.013255
62.815 10.1127
62.820 10.219752
62.825 10.115945
62.830 10.350194
62.835 10.116723
62.840 10.023385
62.845 10.360269
62.850 10.378456
62.855 10.039331
62.860 10.25787
62.865 9.785918
62.870 9.627437
62.875 9.253434
62.880 8.95216
62.885 9.205991
62.890 9.255028
62.895 8.747405
62.900 8.576053
62.905 8.609915
62.910 8.507694
62.915 8.788577
62.920 8.7001
62.925 9.055611
62.930 9.558558
62.935 10.045447
62.940 10.043274
62.945 10.353184
62.950 10.179961
62.955 10.302091
62.960 10.239475
62.965 10.323686
62.970 10.651912
62.975 10.968957
62.980 11.167436
62.985 11.346492
62.990 11.383229
62.995 11.598116
63.000 11.529235
63.005 11.312935
63.010 11.143737
63.015 10.9012
63.020 10.765026
63.025 10.68717
63.030 10.210698
63.035 10.00517
63.040 9.693658
63.045 9.781383
63.050 9.928908
63.055 9.876038
63.060 9.915728
63.065 10.023124
63.070 10.017293
63.075 10.100954
63.080 10.170275
63.085 10.170972
63.090 10.250364
63.095 10.027093
63.100 10.017715
63.105 10.380082
63.110 10.54171
63.115 10.472741
63.120 10.452658
63.125 10.190778
63.130 10.277991
63.135 9.99279
63.140 9.6599
63.145 9.797247
63.150 10.227807
63.155 10.131508
63.160 9.873301
63.165 9.510498
63.170 9.635574
63.175 9.566288
63.180 9.300871
63.185 8.702901
63.190 8.9577
63.195 9.373404
63.200 9.692077
63.205 9.613919
63.210 9.747783
63.215 9.930295
63.220 9.486511
63.225 9.008718
63.230 8.693202
63.235 8.707733
63.240 9.21212
63.245 9.011043
63.250 9.106176
63.255 9.66748
63.260 10.214807
63.265 10.175143
63.270 10.103982
63.275 10.119855
63.280 10.103587
63.285 10.187722
63.290 9.986299
63.295 9.714167
63.300 10.292077
63.305 10.774211
63.310 10.854905
63.315 10.977787
63.320 10.587156
63.325 10.79386
63.330 10.923682
63.335 10.462539
63.340 10.08134
63.345 9.586452
63.350 10.072651
63.355 10.73664
63.360 10.702609
63.365 11.247886
63.370 11.812452
63.375 12.024525
63.380 12.219509
63.385 11.866573
63.390 11.036063
63.395 10.588089
63.400 9.941486
63.405 9.419254
63.410 9.217831
63.415 9.208614
63.420 8.992661
63.425 9.310032
63.430 9.817516
63.435 9.96717
63.440 10.233157
63.445 10.35036
63.450 10.551149
63.455 11.033425
63.460 10.827379
63.465 10.481662
63.470 10.527494
63.475 10.126235
63.480 10.261232
63.485 10.191237
63.490 10.071315
63.495 10.140015
63.500 10.183221
63.505 10.328019
63.510 10.641261
63.515 10.579328
63.520 10.607906
63.525 10.134912
63.530 9.897232
63.535 9.643021
63.540 9.21223
63.545 8.944225
63.550 8.504263
63.555 8.213457
63.560 8.235297
63.565 8.419845
63.570 8.809626
63.575 9.088414
63.580 8.797383
63.585 8.811651
63.590 8.731563
63.595 9.415775
63.600 9.367667
63.605 8.823725
63.610 8.652453
63.615 9.040996
63.620 9.229095
63.625 9.202819
63.630 8.879394
63.635 8.919462
63.640 9.163896
63.645 9.381631
63.650 9.66669
63.655 9.488505
63.660 9.794271
63.665 10.086013
63.670 10.056595
63.675 10.208177
63.680 10.481959
63.685 10.554877
63.690 10.992004
63.695 10.613559
63.700 10.143973
63.705 10.546328
63.710 10.732679
63.715 10.547524
63.720 10.234307
63.725 10.189051
63.730 11.062955
63.735 11.631198
63.740 11.314869
63.745 10.842535
63.750 10.675078
63.755 10.685782
63.760 10.800937
63.765 10.774325
63.770 10.160785
63.775 9.668884
63.780 10.107196
63.785 10.071103
63.790 9.708472
63.795 9.103298
63.800 8.805725
63.805 9.548162
63.810 9.999156
63.815 9.9594
63.820 10.308919
63.825 10.469485
63.830 10.517015
63.835 10.957783
63.840 10.838526
63.845 10.501638
63.850 10.339932
63.855 10.145542
63.860 10.355358
63.865 10.325934
63.870 9.93086
63.875 9.883994
63.880 10.120254
63.885 10.010743
63.890 10.308558
63.895 9.933973
63.900 9.656878
63.905 9.646202
63.910 9.663472
63.915 9.749054
63.920 9.6442
63.925 9.363355
63.930 9.537612
63.935 9.745528
63.940 9.896621
63.945 9.732594
63.950 9.20337
63.955 9.289272
63.960 9.675998
63.965 10.051507
63.970 10.229609
63.975 9.839853
63.980 9.888988
63.985 10.875916
63.990 10.602307
63.995 10.765461
64.000 10.931124
64.005 10.84115
64.010 11.573939
64.015 12.333374
64.020 12.503941
64.025 13.000021
64.030 12.568815
64.035 12.216967
64.040 11.923671
64.045 11.444475
64.050 10.695409
64.055 10.745593
64.060 10.775036
64.065 11.269305
64.070 11.681489
64.075 12.075315
64.080 12.055783
64.085 12.171586
64.090 12.162594
64.095 12.175115
64.100 11.829447
64.105 11.465282
64.110 11.560678
64.115 11.902246
64.120 11.990317
64.125 11.849357
64.130 11.725599
64.135 12.087376
64.140 12.460786
64.145 12.327842
64.150 12.403795
64.155 12.640204
64.160 12.247657
64.165 12.416719
64.170 12.564571
64.175 12.846515
64.180 13.151295
64.185 13.473303
64.190 14.078288
64.195 14.576086
64.200 14.791518
64.205 14.282754
64.210 14.092445
64.215 14.356566
64.220 14.195412
64.225 14.087573
64.230 14.443596
64.235 14.72013
64.240 15.85696
64.245 16.427334
64.250 16.224865
64.255 16.195562
64.260 16.097002
64.265 15.918273
64.270 16.111176
64.275 16.007389
64.280 16.136017
64.285 16.578566
64.290 17.152437
64.295 17.251856
64.300 17.544785
64.305 17.037277
64.310 16.752914
64.315 16.499674
64.320 16.082577
64.325 15.651018
64.330 15.348424
64.335 15.282757
64.340 15.638748
64.345 16.187094
64.350 17.122103
64.355 17.98324
64.360 18.913454
64.365 19.79471
64.370 20.716145
64.375 20.946743
64.380 20.399229
64.385 19.652081
64.390 19.327202
64.395 19.187071
64.400 18.782869
64.405 18.04706
64.410 18.219873
64.415 18.760021
64.420 18.665377
64.425 18.926752
64.430 18.406647
64.435 17.871649
64.440 17.997335
64.445 17.527948
64.450 17.052929
64.455 16.840113
64.460 16.56406
64.465 16.599916
64.470 16.940483
64.475 16.651089
64.480 16.877258
64.485 17.066593
64.490 17.224541
64.495 17.620653
64.500 18.0242
64.505 17.897243
64.510 17.691292
64.515 17.054293
64.520 16.864702
64.525 16.624748
64.530 16.121763
64.535 15.41284
64.540 15.381017
64.545 15.253366
64.550 15.633473
64.555 15.557949
64.560 15.49357
64.565 15.670278
64.570 15.886669
64.575 16.177797
64.580 15.787558
64.585 15.200006
64.590 14.708405
64.595 14.356989
64.600 13.818568
64.605 13.676527
64.610 13.342258
64.615 13.93629
64.620 14.196362
64.625 14.416677
64.630 14.618411
64.635 14.81444
64.640 14.122318
64.645 13.948404
64.650 14.61577
64.655 14.903373
64.660 15.316039
64.665 15.400288
64.670 14.977133
64.675 15.481708
64.680 15.367459
64.685 14.469759
64.690 14.202685
64.695 13.902772
64.700 13.570206
64.705 13.151521
64.710 12.512694
64.715 12.381276
64.720 12.668005
64.725 12.966349
64.730 13.271438
64.735 13.711079
64.740 14.124092
64.745 14.274048
64.750 14.733969
64.755 14.26244
64.760 13.963278
64.765 13.726571
64.770 13.905582
64.775 14.394631
64.780 14.661592
64.785 14.329638
64.790 14.439878
64.795 14.395345
64.800 14.246242
64.805 13.518229
64.810 13.169713
64.815 13.123266
64.820 13.226518
64.825 13.319763
64.830 13.282971
64.835 13.33823
64.840 13.928901
64.845 14.496525
64.850 14.651195
64.855 14.888901
64.860 14.736588
64.865 14.692269
64.870 14.489639
64.875 14.220316
64.880 13.833127
64.885 13.489801
64.890 13.191853
64.895 13.146025
64.900 13.639661
64.905 13.71172
64.910 14.386796
64.915 14.818715
64.920 15.034193
64.925 15.354601
64.930 15.738605
64.935 16.032118
64.940 16.134661
64.945 15.747803
64.950 15.710805
64.955 15.768344
64.960 15.313869
64.965 15.051455
64.970 14.924641
64.975 14.908159
64.980 15.275086
64.985 15.737771
64.990 15.937995
64.995 15.994839
65.000 15.513393
65.005 15.372137
65.010 15.572269
65.015 14.889769
65.020 14.380795
65.025 14.450321
65.030 14.637791
65.035 15.22201
65.040 15.490467
65.045 15.557623
65.050 16.230925
65.055 16.702629
65.060 16.921858
65.065 16.723738
65.070 16.588602
65.075 16.249949
65.080 15.938274
65.085 15.899629
65.090 15.33064
65.095 14.793672
65.100 15.157787
65.105 15.13462
65.110 15.450867
65.115 15.409944
65.120 15.203709
65.125 15.402535
65.130 15.53653
65.135 15.017637
65.140 14.718123
65.145 14.117253
65.150 13.727457
65.155 13.206542
65.160 13.251928
65.165 13.571525
65.170 13.946441
65.175 13.81221
65.180 13.862624
65.185 14.233776
65.190 14.341259
65.195 14.584585
65.200 14.579463
65.205 14.540833
65.210 14.593631
65.215 14.431474
65.220 14.398191
65.225 14.187989
65.230 13.786998
65.235 13.753963
65.240 14.060067
65.245 14.335784
65.250 14.851534
65.255 14.810697
65.260 14.772129
65.265 14.815578
65.270 14.777613
65.275 14.702947
65.280 14.62015
65.285 14.036819
65.290 13.735728
65.295 14.00509
65.300 13.669606
65.305 13.31533
65.310 13.153429
65.315 13.289858
65.320 13.610291
65.325 13.531898
65.330 13.464528
65.335 13.660364
65.340 13.685468
65.345 13.769524
65.350 13.821469
65.355 14.224568
65.360 14.632399
65.365 14.745337
65.370 14.643044
65.375 14.951152
65.380 14.99732
65.385 14.755348
65.390 14.333838
65.395 14.038208
65.400 14.146448
65.405 14.222017
65.410 13.681764
65.415 14.053453
65.420 13.909377
65.425 13.757922
65.430 13.834393
65.435 14.207762
65.440 14.435964
65.445 14.977077
65.450 15.071097
65.455 15.837717
65.460 17.046642
65.465 17.163147
65.470 16.998886
65.475 17.679625
65.480 17.51749
65.485 17.250151
65.490 16.939449
65.495 16.168465
65.500 15.716322
65.505 16.231918
65.510 16.466694
65.515 16.521687
65.520 16.717789
65.525 16.474197
65.530 16.727097
65.535 17.494635
65.540 17.129156
65.545 16.437841
65.550 16.654507
65.555 16.794859
65.560 17.45203
65.565 18.024315
65.570 17.91301
65.575 17.757107
65.580 18.110937
65.585 18.079014
65.590 18.20426
65.595 17.795704
65.600 17.443628
65.605 18.029657
65.610 19.086954
65.615 19.843918
65.620 20.138062
65.625 20.316448
65.630 20.671888
65.635 20.754578
65.640 20.058001
65.645 19.496033
65.650 19.471695
65.655 19.510731
65.660 19.383884
65.665 19.101709
65.670 19.044521
65.675 18.97043
65.680 18.421583
65.685 17.77877
65.690 17.348829
65.695 17.034782
65.700 17.096659
65.705 17.119019
65.710 17.162333
65.715 16.822357
65.720 16.207945
65.725 16.540466
65.730 17.180607
65.735 17.50215
65.740 17.112892
65.745 16.961094
65.750 16.909302
65.755 17.40554
65.760 17.158098
65.765 16.319048
65.770 15.533713
65.775 15.408404
65.780 15.064036
65.785 14.940621
65.790 14.345107
65.795 13.975093
65.800 14.056205
65.805 14.364752
65.810 14.607301
65.815 15.302483
65.820 15.544903
65.825 15.500229
65.830 15.319677
65.835 15.430083
65.840 15.20353
65.845 15.1221
65.850 14.610188
65.855 14.227777
65.860 14.908435
65.865 15.112829
65.870 14.842961
65.875 14.808128
65.880 14.53506
65.885 14.428762
65.890 14.01619
65.895 13.26187
65.900 12.573195
65.905 12.291464
65.910 11.774696
65.915 11.703515
65.920 11.634251
65.925 11.890068
65.930 11.853441
65.935 12.324519
65.940 12.386077
65.945 12.675483
65.950 12.250294
65.955 11.725713
65.960 11.524154
65.965 12.06971
65.970 12.198709
65.975 12.161803
65.980 11.559485
65.985 11.884295
65.990 12.336022
65.995 12.375938
66.000 11.863544
66.005 11.318094
66.010 11.154615
66.015 11.589684
66.020 11.480422
66.025 11.712114
66.030 11.663363
66.035 11.687757
66.040 12.065039
66.045 12.257932
66.050 12.454255
66.055 12.266213
66.060 12.281001
66.065 12.161931
66.070 11.761201
66.075 10.947913
66.080 10.585526
66.085 10.023376
66.090 10.237591
66.095 10.021854
66.100 9.969108
66.105 10.164404
66.110 10.452869
66.115 10.433477
66.120 11.102823
66.125 10.367289
66.130 10.253778
66.135 9.846961
66.140 9.756553
66.145 9.641974
66.150 9.438809
66.155 8.729375
66.160 9.018037
66.165 9.116275
66.170 9.146865
66.175 8.924526
66.180 9.247284
66.185 9.65848
66.190 10.05975
66.195 10.695197
66.200 10.295971
66.205 10.233985
66.210 10.437203
66.215 10.59636
66.220 10.599914
66.225 10.867555
66.230 10.438325
66.235 11.061534
66.240 11.446255
66.245 11.347159
66.250 11.326291
66.255 11.343749
66.260 11.466846
66.265 11.535551
66.270 10.94947
66.275 10.923973
66.280 10.868114
66.285 10.82844
66.290 10.198733
66.295 9.603735
66.300 9.345181
66.305 9.613979
66.310 9.856659
66.315 9.877501
66.320 9.758407
66.325 9.937174
66.330 10.162011
66.335 10.167608
66.340 10.120893
66.345 9.781901
66.350 9.814885
66.355 10.354457
66.360 10.746959
66.365 10.825475
66.370 11.027394
66.375 10.996822
66.380 10.730947
66.385 10.965358
66.390 10.837195
66.395 10.733862
66.400 10.699501
66.405 10.308325
66.410 10.219695
66.415 10.465587
66.420 10.238252
66.425 9.705416
66.430 9.197744
66.435 8.581752
66.440 8.75106
66.445 8.998612
66.450 8.440594
66.455 8.489518
66.460 8.86145
66.465 9.115954
66.470 9.518159
66.475 9.434188
66.480 8.965058
66.485 9.261628
66.490 9.176974
66.495 9.331056
66.500 9.255339
66.505 8.986593
66.510 9.299235
66.515 9.782485
66.520 9.873202
66.525 9.972415
66.530 9.696275
66.535 10.283715
66.540 10.732121
66.545 10.670384
66.550 10.973919
66.555 11.230262
66.560 11.413422
66.565 11.258415
66.570 11.078845
66.575 10.992011
66.580 11.052215
66.585 10.82386
66.590 10.60342
66.595 10.324963
66.600 10.663401
66.605 10.85339
66.610 11.165
66.615 11.065478
66.620 10.950635
66.625 11.272445
66.630 11.348883
66.635 11.010327
66.640 10.595507
66.645 10.629345
66.650 10.578062
66.655 10.43504
66.660 10.055987
66.665 9.895521
66.670 9.791195
66.675 10.078928
66.680 9.863577
66.685 9.664303
66.690 9.371082
66.695 9.140212
66.700 9.281827
66.705 9.523849
66.710 9.238448
66.715 9.189787
66.720 9.576923
66.725 10.243555
66.730 10.690558
66.735 10.635425
66.740 10.350111
66.745 10.219915
66.750 10.222239
66.755 9.817642
66.760 9.755718
66.765 9.605041
66.770 10.207784
66.775 11.0741
66.780 11.547115
66.785 11.64901
66.790 11.714285
66.795 11.527181
66.800 11.631255
66.805 11.30259
66.810 10.778328
66.815 10.934975
66.820 10.73564
66.825 10.66361
66.830 10.399374
66.835 9.969174
66.840 9.761149
66.845 9.960812
66.850 9.248854
66.855 9.385791
66.860 9.694962
66.865 9.96645
66.870 9.932883
66.875 9.781683
66.880 9.253602
66.885 9.450022
66.890 9.571314
66.895 9.83785
66.900 9.67929
66.905 9.773335
66.910 10.054941
66.915 10.246211
66.920 10.240496
66.925 9.928868
66.930 9.24657
66.935 9.552311
66.940 9.482382
66.945 9.574568
66.950 9.624348
66.955 9.876415
66.960 10.466862
66.965 10.48991
66.970 10.170023
66.975 10.413545
66.980 9.998092
66.985 9.871389
66.990 9.804557
66.995 9.749303
67.000 10.09477
67.005 10.026914
67.010 10.078518
67.015 10.167901
67.020 10.280129
67.025 9.79897
67.030 9.545649
67.035 9.574647
67.040 9.876768
67.045 9.607041
67.050 9.93005
67.055 9.796001
67.060 10.182315
67.065 10.021968
67.070 9.990203
67.075 10.119607
67.080 10.438434
67.085 10.156828
67.090 10.471777
67.095 10.871574
67.100 11.712644
67.105 12.015426
67.110 11.538654
67.115 11.432971
67.120 11.668933
67.125 11.468338
67.130 11.062058
67.135 10.690617
67.140 10.41138
67.145 10.379039
67.150 10.604168
67.155 10.525162
67.160 10.582314
67.165 10.258307
67.170 9.803267
67.175 10.0899
67.180 10.404837
67.185 10.526409
67.190 10.632055
67.195 10.46919
67.200 10.584221
67.205 10.338791
67.210 9.918165
67.215 9.73601
67.220 9.594352
67.225 9.863808
67.230 10.027281
67.235 10.143673
67.240 10.157569
67.245 10.658957
67.250 10.713332
67.255 10.288936
67.260 9.75834
67.265 9.986419
67.270 10.085276
67.275 9.95607
67.280 9.278219
67.285 9.022614
67.290 9.047276
67.295 9.111392
67.300 8.78202
67.305 8.816167
67.310 9.23665
67.315 9.291653
67.320 9.662049
67.325 9.741254
67.330 10.226046
67.335 10.603631
67.340 10.072033
67.345 10.197682
67.350 10.285929
67.355 9.880869
67.360 9.735436
67.365 9.041795
67.370 8.817532
67.375 9.12395
67.380 9.501389
67.385 9.389134
67.390 9.609706
67.395 9.675628
67.400 9.61044
67.405 9.728176
67.410 9.629984
67.415 9.035213
67.420 8.70597
67.425 8.332743
67.430 8.521396
67.435 8.436532
67.440 8.532493
67.445 8.45676
67.450 8.562847
67.455 9.4181
67.460 9.679664
67.465 10.02527
67.470 10.197855
67.475 10.119555
67.480 10.369135
67.485 10.636071
67.490 10.682629
67.495 10.108086
67.500 9.907754
67.505 10.011734
67.510 10.023957
67.515 10.180318
67.520 10.163524
67.525 10.029605
67.530 10.541884
67.535 10.867332
67.540 10.724122
67.545 10.630663
67.550 10.696793
67.555 10.945294
67.560 11.106939
67.565 11.319908
67.570 10.95404
67.575 11.077209
67.580 11.316211
67.585 11.021996
67.590 10.587917
67.595 10.710722
67.600 10.534461
67.605 10.33883
67.610 10.500695
67.615 10.557091
67.620 10.924839
67.625 11.315264
67.630 11.028779
67.635 11.136554
67.640 11.303134
67.645 11.125297
67.650 11.199451
67.655 11.174429
67.660 11.215078
67.665 11.299924
67.670 11.384691
67.675 11.247631
67.680 10.956908
67.685 10.567146
67.690 10.694831
67.695 10.492878
67.700 10.586037
67.705 10.234653
67.710 10.256896
67.715 11.045016
67.720 11.286716
67.725 10.639703
67.730 10.592105
67.735 10.403105
67.740 10.141123
67.745 10.304919
67.750 9.878804
67.755 9.805977
67.760 10.423408
67.765 10.71268
67.770 10.886314
67.775 11.093177
67.780 11.173917
67.785 10.875381
67.790 10.338641
67.795 9.694206
67.800 9.318177
67.805 9.523904
67.810 9.436957
67.815 9.002802
67.820 9.407254
67.825 9.783998
67.830 9.954638
67.835 9.928104
67.840 9.600815
67.845 9.673431
67.850 9.67729
67.855 10.110027
67.860 10.245917
67.865 10.341154
67.870 10.330729
67.875 10.36814
67.880 10.442513
67.885 10.265183
67.890 9.711312
67.895 9.708944
67.900 9.526717
67.905 9.567245
67.910 9.612247
67.915 10.173972
67.920 10.710589
67.925 11.214272
67.930 11.199751
67.935 11.516632
67.940 12.052219
67.945 11.945
67.950 11.721248
67.955 11.623552
67.960 11.556483
67.965 11.648676
67.970 11.594234
67.975 10.901155
67.980 10.755535
67.985 10.789676
67.990 10.372799
67.995 10.290778
68.000 9.989102
68.005 9.784119
68.010 10.266744
68.015 10.755654
68.020 10.88061
68.025 11.054972
68.030 11.165315
68.035 10.845954
68.040 11.006363
68.045 10.817314
68.050 10.15121
68.055 9.632936
68.060 9.496015
68.065 9.379543
68.070 9.732651
68.075 9.581894
68.080 9.628117
68.085 9.882609
68.090 10.524329
68.095 10.376904
68.100 10.284782
68.105 10.769737
68.110 11.059181
68.115 11.098703
68.120 10.982986
68.125 10.79509
68.130 11.524477
68.135 11.790651
68.140 11.36704
68.145 11.265003
68.150 11.475145
68.155 11.854497
68.160 12.055071
68.165 11.766612
68.170 11.612818
68.175 11.584965
68.180 11.342014
68.185 11.544703
68.190 11.219598
68.195 10.698872
68.200 10.354746
68.205 10.666075
68.210 10.750357
68.215 11.197385
68.220 10.696796
68.225 10.730482
68.230 10.82914
68.235 10.761392
68.240 10.541536
68.245 10.640172
68.250 10.763371
68.255 10.699583
68.260 11.015873
68.265 11.268698
68.270 11.210032
68.275 11.492664
68.280 11.106876
68.285 10.697308
68.290 11.088737
68.295 11.063148
68.300 10.729185
68.305 10.66662
68.310 10.249992
68.315 10.479836
68.320 10.638159
68.325 10.698204
68.330 10.886017
68.335 11.499984
68.340 11.695214
68.345 11.792367
68.350 11.663137
68.355 11.56659
68.360 11.321965
68.365 10.802526
68.370 10.235079
68.375 10.076265
68.380 9.864846
68.385 9.681319
68.390 9.857077
68.395 9.763866
68.400 10.279769
68.405 10.676574
68.410 11.017783
68.415 11.343092
68.420 11.38294
68.425 11.425941
68.430 11.375544
68.435 10.932384
68.440 10.638643
68.445 10.792473
68.450 10.679358
68.455 10.628443
68.460 10.791388
68.465 11.03122
68.470 10.939945
68.475 11.028677
68.480 10.525136
68.485 10.5842
68.490 10.579489
68.495 10.310488
68.500 10.599245
68.505 11.072643
68.510 11.175803
68.515 11.56701
68.520 12.197013
68.525 12.434476
68.530 12.548903
68.535 12.353725
68.540 12.611238
68.545 12.722546
68.550 12.80883
68.555 12.265169
68.560 12.301769
68.565 12.874116
68.570 13.45971
68.575 13.48232
68.580 13.681771
68.585 13.461932
68.590 13.891478
68.595 14.240152
68.600 14.468752
68.605 14.134166
68.610 14.053555
68.615 14.269529
68.620 14.678728
68.625 14.6219
68.630 14.486566
68.635 14.112524
68.640 14.069855
68.645 14.011084
68.650 14.032681
68.655 14.236556
68.660 14.548656
68.665 14.551442
68.670 14.743748
68.675 14.998972
68.680 15.086399
68.685 15.337069
68.690 15.415436
68.695 15.254086
68.700 15.120661
68.705 15.018631
68.710 14.859232
68.715 14.671788
68.720 13.987041
68.725 13.553095
68.730 13.65124
68.735 13.770271
68.740 14.169724
68.745 14.178796
68.750 14.142808
68.755 14.594577
68.760 14.829007
68.765 15.023779
68.770 15.298251
68.775 14.884547
68.780 15.291101
68.785 15.356968
68.790 15.408406
68.795 16.020084
68.800 16.121988
68.805 15.842387
68.810 16.265549
68.815 16.23329
68.820 16.145805
68.825 15.947942
68.830 15.495059
68.835 15.905921
68.840 15.565423
68.845 15.048986
68.850 15.620582
68.855 16.365646
68.860 16.875736
68.865 16.897644
68.870 17.091175
68.875 17.837885
68.880 18.336319
68.885 17.665676
68.890 16.739368
68.895 16.862438
68.900 16.902174
68.905 16.153387
68.910 16.402119
68.915 16.445274
68.920 16.581848
68.925 16.759333
68.930 16.181805
68.935 16.073729
68.940 16.205799
68.945 15.430636
68.950 15.076742
68.955 15.536168
68.960 15.801303
68.965 16.163372
68.970 15.822961
68.975 15.757732
68.980 15.941677
68.985 15.742094
68.990 15.221502
68.995 15.12291
69.000 14.712039
69.005 14.84651
69.010 14.765532
69.015 14.808641
69.020 14.625352
69.025 14.214763
69.030 13.860038
69.035 13.98325
69.040 14.223312
69.045 14.93844
69.050 15.189172
69.055 15.928516
69.060 16.793245
69.065 16.718908
69.070 16.209831
69.075 15.770792
69.080 14.804867
69.085 14.709919
69.090 14.402723
69.095 13.984618
69.100 14.296137
69.105 14.129615
69.110 13.607975
69.115 13.189996
69.120 12.47342
69.125 12.258402
69.130 12.123573
69.135 11.688339
69.140 11.922935
69.145 12.413835
69.150 12.502913
69.155 12.634776
69.160 12.542956
69.165 12.307011
69.170 12.907531
69.175 13.20287
69.180 13.434482
69.185 13.438367
69.190 13.373731
69.195 13.226741
69.200 13.380606
69.205 12.867505
69.210 12.019387
69.215 11.659657
69.220 11.60826
69.225 11.88978
69.230 11.646591
69.235 11.327443
69.240 11.076147
69.245 10.905542
69.250 10.973847
69.255 11.298157
69.260 11.020424
69.265 11.249466
69.270 11.477612
69.275 11.533023
69.280 12.272727
69.285 12.120122
69.290 11.793857
69.295 11.705091
69.300 11.927605
69.305 12.512816
69.310 13.109091
69.315 13.21312
69.320 12.959486
69.325 12.579809
69.330 12.290419
69.335 11.96879
69.340 11.093894
69.345 10.434586
69.350 10.219702
69.355 10.411951
69.360 10.891222
69.365 11.419602
69.370 11.902858
69.375 12.002032
69.380 11.753824
69.385 11.180996
69.390 11.058026
69.395 10.592967
69.400 10.373872
69.405 10.140178
69.410 10.098223
69.415 10.424714
69.420 10.794173
69.425 11.020843
69.430 11.114642
69.435 11.019127
69.440 11.176999
69.445 11.109043
69.450 11.133131
69.455 10.897846
69.460 10.440225
69.465 10.365744
69.470 10.005905
69.475 9.950294
69.480 9.461656
69.485 9.079498
69.490 9.361742
69.495 10.16592
69.500 10.904916
69.505 11.223947
69.510 11.309654
69.515 11.917294
69.520 11.812751
69.525 11.808362
69.530 11.241428
69.535 10.946001
69.540 11.322243
69.545 11.885411
69.550 12.346067
69.555 12.630551
69.560 12.443019
69.565 12.540773
69.570 12.718805
69.575 12.672441
69.580 12.293087
69.585 12.127013
69.590 11.685829
69.595 11.713994
69.600 11.556447
69.605 10.619287
69.610 10.047046
69.615 9.605126
69.620 9.685623
69.625 10.298158
69.630 10.015171
69.635 10.069095
69.640 10.647415
69.645 10.686095
69.650 10.851679
69.655 10.481011
69.660 10.022517
69.665 10.135614
69.670 9.959468
69.675 10.211969
69.680 10.263375
69.685 10.296855
69.690 10.713706
69.695 10.757257
69.700 10.900185
69.705 10.60572
69.710 10.22376
69.715 10.45341
69.720 10.541293
69.725 10.456074
69.730 10.389247
69.735 10.276978
69.740 10.232063
69.745 10.288742
69.750 10.342811
69.755 10.297874
69.760 10.194002
69.765 10.365061
69.770 10.463826
69.775 10.314903
69.780 9.996547
69.785 9.941543
69.790 10.02947
69.795 10.133625
69.800 10.211833
69.805 10.888169
69.810 11.220301
69.815 11.144906
69.820 10.900444
69.825 10.889189
69.830 10.717401
69.835 10.65101
69.840 9.791254
69.845 9.779583
69.850 9.708655
69.855 9.520097
69.860 8.990684
69.865 8.679707
69.870 8.702606
69.875 9.117825
69.880 9.457121
69.885 9.722266
69.890 9.903749
69.895 10.351066
69.900 10.443923
69.905 10.590326
69.910 10.293417
69.915 10.190997
69.920 10.268585
69.925 10.418561
69.930 10.884023
69.935 10.796201
69.940 10.837509
69.945 11.189436
69.950 10.904207
69.955 10.736124
69.960 10.523354
69.965 10.391146
69.970 10.399149
69.975 10.034571
69.980 9.769296
69.985 9.90769
69.990 10.330731
69.995 10.327375
70.000 9.884742
70.005 9.979568
70.010 10.39376
70.015 10.372644
70.020 10.273712
70.025 10.108289
70.030 10.637703
70.035 11.363536
70.040 11.486962
70.045 11.386073
70.050 11.67834
70.055 11.401729
70.060 11.150602
70.065 11.334227
70.070 11.341363
70.075 11.332682
70.080 10.798082
70.085 10.423786
70.090 10.604955
70.095 10.660583
70.100 10.268624
70.105 9.773218
70.110 9.52301
70.115 9.928044
70.120 10.430531
70.125 10.373109
70.130 10.380185
70.135 10.762158
70.140 11.401403
70.145 11.39566
70.150 11.927933
70.155 11.889266
70.160 12.346046
70.165 12.490454
70.170 11.961785
70.175 12.014254
70.180 12.002501
70.185 11.525844
70.190 11.405144
70.195 11.476702
70.200 11.306857
70.205 11.145446
70.210 10.771411
70.215 11.200658
70.220 11.293221
70.225 11.072674
70.230 10.750983
70.235 10.371039
70.240 10.535945
70.245 10.71508
70.250 10.711902
70.255 10.39284
70.260 10.252779
70.265 10.466505
70.270 10.864918
70.275 11.058361
70.280 10.77843
70.285 10.872907
70.290 11.312057
70.295 11.457613
70.300 11.50351
70.305 11.645254
70.310 11.382409
70.315 11.245524
70.320 11.117428
70.325 11.092875
70.330 10.83127
70.335 10.880779
70.340 10.5601
70.345 11.140765
70.350 11.5208
70.355 11.664752
70.360 11.940227
70.365 12.137999
70.370 12.045341
70.375 12.218502
70.380 11.832037
70.385 11.476807
70.390 11.412669
70.395 11.1738
70.400 11.080961
70.405 11.062871
70.410 11.140575
70.415 11.032371
70.420 11.255383
70.425 10.950168
70.430 10.786615
70.435 10.770103
70.440 10.842925
70.445 11.482905
70.450 11.906434
70.455 11.688847
70.460 11.750864
70.465 12.049277
70.470 11.875212
70.475 11.794104
70.480 11.201646
70.485 11.075052
70.490 11.445367
70.495 11.610964
70.500 11.718034
70.505 11.645741
70.510 11.597659
70.515 11.874256
70.520 12.125478
70.525 12.353127
70.530 11.988376
70.535 11.817212
70.540 12.103905
70.545 12.203876
70.550 12.225209
70.555 11.451019
70.560 11.113461
70.565 11.036234
70.570 10.982796
70.575 10.801803
70.580 10.659777
70.585 10.533729
70.590 10.742582
70.595 10.749948
70.600 10.979248
70.605 10.975606
70.610 11.272585
70.615 11.498472
70.620 11.734145
70.625 11.951916
70.630 11.791527
70.635 11.698651
70.640 11.330667
70.645 10.87591
70.650 10.894853
70.655 10.822248
70.660 10.995279
70.665 11.146894
70.670 11.036492
70.675 11.623915
70.680 11.730369
70.685 11.20631
70.690 11.278962
70.695 11.391115
70.700 11.491218
70.705 11.602846
70.710 11.341914
70.715 11.484502
70.720 11.586412
70.725 11.066317
70.730 10.552561
70.735 10.109778
70.740 9.929084
70.745 9.433898
70.750 8.861613
70.755 8.330326
70.760 8.395479
70.765 8.460177
70.770 8.588252
70.775 8.613233
70.780 8.944107
70.785 9.168558
70.790 9.186652
70.795 8.997133
70.800 9.474483
70.805 9.891955
70.810 9.884167
70.815 9.92417
70.820 10.18355
70.825 10.427326
70.830 10.439819
70.835 9.913144
70.840 9.672166
70.845 9.851838
70.850 10.649392
70.855 10.486748
70.860 10.510421
70.865 10.763816
70.870 11.047064
70.875 10.994502
70.880 10.630413
70.885 9.924912
70.890 9.609675
70.895 9.093495
70.900 9.239801
70.905 9.10226
70.910 9.111096
70.915 9.029495
70.920 9.347983
70.925 9.66592
70.930 9.942218
70.935 9.579724
70.940 9.890508
70.945 9.579802
70.950 9.967276
70.955 10.035954
70.960 10.083854
70.965 10.120853
70.970 10.296721
70.975 10.528868
70.980 11.049748
70.985 11.027655
70.990 10.927597
70.995 10.790328
71.000 10.868147
71.005 10.691292
71.010 10.389408
71.015 9.827253
71.020 9.881511
71.025 10.651357
71.030 11.230709
71.035 11.128765
71.040 11.082006
71.045 10.678241
71.050 10.834286
71.055 10.337216
71.060 9.74253
71.065 9.709894
71.070 9.988669
71.075 10.001448
71.080 10.474268
71.085 10.65581
71.090 10.724719
71.095 10.810916
71.100 10.113303
71.105 9.956978
71.110 9.990126
71.115 9.996524
71.120 9.927211
71.125 10.224966
71.130 10.27291
71.135 10.474156
71.140 10.42615
71.145 9.88785
71.150 9.677968
71.155 9.659155
71.160 9.73595
71.165 10.000233
71.170 10.262148
71.175 10.56883
71.180 10.592241
71.185 10.380081
71.190 10.130534
71.195 10.106899
71.200 10.065536
71.205 10.140731
71.210 10.252212
71.215 10.83187
71.220 10.972903
71.225 11.017997
71.230 11.050138
71.235 10.506457
71.240 10.26955
71.245 10.567987
71.250 10.496217
71.255 10.649878
71.260 10.563069
71.265 10.639042
71.270 10.876897
71.275 10.800035
71.280 10.602835
71.285 10.502363
71.290 10.68196
71.295 10.364018
71.300 10.062522
71.305 9.89628
71.310 9.90288
71.315 9.761354
71.320 9.727428
71.325 9.395216
71.330 9.76675
71.335 10.313
71.340 10.204535
71.345 9.863843
71.350 10.015586
71.355 10.067327
71.360 10.307995
71.365 10.032453
71.370 9.390081
71.375 9.639295
71.380 10.129995
71.385 10.243418
71.390 10.230497
71.395 10.049667
71.400 10.552526
71.405 10.835588
71.410 10.893232
71.415 10.695675
71.420 10.710457
71.425 10.722555
71.430 10.683394
71.435 10.11275
71.440 9.879227
71.445 9.822424
71.450 9.900433
71.455 10.191778
71.460 9.75989
71.465 9.612092
71.470 10.121785
71.475 10.284704
71.480 10.124671
71.485 9.608326
71.490 9.426593
71.495 9.687596
71.500 9.931925
71.505 9.877939
71.510 9.784006
71.515 10.008416
71.520 10.313989
71.525 10.541961
71.530 10.952152
71.535 10.986516
71.540 11.417549
71.545 11.463752
71.550 11.129514
71.555 11.20576
71.560 10.910825
71.565 10.753718
71.570 10.660678
71.575 10.725248
71.580 11.068015
71.585 11.197263
71.590 11.132396
71.595 10.979936
71.600 10.723958
71.605 10.373487
71.610 10.031819
71.615 9.863973
71.620 9.893787
71.625 9.833476
71.630 10.051059
71.635 10.453351
71.640 10.922215
71.645 10.885962
71.650 11.025682
71.655 11.264833
71.660 11.478621
71.665 11.466562
71.670 11.513845
71.675 11.193133
71.680 11.055327
71.685 10.715542
71.690 10.33077
71.695 10.305331
71.700 10.226501
71.705 10.201206
71.710 10.336496
71.715 10.605834
71.720 10.913104
71.725 11.027138
71.730 10.731477
71.735 10.526327
71.740 10.551272
71.745 10.760012
71.750 10.365851
71.755 10.164227
71.760 10.42724
71.765 10.442778
71.770 10.373247
71.775 10.017515
71.780 9.971614
71.785 10.299371
71.790 9.887934
71.795 9.889966
71.800 10.03591
71.805 10.563539
71.810 10.661364
71.815 10.508248
71.820 10.59669
71.825 10.909664
71.830 10.886831
71.835 10.954855
71.840 10.836226
71.845 10.738026
71.850 11.05976
71.855 10.930356
71.860 10.870131
71.865 10.95728
71.870 10.877902
71.875 11.014173
71.880 11.314319
71.885 10.952387
71.890 10.691231
71.895 10.431786
71.900 10.005375
71.905 9.702283
71.910 9.372698
71.915 9.210401
71.920 9.710318
71.925 10.461045
71.930 10.873211
71.935 10.941268
71.940 10.68226
71.945 10.568047
71.950 10.411174
71.955 10.29349
71.960 9.711931
71.965 9.480803
71.970 9.666492
71.975 10.16046
71.980 10.324693
71.985 10.097918
71.990 9.672596
71.995 9.99445
72.000 10.033298
72.005 9.998403
72.010 9.680359
72.015 9.280293
72.020 9.122909
72.025 9.049254
72.030 9.016129
72.035 8.722832
72.040 8.758071
72.045 8.852676
72.050 9.373862
72.055 9.662257
72.060 9.859217
72.065 9.669922
72.070 10.240362
72.075 10.210045
72.080 10.237562
72.085 10.284347
72.090 10.717867
72.095 10.604867
72.100 10.672141
72.105 10.252089
72.110 10.208363
72.115 10.213807
72.120 9.884814
72.125 9.836032
72.130 10.107292
72.135 10.61139
72.140 10.529043
72.145 10.363807
72.150 9.984915
72.155 9.911292
72.160 10.155042
72.165 10.074189
72.170 9.908921
72.175 10.22889
72.180 10.796093
72.185 11.591674
72.190 11.830175
72.195 11.62411
72.200 11.53699
72.205 11.506362
72.210 11.360792
72.215 10.981218
72.220 10.31321
72.225 10.220762
72.230 10.368814
72.235 10.171261
72.240 9.563211
72.245 9.491389
72.250 9.302266
72.255 9.477294
72.260 9.302416
72.265 8.98241
72.270 9.254592
72.275 9.995133
72.280 10.228595
72.285 10.491302
72.290 10.21802
72.295 10.404696
72.300 10.398615
72.305 10.342976
72.310 10.190639
72.315 10.32109
72.320 10.542047
72.325 11.022966
72.330 11.094317
72.335 11.23035
72.340 11.250896
72.345 11.360031
72.350 11.483335
72.355 11.351487
72.360 10.915906
72.365 10.895149
72.370 11.2134
72.375 11.225935
72.380 11.659318
72.385 11.507257
72.390 11.733974
72.395 11.882114
72.400 11.580906
72.405 11.483996
72.410 11.518581
72.415 10.947433
72.420 10.902919
72.425 10.366331
72.430 10.62428
72.435 10.894007
72.440 10.606
72.445 10.663321
72.450 10.587012
72.455 10.481148
72.460 10.481389
72.465 10.031996
72.470 10.496133
72.475 10.526107
72.480 10.360302
72.485 10.570684
72.490 10.564069
72.495 10.882463
72.500 10.966245
72.505 10.289375
72.510 10.343116
72.515 10.364563
72.520 9.951466
72.525 9.612712
72.530 9.035721
72.535 8.733933
72.540 8.80589
72.545 8.775323
72.550 9.230328
72.555 10.049147
72.560 10.582235
72.565 10.764155
72.570 10.88441
72.575 11.174248
72.580 10.782253
72.585 10.369348
72.590 10.108123
72.595 9.874152
72.600 9.957809
72.605 9.861235
72.610 9.738296
72.615 9.663278
72.620 9.179981
72.625 9.566078
72.630 9.344636
72.635 9.340651
72.640 9.108038
72.645 9.675794
72.650 9.974154
72.655 10.224309
72.660 10.308889
72.665 10.84573
72.670 10.826035
72.675 10.761314
72.680 10.211337
72.685 10.169153
72.690 10.128033
72.695 10.033763
72.700 10.32068
72.705 10.664865
72.710 10.462972
72.715 10.36265
72.720 10.027338
72.725 9.84903
72.730 9.658912
72.735 9.056368
72.740 8.749582
72.745 8.992338
72.750 9.03518
72.755 9.448347
72.760 9.075694
72.765 8.723492
72.770 9.098506
72.775 9.342019
72.780 9.838956
72.785 10.148358
72.790 10.077467
72.795 10.392666
72.800 10.223223
72.805 9.670234
72.810 9.160089
72.815 8.995375
72.820 8.908595
72.825 9.086209
72.830 9.032933
72.835 9.527235
72.840 9.977457
72.845 10.03346
72.850 9.890593
72.855 9.505207
72.860 8.977461
72.865 8.981783
72.870 8.616526
72.875 8.287553
72.880 8.183311
72.885 8.01442
72.890 7.950801
72.895 7.784542
72.900 7.844777
72.905 8.131502
72.910 8.215937
72.915 8.736058
72.920 8.874495
72.925 9.291674
72.930 9.727932
72.935 9.755599
72.940 9.543032
72.945 9.591312
72.950 9.301532
72.955 9.503292
72.960 9.119732
72.965 8.64367
72.970 8.690698
72.975 8.876276
72.980 8.725428
72.985 8.686631
72.990 8.529634
72.995 8.886283
73.000 9.556633
