!@!!GADDS PLOTSO FILE: Chi integration type
!@!!Title/SampleName: map-ea
!@!!Comment: ?
!@!!User: Bruker Instrument Administrator
!@!!Site: University of Illinois Chicago
!@!!Frame: map-ea_01_000.gfrm
!@!!Wavelengths    1.54184   1.54056   1.54439
!@!!Frame angles: 2Theta: 63.000 Omega: 50.000 Phi: 0.000 Chi: 90.000
!@!!Integration range: 2Theta: 53.000 to 73.000  Gamma: -105.000 to -75.000
!@!!Integration method: bin normalized
!@!N
!@!SS
!@!M
!@!L 0.0 0.0 0.0 0.0
!@!XDegrees
!@!YCounts
53.000 5.731936
53.005 5.236515
53.010 4.995905
53.015 4.78702
53.020 4.68977
53.025 5.05138
53.030 5.376664
53.035 5.893524
53.040 6.17729
53.045 6.119755
53.050 6.116652
53.055 6.15189
53.060 5.866601
53.065 5.683642
53.070 5.52325
53.075 5.538914
53.080 5.522498
53.085 5.842838
53.090 6.180466
53.095 6.321644
53.100 6.034007
53.105 5.738091
53.110 5.89679
53.115 5.65295
53.120 5.454085
53.125 5.699143
53.130 5.668448
53.135 5.77136
53.140 5.779889
53.145 5.683679
53.150 5.809418
53.155 5.183362
53.160 4.830105
53.165 5.215765
53.170 5.292971
53.175 5.272443
53.180 5.274646
53.185 5.143624
53.190 5.287915
53.195 5.291218
53.200 4.975837
53.205 4.867975
53.210 4.910486
53.215 5.179811
53.220 5.626784
53.225 5.844176
53.230 5.721014
53.235 5.915419
53.240 6.15498
53.245 6.30958
53.250 6.08853
53.255 6.268474
53.260 6.4111
53.265 6.06399
53.270 5.512493
53.275 5.212085
53.280 5.201203
53.285 5.048479
53.290 4.781962
53.295 4.830412
53.300 5.110878
53.305 5.203723
53.310 5.181038
53.315 4.998485
53.320 5.191931
53.325 5.165515
53.330 5.256042
53.335 5.673211
53.340 6.218833
53.345 6.219265
53.350 6.176687
53.355 6.346438
53.360 6.323442
53.365 6.130406
53.370 5.681826
53.375 5.556978
53.380 6.107753
53.385 6.278522
53.390 6.2414
53.395 6.224274
53.400 6.336377
53.405 6.309229
53.410 6.057614
53.415 5.877924
53.420 5.840989
53.425 6.066599
53.430 6.016694
53.435 5.872677
53.440 5.990794
53.445 5.959969
53.450 5.883255
53.455 5.412403
53.460 5.255573
53.465 5.367755
53.470 5.285287
53.475 5.018602
53.480 4.80581
53.485 4.799506
53.490 5.083188
53.495 4.933091
53.500 5.242144
53.505 5.65731
53.510 5.967832
53.515 5.853808
53.520 6.264086
53.525 6.285482
53.530 6.384964
53.535 6.506733
53.540 6.446726
53.545 6.690564
53.550 7.142915
53.555 6.658362
53.560 6.579946
53.565 6.710593
53.570 6.558789
53.575 6.33369
53.580 6.091362
53.585 5.759383
53.590 5.897619
53.595 5.947533
53.600 5.959544
53.605 5.933781
53.610 5.810017
53.615 5.761971
53.620 5.632508
53.625 5.510027
53.630 5.213622
53.635 4.818595
53.640 4.835073
53.645 5.203489
53.650 5.518014
53.655 5.701498
53.660 5.427099
53.665 5.611964
53.670 5.691429
53.675 5.662316
53.680 5.481719
53.685 5.529692
53.690 5.719033
53.695 6.252781
53.700 6.087177
53.705 6.161196
53.710 6.441751
53.715 6.545635
53.720 6.548288
53.725 6.407708
53.730 6.181859
53.735 6.230085
53.740 5.875066
53.745 5.433192
53.750 4.940353
53.755 4.632529
53.760 4.66335
53.765 4.656318
53.770 5.186976
53.775 5.357845
53.780 5.372832
53.785 5.62763
53.790 5.737822
53.795 5.348399
53.800 5.186092
53.805 5.246743
53.810 5.524411
53.815 5.703558
53.820 5.461614
53.825 5.678987
53.830 5.989431
53.835 5.796873
53.840 5.11953
53.845 4.977907
53.850 5.429542
53.855 5.627164
53.860 5.773733
53.865 5.660629
53.870 5.940184
53.875 6.249004
53.880 6.295133
53.885 6.388488
53.890 6.610278
53.895 6.322799
53.900 6.225823
53.905 6.090866
53.910 5.900712
53.915 5.688869
53.920 5.324358
53.925 5.147083
53.930 5.307508
53.935 5.30762
53.940 5.503203
53.945 5.589069
53.950 5.453744
53.955 5.423733
53.960 6.058202
53.965 6.722462
53.970 6.971419
53.975 6.929983
53.980 6.875646
53.985 7.059193
53.990 6.918612
53.995 6.080225
54.000 5.479871
54.005 5.197071
54.010 5.371499
54.015 5.682163
54.020 5.914137
54.025 6.098058
54.030 5.942993
54.035 5.807491
54.040 5.921268
54.045 5.725661
54.050 5.44172
54.055 5.131175
54.060 5.322751
54.065 5.73417
54.070 5.995521
54.075 6.091879
54.080 6.235158
54.085 6.224993
54.090 6.190128
54.095 5.967177
54.100 5.849567
54.105 5.87556
54.110 5.708549
54.115 5.641773
54.120 5.744084
54.125 5.906628
54.130 6.117469
54.135 6.282243
54.140 6.310921
54.145 6.252292
54.150 6.005021
54.155 5.801426
54.160 6.016548
54.165 6.33566
54.170 6.480724
54.175 6.232653
54.180 6.2946
54.185 6.783579
54.190 7.004563
54.195 6.620535
54.200 6.339478
54.205 6.170687
54.210 6.31586
54.215 6.324047
54.220 6.356519
54.225 6.647574
54.230 6.688392
54.235 6.673191
54.240 6.972847
54.245 6.93344
54.250 7.05135
54.255 6.688958
54.260 6.210284
54.265 6.326624
54.270 6.51245
54.275 6.341187
54.280 6.268188
54.285 6.0906
54.290 6.141497
54.295 6.485684
54.300 6.611866
54.305 6.726563
54.310 6.661454
54.315 6.535571
54.320 6.326958
54.325 6.361599
54.330 6.293145
54.335 6.140003
54.340 5.928365
54.345 5.92835
54.350 6.181501
54.355 6.608497
54.360 6.970398
54.365 6.717495
54.370 6.221574
54.375 6.731913
54.380 7.044855
54.385 6.944088
54.390 7.017842
54.395 6.667897
54.400 6.619554
54.405 6.691008
54.410 5.862083
54.415 5.465806
54.420 5.602074
54.425 5.332792
54.430 5.266332
54.435 5.408318
54.440 5.447726
54.445 5.957138
54.450 6.485722
54.455 6.407245
54.460 6.368431
54.465 6.243518
54.470 6.322168
54.475 6.412779
54.480 6.298763
54.485 6.071542
54.490 6.329402
54.495 6.557008
54.500 6.687159
54.505 6.448509
54.510 6.311509
54.515 6.779364
54.520 6.677835
54.525 6.462899
54.530 6.458503
54.535 6.431746
54.540 6.500294
54.545 6.29441
54.550 5.849764
54.555 6.033726
54.560 5.968336
54.565 6.037687
54.570 6.283731
54.575 6.652568
54.580 6.4705
54.585 6.265944
54.590 5.984619
54.595 5.846109
54.600 5.842632
54.605 5.619158
54.610 5.620105
54.615 6.005023
54.620 5.966797
54.625 6.318312
54.630 6.459452
54.635 6.437462
54.640 6.516767
54.645 6.342014
54.650 6.237785
54.655 6.353529
54.660 6.071717
54.665 6.234936
54.670 6.248879
54.675 6.045676
54.680 5.864486
54.685 5.857928
54.690 5.816706
54.695 5.64223
54.700 5.331128
54.705 5.440636
54.710 5.568303
54.715 5.847078
54.720 5.934424
54.725 6.072486
54.730 6.315958
54.735 6.408609
54.740 6.618334
54.745 6.611137
54.750 6.588501
54.755 6.544189
54.760 6.495399
54.765 6.598166
54.770 6.69566
54.775 6.884367
54.780 6.946772
54.785 6.710472
54.790 6.515152
54.795 6.642141
54.800 6.554752
54.805 6.593445
54.810 6.378231
54.815 6.377495
54.820 6.427448
54.825 6.853426
54.830 6.718895
54.835 6.750824
54.840 6.63286
54.845 6.732523
54.850 6.791869
54.855 6.829509
54.860 6.709895
54.865 6.845584
54.870 6.88658
54.875 6.727156
54.880 6.690495
54.885 6.531927
54.890 6.727967
54.895 7.117173
54.900 7.523136
54.905 7.532042
54.910 7.397547
54.915 7.544944
54.920 7.863806
54.925 7.603668
54.930 7.322793
54.935 6.825611
54.940 6.872876
54.945 7.019927
54.950 7.201045
54.955 6.780488
54.960 6.563853
54.965 6.46517
54.970 6.573227
54.975 6.491674
54.980 6.111377
54.985 6.02493
54.990 6.216836
54.995 6.315147
55.000 6.105066
55.005 6.01283
55.010 6.187563
55.015 6.291019
55.020 6.246343
55.025 6.177227
55.030 6.422335
55.035 6.539852
55.040 6.414082
55.045 6.49301
55.050 6.414682
55.055 6.955377
55.060 6.717676
55.065 6.513068
55.070 6.48341
55.075 6.733405
55.080 6.855311
55.085 6.845444
55.090 6.328725
55.095 6.650583
55.100 6.678362
55.105 6.645444
55.110 6.610766
55.115 6.76433
55.120 6.639256
55.125 6.469095
55.130 6.421315
55.135 6.564742
55.140 6.464024
55.145 6.710505
55.150 6.390297
55.155 6.655871
55.160 7.037387
55.165 7.192307
55.170 7.014454
55.175 7.157219
55.180 6.828853
55.185 6.792813
55.190 6.710784
55.195 6.527141
55.200 6.427927
55.205 6.518064
55.210 6.181356
55.215 6.037014
55.220 6.326226
55.225 6.519879
55.230 6.281199
55.235 6.243208
55.240 6.24865
55.245 6.800108
55.250 6.800002
55.255 6.412275
55.260 6.048513
55.265 6.015195
55.270 5.966752
55.275 6.04543
55.280 5.556099
55.285 5.873
55.290 6.580812
55.295 6.735476
55.300 6.816182
55.305 6.877054
55.310 6.616683
55.315 6.713364
55.320 6.407406
55.325 6.329157
55.330 6.382458
55.335 6.128811
55.340 6.220448
55.345 6.363924
55.350 6.574072
55.355 6.410881
55.360 6.53168
55.365 6.633207
55.370 6.871326
55.375 6.518194
55.380 6.470939
55.385 6.318478
55.390 6.519044
55.395 6.436435
55.400 6.341566
55.405 6.360628
55.410 6.766131
55.415 6.98229
55.420 6.943341
55.425 6.437941
55.430 6.615326
55.435 6.895631
55.440 6.927623
55.445 7.053115
55.450 7.110949
55.455 7.416198
55.460 7.542599
55.465 7.4063
55.470 7.226747
55.475 7.129091
55.480 7.179224
55.485 7.301483
55.490 7.595616
55.495 7.630647
55.500 7.330187
55.505 7.171299
55.510 6.731452
55.515 6.050235
55.520 5.556279
55.525 5.594771
55.530 5.724693
55.535 5.65911
55.540 5.732638
55.545 5.938266
55.550 6.162162
55.555 6.155471
55.560 5.637975
55.565 5.569038
55.570 5.83623
55.575 6.165236
55.580 6.570921
55.585 6.742088
55.590 6.97741
55.595 7.229006
55.600 7.313607
55.605 7.226876
55.610 7.213862
55.615 6.883459
55.620 6.601345
55.625 6.551363
55.630 6.520535
55.635 6.431126
55.640 6.370221
55.645 6.243618
55.650 6.819518
55.655 7.333063
55.660 7.087182
55.665 7.457416
55.670 7.394642
55.675 7.287672
55.680 7.1727
55.685 6.840981
55.690 7.023404
55.695 7.125141
55.700 6.870144
55.705 7.127996
55.710 7.306212
55.715 7.376713
55.720 7.079976
55.725 6.680553
55.730 6.701439
55.735 6.73752
55.740 6.71587
55.745 6.915022
55.750 6.981396
55.755 7.202441
55.760 7.01029
55.765 7.067723
55.770 6.683161
55.775 6.859733
55.780 6.762136
55.785 6.418691
55.790 6.55911
55.795 7.047896
55.800 7.452396
55.805 7.601762
55.810 7.300377
55.815 7.15811
55.820 7.490784
55.825 7.417572
55.830 6.811837
55.835 6.486024
55.840 6.796565
55.845 7.478117
55.850 7.885109
55.855 7.978219
55.860 8.232081
55.865 8.436022
55.870 8.411281
55.875 8.014546
55.880 7.351303
55.885 6.923488
55.890 6.573837
55.895 6.3134
55.900 6.040809
55.905 5.858535
55.910 6.212416
55.915 6.395056
55.920 6.655696
55.925 6.829595
55.930 7.039292
55.935 7.370626
55.940 7.664455
55.945 7.759729
55.950 7.517134
55.955 7.81432
55.960 7.857641
55.965 7.76222
55.970 7.779236
55.975 7.769876
55.980 7.676552
55.985 7.518682
55.990 7.098084
55.995 7.029844
56.000 7.062871
56.005 6.994145
56.010 6.723448
56.015 6.637823
56.020 6.298952
56.025 6.307209
56.030 6.12266
56.035 5.972553
56.040 6.008132
56.045 6.1811
56.050 6.290124
56.055 6.738496
56.060 6.76183
56.065 6.691477
56.070 6.770428
56.075 6.91151
56.080 6.977785
56.085 7.076344
56.090 7.192553
56.095 7.5521
56.100 7.547417
56.105 7.323588
56.110 7.235555
56.115 7.230441
56.120 7.258742
56.125 7.211544
56.130 6.919446
56.135 7.033982
56.140 7.306589
56.145 6.924337
56.150 7.137276
56.155 7.028177
56.160 6.714459
56.165 6.824008
56.170 7.108531
56.175 7.086098
56.180 7.116115
56.185 6.833177
56.190 7.214013
56.195 7.490796
56.200 7.643104
56.205 7.291667
56.210 7.147794
56.215 7.283194
56.220 7.564947
56.225 7.555293
56.230 7.966545
56.235 8.013196
56.240 8.675083
56.245 8.862531
56.250 8.653987
56.255 8.504806
56.260 8.169477
56.265 8.165662
56.270 8.075014
56.275 7.709648
56.280 7.844019
56.285 7.937645
56.290 7.811367
56.295 7.908065
56.300 7.906188
56.305 7.750624
56.310 7.769143
56.315 7.676855
56.320 7.822203
56.325 7.865417
56.330 7.651055
56.335 7.692707
56.340 7.526519
56.345 7.226173
56.350 7.066131
56.355 7.360004
56.360 7.326387
56.365 7.118291
56.370 6.881803
56.375 7.020382
56.380 7.276448
56.385 6.979784
56.390 6.790386
56.395 7.335117
56.400 7.495596
56.405 7.544624
56.410 7.457732
56.415 7.36852
56.420 7.153923
56.425 7.001686
56.430 6.627846
56.435 6.507542
56.440 6.484605
56.445 6.515526
56.450 6.898817
56.455 7.307224
56.460 6.807394
56.465 6.77939
56.470 6.607298
56.475 6.574259
56.480 6.608192
56.485 6.213254
56.490 6.429883
56.495 7.036595
56.500 7.329772
56.505 7.802267
56.510 7.634828
56.515 7.492129
56.520 7.725547
56.525 7.374242
56.530 7.208991
56.535 7.199492
56.540 7.002546
56.545 7.707952
56.550 7.970129
56.555 7.906801
56.560 7.928989
56.565 8.149333
56.570 8.11944
56.575 7.971673
56.580 7.40059
56.585 7.007704
56.590 7.390518
56.595 7.382561
56.600 6.890939
56.605 6.867166
56.610 6.902954
56.615 6.945426
56.620 7.281101
56.625 7.016621
56.630 6.646534
56.635 6.808993
56.640 6.893012
56.645 7.156873
56.650 7.373279
56.655 7.41298
56.660 7.978715
56.665 8.636915
56.670 8.599137
56.675 8.484241
56.680 8.533798
56.685 8.55827
56.690 8.284306
56.695 8.121625
56.700 8.195874
56.705 8.136478
56.710 8.531003
56.715 8.742773
56.720 8.770629
56.725 8.582254
56.730 8.075595
56.735 7.796959
56.740 7.753866
56.745 7.285242
56.750 6.832745
56.755 6.731262
56.760 6.60496
56.765 6.241099
56.770 6.005773
56.775 6.301475
56.780 6.513359
56.785 6.737076
56.790 6.865535
56.795 6.865287
56.800 7.115732
56.805 7.365226
56.810 7.33041
56.815 7.201193
56.820 7.004575
56.825 7.09313
56.830 7.205452
56.835 7.936671
56.840 8.213677
56.845 8.36243
56.850 8.241817
56.855 8.343542
56.860 8.39959
56.865 8.730068
56.870 8.129658
56.875 7.416164
56.880 7.453021
56.885 7.783645
56.890 7.717983
56.895 7.549368
56.900 7.37329
56.905 7.577938
56.910 7.711923
56.915 7.312229
56.920 7.10158
56.925 7.297472
56.930 7.376373
56.935 7.337371
56.940 7.574019
56.945 7.574793
56.950 7.684718
56.955 7.615181
56.960 7.193567
56.965 7.164036
56.970 7.066613
56.975 6.837427
56.980 6.876817
56.985 7.015207
56.990 7.087954
56.995 7.265595
57.000 7.325816
57.005 7.114396
57.010 6.837364
57.015 6.718496
57.020 6.52471
57.025 6.583013
57.030 6.763859
57.035 7.21806
57.040 7.68243
57.045 8.130012
57.050 8.478004
57.055 8.793633
57.060 8.846346
57.065 8.760828
57.070 8.083144
57.075 7.62407
57.080 7.567214
57.085 7.549806
57.090 7.382811
57.095 6.900682
57.100 6.808912
57.105 6.865361
57.110 7.059045
57.115 6.9625
57.120 6.755755
57.125 6.741289
57.130 6.734128
57.135 6.857351
57.140 7.271928
57.145 7.532834
57.150 7.680048
57.155 7.525184
57.160 7.513974
57.165 7.911491
57.170 7.878831
57.175 7.720651
57.180 7.214302
57.185 6.840625
57.190 7.129691
57.195 7.332492
57.200 6.8655
57.205 6.931748
57.210 6.458579
57.215 6.657995
57.220 6.976782
57.225 6.788015
57.230 6.82192
57.235 7.020534
57.240 7.103246
57.245 7.511178
57.250 7.64487
57.255 7.760096
57.260 7.837512
57.265 7.493171
57.270 7.308046
57.275 7.281234
57.280 7.721623
57.285 7.561793
57.290 7.515391
57.295 7.745168
57.300 8.132954
57.305 8.344061
57.310 8.381738
57.315 8.171213
57.320 8.446355
57.325 8.498109
57.330 8.450247
57.335 8.556399
57.340 8.520582
57.345 8.548419
57.350 8.325521
57.355 8.362172
57.360 8.619541
57.365 8.470998
57.370 8.352451
57.375 8.518517
57.380 8.511543
57.385 8.268612
57.390 7.8044
57.395 7.684362
57.400 7.640065
57.405 7.289936
57.410 6.842817
57.415 6.904869
57.420 7.524537
57.425 7.723724
57.430 7.419627
57.435 7.496862
57.440 8.01474
57.445 7.983154
57.450 8.067049
57.455 8.129633
57.460 7.933898
57.465 8.007495
57.470 7.874928
57.475 7.780823
57.480 7.908383
57.485 7.774081
57.490 7.572372
57.495 7.678125
57.500 7.45155
57.505 7.455757
57.510 7.492131
57.515 7.557824
57.520 7.393483
57.525 6.979986
57.530 7.073717
57.535 7.465703
57.540 7.641366
57.545 7.604263
57.550 7.628898
57.555 7.530942
57.560 7.561337
57.565 7.770762
57.570 7.508919
57.575 7.100269
57.580 7.13415
57.585 7.007224
57.590 6.933886
57.595 7.042846
57.600 6.731354
57.605 6.85943
57.610 7.302048
57.615 7.693381
57.620 8.07886
57.625 8.782963
57.630 9.360209
57.635 9.257497
57.640 9.203807
57.645 9.168445
57.650 9.102398
57.655 9.0128
57.660 8.897641
57.665 8.939386
57.670 9.087787
57.675 9.114345
57.680 9.144953
57.685 8.771421
57.690 8.523085
57.695 8.113579
57.700 7.850425
57.705 8.16084
57.710 8.178482
57.715 8.003503
57.720 8.018884
57.725 8.132957
57.730 7.921284
57.735 8.067456
57.740 7.980267
57.745 7.725427
57.750 7.91863
57.755 8.153641
57.760 8.32945
57.765 8.537484
57.770 8.176006
57.775 8.092512
57.780 8.254438
57.785 8.247804
57.790 8.264675
57.795 8.131984
57.800 8.398059
57.805 8.59044
57.810 8.602477
57.815 8.330462
57.820 7.673458
57.825 7.743663
57.830 7.764029
57.835 7.689032
57.840 7.644974
57.845 7.743805
57.850 8.267984
57.855 8.774463
57.860 8.628026
57.865 8.688616
57.870 8.329996
57.875 8.500374
57.880 8.987842
57.885 8.794049
57.890 8.6541
57.895 8.720259
57.900 9.08579
57.905 9.269342
57.910 8.897061
57.915 8.267882
57.920 8.305155
57.925 8.16303
57.930 7.754668
57.935 7.386385
57.940 7.330879
57.945 7.492832
57.950 7.971535
57.955 8.306631
57.960 8.349572
57.965 8.4682
57.970 8.615028
57.975 8.734216
57.980 8.893014
57.985 8.557456
57.990 8.575521
57.995 8.869065
58.000 9.301353
58.005 9.610085
58.010 9.45819
58.015 9.201619
58.020 8.941923
58.025 8.751357
58.030 8.877386
58.035 8.969174
58.040 8.818551
58.045 9.266339
58.050 9.511326
58.055 9.959996
58.060 9.53875
58.065 9.367939
58.070 9.20359
58.075 9.018618
58.080 9.015762
58.085 9.217352
58.090 9.068557
58.095 9.247219
58.100 9.297348
58.105 9.356586
58.110 9.316315
58.115 8.940314
58.120 8.781822
58.125 8.951811
58.130 9.072243
58.135 8.468991
58.140 8.169309
58.145 8.263086
58.150 8.392075
58.155 8.485607
58.160 8.084702
58.165 8.343803
58.170 9.140635
58.175 9.820251
58.180 9.998081
58.185 10.070961
58.190 9.771604
58.195 10.062667
58.200 9.60501
58.205 9.414165
58.210 8.765217
58.215 8.510228
58.220 8.401327
58.225 8.645657
58.230 8.741359
58.235 8.931417
58.240 8.678486
58.245 8.740546
58.250 8.703097
58.255 8.978915
58.260 8.900043
58.265 8.464731
58.270 8.370393
58.275 8.36784
58.280 8.557781
58.285 8.700886
58.290 8.385406
58.295 8.660334
58.300 9.116195
58.305 9.736832
58.310 9.85037
58.315 10.181223
58.320 10.384994
58.325 10.618116
58.330 10.921922
58.335 10.951077
58.340 10.965809
58.345 11.339562
58.350 11.107524
58.355 11.264901
58.360 11.279258
58.365 11.322731
58.370 11.828308
58.375 11.752578
58.380 11.672373
58.385 11.96611
58.390 11.940411
58.395 12.039152
58.400 11.763717
58.405 11.410359
58.410 11.289291
58.415 11.354328
58.420 11.175675
58.425 11.122733
58.430 11.523153
58.435 11.481554
58.440 11.141277
58.445 11.290577
58.450 11.23832
58.455 11.415977
58.460 11.339965
58.465 11.130854
58.470 11.007053
58.475 10.936197
58.480 10.916375
58.485 10.842805
58.490 10.995367
58.495 11.124945
58.500 11.748395
58.505 12.567955
58.510 13.20627
58.515 13.52279
58.520 14.020666
58.525 14.183146
58.530 14.716578
58.535 14.714746
58.540 14.609573
58.545 14.643022
58.550 14.854515
58.555 14.805753
58.560 14.872212
58.565 14.778203
58.570 14.485268
58.575 14.941091
58.580 15.439143
58.585 15.636281
58.590 16.226425
58.595 16.907663
58.600 16.861542
58.605 16.936499
58.610 16.514114
58.615 15.923269
58.620 15.82622
58.625 16.303724
58.630 16.568415
58.635 16.800753
58.640 17.314447
58.645 17.490122
58.650 17.552359
58.655 17.686949
58.660 16.650745
58.665 16.207575
58.670 15.785152
58.675 15.28561
58.680 15.389706
58.685 15.682343
58.690 15.701566
58.695 16.370003
58.700 16.150909
58.705 16.218826
58.710 16.612896
58.715 15.991423
58.720 15.897016
58.725 16.027811
58.730 15.897064
58.735 16.175564
58.740 16.384714
58.745 16.44483
58.750 17.052158
58.755 16.634361
58.760 16.466455
58.765 16.259447
58.770 15.916504
58.775 16.303156
58.780 15.961259
58.785 15.707341
58.790 15.766098
58.795 15.701476
58.800 15.072812
58.805 14.646803
58.810 14.235491
58.815 14.797426
58.820 14.731344
58.825 14.493261
58.830 13.999606
58.835 14.177749
58.840 14.06014
58.845 13.923116
58.850 13.312684
58.855 13.320813
58.860 13.234925
58.865 13.347692
58.870 13.225081
58.875 13.07135
58.880 12.58829
58.885 11.854182
58.890 11.577589
58.895 11.756143
58.900 11.245608
58.905 11.220332
58.910 12.018383
58.915 12.071337
58.920 12.458136
58.925 12.644293
58.930 12.209427
58.935 12.606478
58.940 12.587182
58.945 11.867533
58.950 11.629026
58.955 11.495667
58.960 10.927272
58.965 10.850554
58.970 10.634251
58.975 10.854548
58.980 11.216057
58.985 11.04274
58.990 11.075221
58.995 11.475172
59.000 11.135921
59.005 10.875479
59.010 10.797715
59.015 10.262658
59.020 10.137168
59.025 9.887434
59.030 9.38075
59.035 9.636391
59.040 9.660212
59.045 8.993665
59.050 8.907902
59.055 8.88552
59.060 9.109986
59.065 9.422574
59.070 9.624967
59.075 9.162693
59.080 9.262238
59.085 9.09668
59.090 9.267982
59.095 9.413587
59.100 9.292412
59.105 9.024868
59.110 9.030496
59.115 8.926229
59.120 9.008017
59.125 8.634245
59.130 8.204926
59.135 8.18085
59.140 8.367385
59.145 8.879371
59.150 9.077147
59.155 8.925897
59.160 8.823705
59.165 8.914265
59.170 8.944564
59.175 8.58619
59.180 8.644137
59.185 8.668624
59.190 9.212652
59.195 9.119975
59.200 9.07296
59.205 9.246037
59.210 9.286024
59.215 8.685624
59.220 8.760438
59.225 8.340946
59.230 8.413596
59.235 8.291189
59.240 8.469243
59.245 8.59677
59.250 8.523417
59.255 8.330807
59.260 8.602844
59.265 8.403666
59.270 8.190701
59.275 7.754342
59.280 7.927626
59.285 8.04841
59.290 8.142111
59.295 8.595307
59.300 9.004098
59.305 9.265602
59.310 9.426527
59.315 9.377621
59.320 9.534657
59.325 9.537222
59.330 9.140937
59.335 9.087934
59.340 8.964977
59.345 8.601391
59.350 8.411569
59.355 8.329067
59.360 8.577483
59.365 8.584165
59.370 8.349933
59.375 8.55572
59.380 8.85852
59.385 8.783845
59.390 8.756765
59.395 8.327703
59.400 8.621556
59.405 8.749605
59.410 8.440801
59.415 8.058761
59.420 8.181535
59.425 8.337896
59.430 8.70361
59.435 8.557784
59.440 8.541916
59.445 8.885454
59.450 9.660686
59.455 9.885104
59.460 9.377761
59.465 9.353178
59.470 9.622828
59.475 9.983749
59.480 10.159064
59.485 9.741679
59.490 9.751079
59.495 9.770396
59.500 9.408528
59.505 9.04064
59.510 8.866446
59.515 8.30171
59.520 8.293972
59.525 8.455035
59.530 8.942421
59.535 9.053745
59.540 9.558929
59.545 9.833504
59.550 10.289224
59.555 10.251399
59.560 9.959045
59.565 9.762024
59.570 9.770102
59.575 9.417688
59.580 9.331983
59.585 9.426007
59.590 9.489283
59.595 9.840951
59.600 10.248489
59.605 10.793688
59.610 10.822491
59.615 10.951146
59.620 10.978747
59.625 11.085397
59.630 10.870407
59.635 10.360732
59.640 9.904146
59.645 9.675036
59.650 9.427411
59.655 8.988647
59.660 8.755951
59.665 8.303091
59.670 8.070599
59.675 8.262915
59.680 8.4737
59.685 8.65777
59.690 8.922771
59.695 9.104414
59.700 9.60157
59.705 9.896141
59.710 9.351853
59.715 9.014261
59.720 9.070266
59.725 8.599044
59.730 8.336585
59.735 8.099072
59.740 7.83555
59.745 8.138432
59.750 8.273342
59.755 8.481597
59.760 8.975517
59.765 8.861814
59.770 8.626246
59.775 8.666442
59.780 8.487721
59.785 8.377728
59.790 7.893034
59.795 7.940561
59.800 8.936664
59.805 9.459291
59.810 9.716312
59.815 9.764192
59.820 9.756833
59.825 9.890393
59.830 9.36488
59.835 9.039239
59.840 9.000184
59.845 8.926064
59.850 8.994308
59.855 8.752069
59.860 8.83065
59.865 8.956077
59.870 8.654361
59.875 8.424755
59.880 8.552955
59.885 8.465986
59.890 8.855794
59.895 8.849314
59.900 8.719652
59.905 8.964008
59.910 8.982086
59.915 8.603002
59.920 8.331207
59.925 8.137053
59.930 8.014564
59.935 8.568654
59.940 8.60003
59.945 8.653975
59.950 9.024764
59.955 9.629422
59.960 9.550392
59.965 9.702749
59.970 9.496834
59.975 9.193541
59.980 8.797357
59.985 8.794713
59.990 8.459498
59.995 8.330251
60.000 8.051318
60.005 8.036443
60.010 8.49969
60.015 8.985391
60.020 9.070663
60.025 9.368186
60.030 9.482151
60.035 9.800604
60.040 9.695256
60.045 9.349547
60.050 9.251875
60.055 8.908824
60.060 8.629215
60.065 8.816843
60.070 8.729837
60.075 8.576869
60.080 8.268166
60.085 7.996831
60.090 8.35141
60.095 8.186844
60.100 8.202497
60.105 8.015631
60.110 7.885521
60.115 7.906098
60.120 7.883614
60.125 7.99141
60.130 7.915477
60.135 7.889104
60.140 8.184359
60.145 8.524847
60.150 8.697776
60.155 8.608635
60.160 8.747925
60.165 9.002304
60.170 9.059011
60.175 9.3211
60.180 9.350853
60.185 9.288946
60.190 9.2065
60.195 8.980289
60.200 9.311684
60.205 9.354417
60.210 8.892333
60.215 8.746352
60.220 8.899082
60.225 9.214173
60.230 9.382365
60.235 9.022758
60.240 8.671872
60.245 8.865905
60.250 8.840672
60.255 8.731048
60.260 8.323743
60.265 8.176688
60.270 8.185318
60.275 8.403358
60.280 8.397864
60.285 8.463204
60.290 8.614629
60.295 8.674072
60.300 8.788606
60.305 8.640407
60.310 8.652527
60.315 8.568563
60.320 8.202975
60.325 8.33839
60.330 8.401716
60.335 8.128225
60.340 8.069107
60.345 7.839482
60.350 7.868462
60.355 8.214713
60.360 8.207583
60.365 8.829141
60.370 8.844959
60.375 8.995321
60.380 9.447474
60.385 9.537155
60.390 9.537353
60.395 9.673781
60.400 9.312773
60.405 9.384729
60.410 9.672112
60.415 9.364495
60.420 9.275868
60.425 9.257167
60.430 8.868417
60.435 8.994347
60.440 9.176118
60.445 8.927215
60.450 8.802561
60.455 8.864294
60.460 8.762271
60.465 8.696374
60.470 9.063391
60.475 8.791957
60.480 8.74735
60.485 8.72123
60.490 8.620444
60.495 8.907741
60.500 8.922673
60.505 8.633224
60.510 9.013347
60.515 9.312845
60.520 9.458102
60.525 9.295006
60.530 9.130908
60.535 9.085752
60.540 9.298562
60.545 8.951141
60.550 8.81917
60.555 9.173492
60.560 9.645473
60.565 9.888996
60.570 10.02977
60.575 9.401741
60.580 9.255595
60.585 9.728415
60.590 9.826778
60.595 9.834629
60.600 9.710972
60.605 9.410975
60.610 9.400345
60.615 9.57169
60.620 9.420052
60.625 9.455217
60.630 9.27064
60.635 9.471047
60.640 10.035426
60.645 10.306146
60.650 10.094244
60.655 9.528108
60.660 8.96568
60.665 9.046092
60.670 8.697397
60.675 8.559744
60.680 8.498665
60.685 8.578945
60.690 9.030812
60.695 9.480822
60.700 9.588702
60.705 9.938882
60.710 9.737486
60.715 9.710588
60.720 9.961579
60.725 9.689001
60.730 9.405074
60.735 9.165208
60.740 8.563338
60.745 8.751453
60.750 8.987703
60.755 9.132835
60.760 9.254311
60.765 9.03988
60.770 9.004015
60.775 9.468214
60.780 9.21981
60.785 9.251266
60.790 8.831063
60.795 8.839615
60.800 8.921074
60.805 8.990422
60.810 8.586405
60.815 8.814417
60.820 8.793253
60.825 8.949818
60.830 9.052588
60.835 9.467715
60.840 9.46074
60.845 9.989429
60.850 10.134016
60.855 10.47595
60.860 10.450745
60.865 10.132704
60.870 9.408761
60.875 9.148084
60.880 8.754086
60.885 8.285094
60.890 7.859014
60.895 7.834276
60.900 8.024105
60.905 8.527735
60.910 8.692597
60.915 8.646549
60.920 8.547708
60.925 8.363267
60.930 8.638694
60.935 8.790254
60.940 8.837223
60.945 8.798755
60.950 9.148808
60.955 9.516072
60.960 9.423828
60.965 9.361928
60.970 9.277695
60.975 9.130876
60.980 8.970685
60.985 8.539953
60.990 8.001364
60.995 8.073209
61.000 7.355401
61.005 7.289421
61.010 7.452196
61.015 7.819969
61.020 8.03095
61.025 8.616796
61.030 9.006054
61.035 9.555716
61.040 9.687656
61.045 9.762848
61.050 9.553393
61.055 9.804338
61.060 9.696757
61.065 9.559832
61.070 9.212717
61.075 9.073371
61.080 9.199247
61.085 9.027702
61.090 8.680614
61.095 8.860618
61.100 8.532027
61.105 8.372478
61.110 8.277758
61.115 7.83837
61.120 7.779639
61.125 7.644661
61.130 7.530873
61.135 7.660902
61.140 7.77445
61.145 7.915675
61.150 8.017737
61.155 8.401879
61.160 8.681152
61.165 8.627051
61.170 8.635786
61.175 8.625329
61.180 8.541098
61.185 8.825784
61.190 8.843989
61.195 8.821031
61.200 8.548652
61.205 8.659275
61.210 8.94713
61.215 9.310297
61.220 9.494194
61.225 9.553503
61.230 9.407861
61.235 9.674488
61.240 9.515166
61.245 9.519587
61.250 9.291
61.255 8.880281
61.260 8.84741
61.265 9.273655
61.270 9.385549
61.275 9.493328
61.280 9.7735
61.285 9.92668
61.290 10.088326
61.295 10.206864
61.300 10.334471
61.305 9.805542
61.310 9.797296
61.315 9.750233
61.320 9.555277
61.325 9.432053
61.330 9.097632
61.335 8.461262
61.340 8.695185
61.345 8.478129
61.350 8.143566
61.355 8.334111
61.360 8.252536
61.365 8.38706
61.370 8.674975
61.375 8.415343
61.380 8.373369
61.385 8.726393
61.390 9.335856
61.395 9.415545
61.400 9.194572
61.405 9.119545
61.410 9.684852
61.415 9.953478
61.420 9.540773
61.425 9.351118
61.430 9.277316
61.435 9.255527
61.440 9.05035
61.445 9.017069
61.450 8.919703
61.455 9.062745
61.460 8.448931
61.465 8.247562
61.470 8.225896
61.475 8.601915
61.480 8.73305
61.485 8.786446
61.490 8.618157
61.495 9.199362
61.500 9.374525
61.505 9.487017
61.510 9.148914
61.515 9.450365
61.520 9.51466
61.525 9.570433
61.530 9.650854
61.535 9.675097
61.540 9.634166
61.545 10.313154
61.550 10.087012
61.555 10.239788
61.560 9.950444
61.565 9.48369
61.570 9.770381
61.575 10.009468
61.580 9.638238
61.585 9.470668
61.590 9.504248
61.595 9.84656
61.600 9.82737
61.605 9.736382
61.610 9.998499
61.615 9.561663
61.620 9.447115
61.625 9.122151
61.630 8.962914
61.635 8.993838
61.640 8.881157
61.645 8.61348
61.650 8.494495
61.655 8.408512
61.660 8.536516
61.665 8.561331
61.670 8.71745
61.675 8.747648
61.680 8.622623
61.685 8.80077
61.690 9.439667
61.695 9.316202
61.700 9.54688
61.705 9.615397
61.710 9.499668
61.715 9.456672
61.720 9.510026
61.725 8.804769
61.730 9.189115
61.735 9.184175
61.740 9.488039
61.745 9.679426
61.750 9.876638
61.755 9.768526
61.760 9.937414
61.765 9.628503
61.770 9.390978
61.775 9.048191
61.780 9.113335
61.785 9.366363
61.790 9.610975
61.795 9.62758
61.800 9.905313
61.805 10.404509
61.810 10.328405
61.815 10.367466
61.820 10.417906
61.825 10.436442
61.830 10.139139
61.835 10.002138
61.840 10.023082
61.845 9.951758
61.850 9.675683
61.855 9.259308
61.860 9.201734
61.865 9.395263
61.870 9.119446
61.875 8.710733
61.880 8.776259
61.885 9.052959
61.890 9.198664
61.895 8.763189
61.900 8.332205
61.905 8.200633
61.910 8.519431
61.915 8.987411
61.920 9.090697
61.925 9.618707
61.930 10.13096
61.935 10.900218
61.940 11.348224
61.945 11.132191
61.950 10.588055
61.955 10.19952
61.960 9.549023
61.965 9.063856
61.970 8.709578
61.975 8.265132
61.980 8.135416
61.985 8.441238
61.990 8.770885
61.995 8.863178
62.000 9.22469
62.005 9.425939
62.010 9.650153
62.015 9.750018
62.020 9.761282
62.025 9.616322
62.030 9.547292
62.035 9.154404
62.040 8.931653
62.045 8.479712
62.050 8.686729
62.055 8.666038
62.060 8.715524
62.065 8.814452
62.070 8.834823
62.075 9.033934
62.080 9.374863
62.085 9.027597
62.090 8.924643
62.095 8.999706
62.100 9.207708
62.105 9.101567
62.110 9.043722
62.115 9.28386
62.120 9.522033
62.125 9.323912
62.130 9.22182
62.135 9.23066
62.140 9.097469
62.145 9.108949
62.150 9.265533
62.155 9.274131
62.160 9.266514
62.165 9.180869
62.170 9.487117
62.175 9.975976
62.180 10.124092
62.185 10.054262
62.190 9.982924
62.195 10.798236
62.200 11.067618
62.205 10.596765
62.210 10.311999
62.215 9.980083
62.220 9.71117
62.225 9.855477
62.230 9.254894
62.235 9.197516
62.240 9.205372
62.245 9.597488
62.250 9.733281
62.255 9.797034
62.260 9.421843
62.265 9.434921
62.270 9.146384
62.275 9.154545
62.280 9.007812
62.285 8.722872
62.290 8.651311
62.295 9.042332
62.300 8.73129
62.305 8.72394
62.310 9.059834
62.315 8.767061
62.320 9.161585
62.325 9.468259
62.330 9.542233
62.335 9.491908
62.340 9.50592
62.345 9.607302
62.350 9.764917
62.355 9.495949
62.360 8.982112
62.365 8.871285
62.370 9.084043
62.375 9.088196
62.380 9.056459
62.385 9.17875
62.390 9.217894
62.395 9.492721
62.400 9.542852
62.405 9.673387
62.410 9.771434
62.415 9.525784
62.420 9.112071
62.425 9.084069
62.430 9.006373
62.435 9.010701
62.440 9.147543
62.445 9.134694
62.450 9.736462
62.455 10.278017
62.460 10.376641
62.465 10.710416
62.470 10.787944
62.475 10.935525
62.480 11.032342
62.485 10.515742
62.490 10.209838
62.495 9.877747
62.500 9.536148
62.505 9.083845
62.510 8.627119
62.515 8.085367
62.520 8.098338
62.525 8.074236
62.530 8.177877
62.535 7.97051
62.540 8.308952
62.545 8.866606
62.550 9.745473
62.555 9.385288
62.560 9.540454
62.565 9.661365
62.570 9.842698
62.575 9.656076
62.580 9.152242
62.585 8.825505
62.590 9.443919
62.595 9.518366
62.600 9.439307
62.605 9.93577
62.610 9.841251
62.615 9.828487
62.620 9.917355
62.625 9.519053
62.630 9.851093
62.635 9.674507
62.640 9.270702
62.645 9.440939
62.650 9.592896
62.655 9.482051
62.660 9.772547
62.665 9.729844
62.670 10.17263
62.675 10.347902
62.680 10.555981
62.685 10.526143
62.690 10.633815
62.695 10.349563
62.700 9.861513
62.705 9.928994
62.710 10.362109
62.715 10.003953
62.720 10.163073
62.725 10.088042
62.730 10.483822
62.735 11.237734
62.740 11.093451
62.745 10.861427
62.750 10.990408
62.755 10.623729
62.760 10.42706
62.765 9.799577
62.770 9.115832
62.775 9.026206
62.780 9.211722
62.785 9.322641
62.790 9.635429
62.795 10.066421
62.800 10.826102
62.805 11.290693
62.810 10.878997
62.815 10.616587
62.820 10.735557
62.825 10.428722
62.830 10.251974
62.835 10.199126
62.840 9.928643
62.845 10.153077
62.850 10.276531
62.855 9.933041
62.860 9.954711
62.865 9.465261
62.870 8.709266
62.875 9.032876
62.880 9.336696
62.885 9.405963
62.890 9.942634
62.895 10.24436
62.900 10.847852
62.905 11.142683
62.910 10.989565
62.915 10.903747
62.920 10.714189
62.925 10.509315
62.930 10.328254
62.935 9.979018
62.940 10.2088
62.945 9.987479
62.950 9.484009
62.955 9.673251
62.960 9.793285
62.965 9.925775
62.970 10.301974
62.975 10.005423
62.980 9.961036
62.985 10.597832
62.990 10.696783
62.995 10.49322
63.000 10.243468
63.005 10.066313
63.010 10.288502
63.015 10.54693
63.020 10.106983
63.025 9.915356
63.030 10.032355
63.035 10.243457
63.040 10.562924
63.045 10.589955
63.050 10.430201
63.055 10.30445
63.060 10.22509
63.065 10.303624
63.070 10.08062
63.075 9.718467
63.080 9.673717
63.085 9.677315
63.090 10.119408
63.095 10.031615
63.100 10.100121
63.105 10.428859
63.110 10.364364
63.115 10.456779
63.120 10.04505
63.125 10.06894
63.130 10.417158
63.135 10.407084
63.140 10.399795
63.145 10.57282
63.150 10.697098
63.155 11.033984
63.160 10.821113
63.165 10.975414
63.170 10.821916
63.175 10.503157
63.180 10.246642
63.185 10.277153
63.190 10.548259
63.195 10.121305
63.200 9.663627
63.205 10.172816
63.210 10.455775
63.215 10.319446
63.220 9.694619
63.225 9.351887
63.230 9.486474
63.235 9.629559
63.240 9.025315
63.245 8.82098
63.250 9.041722
63.255 9.180931
63.260 9.373129
63.265 9.135892
63.270 9.084244
63.275 9.190974
63.280 9.132555
63.285 9.155033
63.290 9.206116
63.295 9.072854
63.300 9.296784
63.305 9.447077
63.310 9.405588
63.315 9.28452
63.320 9.410864
63.325 9.360357
63.330 9.561168
63.335 9.566983
63.340 9.436327
63.345 9.720437
63.350 10.291373
63.355 10.420925
63.360 10.456413
63.365 10.116098
63.370 10.059574
63.375 10.288644
63.380 10.771867
63.385 11.049417
63.390 11.040846
63.395 11.70612
63.400 11.914011
63.405 11.70083
63.410 11.404223
63.415 10.650217
63.420 10.181464
63.425 9.977262
63.430 9.609422
63.435 9.808995
63.440 10.001197
63.445 10.050838
63.450 10.311199
63.455 10.440761
63.460 10.417939
63.465 10.474911
63.470 10.222757
63.475 9.856566
63.480 10.139013
63.485 9.958673
63.490 9.663863
63.495 9.686664
63.500 9.773616
63.505 9.668907
63.510 9.742978
63.515 9.388704
63.520 9.312868
63.525 9.143552
63.530 9.244714
63.535 9.342215
63.540 9.498675
63.545 10.005904
63.550 10.273613
63.555 10.360741
63.560 10.179265
63.565 9.883408
63.570 9.437832
63.575 9.123678
63.580 8.824689
63.585 8.565444
63.590 8.449851
63.595 8.876018
63.600 8.658405
63.605 8.919387
63.610 9.354074
63.615 9.564236
63.620 9.494697
63.625 9.440231
63.630 9.264144
63.635 9.6862
63.640 9.420486
63.645 9.162311
63.650 8.930593
63.655 8.952803
63.660 9.151258
63.665 9.496659
63.670 9.662988
63.675 10.189043
63.680 10.658697
63.685 10.931952
63.690 10.992838
63.695 10.726243
63.700 10.142535
63.705 10.129893
63.710 9.563683
63.715 9.28078
63.720 9.131536
63.725 9.56475
63.730 9.863999
63.735 10.087239
63.740 10.179256
63.745 10.218819
63.750 10.028195
63.755 9.922711
63.760 9.687913
63.765 10.117542
63.770 10.477854
63.775 10.59622
63.780 10.769753
63.785 11.347356
63.790 11.878005
63.795 11.883677
63.800 11.453921
63.805 11.190931
63.810 11.064611
63.815 10.893868
63.820 10.356549
63.825 9.791103
63.830 10.012232
63.835 10.139077
63.840 9.970861
63.845 10.15352
63.850 10.07644
63.855 9.819221
63.860 10.142458
63.865 9.901234
63.870 9.874982
63.875 9.734112
63.880 9.81176
63.885 10.665097
63.890 11.456913
63.895 11.45322
63.900 11.491475
63.905 11.342628
63.910 11.513001
63.915 11.558902
63.920 11.131311
63.925 10.849261
63.930 10.59967
63.935 10.241578
63.940 10.447135
63.945 10.582043
63.950 10.351896
63.955 10.540407
63.960 10.849924
63.965 11.232431
63.970 11.9911
63.975 12.059731
63.980 12.367489
63.985 12.398219
63.990 12.12534
63.995 11.840046
64.000 12.134604
64.005 12.045937
64.010 12.012265
64.015 12.037479
64.020 12.499789
64.025 12.654075
64.030 12.94554
64.035 12.380962
64.040 12.256964
64.045 12.618894
64.050 12.841949
64.055 13.102365
64.060 12.88912
64.065 12.684856
64.070 12.862864
64.075 12.672359
64.080 12.646738
64.085 12.315533
64.090 12.185616
64.095 12.567477
64.100 12.697193
64.105 13.026572
64.110 13.028481
64.115 12.764379
64.120 13.266056
64.125 13.44453
64.130 13.287879
64.135 14.055989
64.140 14.202011
64.145 14.330179
64.150 14.655249
64.155 14.620652
64.160 14.486167
64.165 14.633297
64.170 14.240102
64.175 14.716765
64.180 15.829704
64.185 15.613149
64.190 15.384315
64.195 15.792677
64.200 15.895142
64.205 15.718718
64.210 15.301531
64.215 14.867185
64.220 15.780494
64.225 16.414881
64.230 16.654478
64.235 17.113646
64.240 17.641239
64.245 18.116556
64.250 17.990658
64.255 18.01289
64.260 17.959827
64.265 17.932789
64.270 17.961515
64.275 17.950907
64.280 18.115582
64.285 18.284237
64.290 18.734808
64.295 19.316628
64.300 19.565371
64.305 19.420128
64.310 20.056747
64.315 20.67981
64.320 20.702652
64.325 20.629284
64.330 20.30304
64.335 20.091469
64.340 20.566502
64.345 21.004551
64.350 21.625574
64.355 22.229477
64.360 22.565369
64.365 23.079432
64.370 23.426237
64.375 23.108393
64.380 22.303467
64.385 22.024179
64.390 22.295616
64.395 21.691141
64.400 21.098009
64.405 20.834946
64.410 21.159283
64.415 21.299597
64.420 20.901485
64.425 20.750265
64.430 20.353218
64.435 21.058901
64.440 21.065638
64.445 20.602274
64.450 20.372328
64.455 19.877581
64.460 19.884256
64.465 20.472918
64.470 19.984528
64.475 20.157818
64.480 20.710289
64.485 20.731245
64.490 20.621489
64.495 20.142015
64.500 20.254927
64.505 20.489246
64.510 21.460676
64.515 20.954979
64.520 20.886065
64.525 20.92795
64.530 20.751223
64.535 20.911572
64.540 20.663054
64.545 19.789703
64.550 19.444027
64.555 19.657772
64.560 20.270777
64.565 20.594172
64.570 19.394461
64.575 18.399372
64.580 17.814301
64.585 17.424664
64.590 16.648293
64.595 15.572278
64.600 15.077805
64.605 15.559485
64.610 15.533318
64.615 15.74726
64.620 15.774345
64.625 15.564152
64.630 15.702234
64.635 15.395072
64.640 14.763726
64.645 14.70184
64.650 14.395918
64.655 14.36855
64.660 14.240102
64.665 14.411713
64.670 15.124808
64.675 15.430365
64.680 15.490514
64.685 15.494811
64.690 15.783788
64.695 15.831907
64.700 15.239422
64.705 14.47892
64.710 14.286345
64.715 14.368307
64.720 13.859754
64.725 13.128149
64.730 12.888691
64.735 12.731948
64.740 12.888019
64.745 12.773741
64.750 12.505577
64.755 12.357224
64.760 12.210332
64.765 12.422985
64.770 12.541112
64.775 12.325731
64.780 12.520318
64.785 12.530224
64.790 12.758259
64.795 13.017561
64.800 13.318717
64.805 13.225119
64.810 13.476803
64.815 13.411345
64.820 13.085898
64.825 13.132594
64.830 13.278034
64.835 12.627664
64.840 12.849303
64.845 12.395499
64.850 11.897373
64.855 12.26496
64.860 12.587308
64.865 12.502151
64.870 12.825087
64.875 12.591234
64.880 12.116571
64.885 11.767381
64.890 11.568149
64.895 11.363764
64.900 11.46833
64.905 11.188842
64.910 11.232995
64.915 11.7048
64.920 12.4848
64.925 12.897364
64.930 12.963229
64.935 12.753079
64.940 12.814679
64.945 12.783906
64.950 12.849762
64.955 12.59322
64.960 12.308271
64.965 12.325996
64.970 12.569714
64.975 12.864176
64.980 13.456394
64.985 13.699181
64.990 13.976431
64.995 14.039413
65.000 14.338712
65.005 14.554146
65.010 14.456042
65.015 14.125213
65.020 14.21478
65.025 13.743427
65.030 13.553535
65.035 12.931209
65.040 12.708623
65.045 12.682784
65.050 12.581427
65.055 12.177078
65.060 12.150367
65.065 12.166419
65.070 12.93151
65.075 13.232603
65.080 13.588997
65.085 13.634327
65.090 13.975815
65.095 14.137228
65.100 14.214008
65.105 14.299011
65.110 14.563543
65.115 14.643491
65.120 14.33742
65.125 13.97508
65.130 14.375648
65.135 14.411698
65.140 13.892669
65.145 13.741632
65.150 14.008665
65.155 14.548728
65.160 14.933553
65.165 15.353961
65.170 15.464662
65.175 15.553842
65.180 14.967932
65.185 14.640983
65.190 14.675664
65.195 14.320928
65.200 13.750754
65.205 13.628156
65.210 13.982817
65.215 14.360735
65.220 14.720433
65.225 14.677043
65.230 14.59769
65.235 14.433195
65.240 14.852057
65.245 14.773105
65.250 14.761116
65.255 14.875205
65.260 15.097651
65.265 15.595074
65.270 15.869864
65.275 15.45281
65.280 15.568879
65.285 15.690301
65.290 15.72299
65.295 16.052258
65.300 16.161289
65.305 16.176699
65.310 16.2104
65.315 16.212105
65.320 16.21607
65.325 15.575759
65.330 15.053094
65.335 15.274277
65.340 15.447276
65.345 15.589852
65.350 15.282898
65.355 15.211723
65.360 15.603158
65.365 15.457447
65.370 15.304665
65.375 15.76528
65.380 15.698557
65.385 16.290346
65.390 16.813761
65.395 17.465597
65.400 17.792603
65.405 17.661911
65.410 18.058844
65.415 18.17676
65.420 17.935486
65.425 17.533339
65.430 17.236485
65.435 17.732471
65.440 17.908083
65.445 17.735327
65.450 17.628466
65.455 17.555656
65.460 17.353659
65.465 17.634703
65.470 18.433731
65.475 19.029602
65.480 19.376534
65.485 19.497715
65.490 19.688007
65.495 20.155828
65.500 19.672871
65.505 18.901522
65.510 18.791948
65.515 18.248289
65.520 18.351269
65.525 18.3969
65.530 18.463459
65.535 18.907141
65.540 18.615255
65.545 18.511984
65.550 18.901133
65.555 18.828266
65.560 18.958076
65.565 18.98044
65.570 19.247673
65.575 19.653723
65.580 19.877792
65.585 19.500731
65.590 19.186069
65.595 18.885611
65.600 18.809776
65.605 18.598917
65.610 18.314976
65.615 18.149412
65.620 18.657255
65.625 18.795628
65.630 19.1502
65.635 19.118162
65.640 19.534771
65.645 19.442129
65.650 19.309681
65.655 19.221952
65.660 19.692177
65.665 19.536472
65.670 18.935392
65.675 19.083595
65.680 19.718294
65.685 19.760023
65.690 19.891182
65.695 19.904285
65.700 19.890316
65.705 20.158342
65.710 20.182631
65.715 19.356001
65.720 19.957764
65.725 20.144531
65.730 19.691912
65.735 19.775368
65.740 20.013237
65.745 19.791739
65.750 19.72612
65.755 18.353647
65.760 17.728079
65.765 17.691761
65.770 17.760103
65.775 17.446173
65.780 17.154009
65.785 17.51062
65.790 18.450554
65.795 19.018143
65.800 19.486746
65.805 19.365623
65.810 19.110716
65.815 19.117083
65.820 18.463161
65.825 18.129152
65.830 17.649485
65.835 16.84631
65.840 16.249891
65.845 15.952623
65.850 15.483224
65.855 15.353503
65.860 15.006427
65.865 14.887718
65.870 15.389098
65.875 15.424048
65.880 15.352164
65.885 15.285965
65.890 15.17473
65.895 14.913235
65.900 14.837328
65.905 14.688333
65.910 14.62964
65.915 14.718138
65.920 15.067184
65.925 14.948465
65.930 15.291095
65.935 15.094196
65.940 14.681985
65.945 14.759046
65.950 14.579698
65.955 14.115385
65.960 14.390833
65.965 14.517339
65.970 14.370598
65.975 14.022886
65.980 13.980459
65.985 14.219952
65.990 13.602973
65.995 12.787202
66.000 12.457267
66.005 12.647953
66.010 13.29898
66.015 13.293113
66.020 12.814432
66.025 13.454466
66.030 13.804262
66.035 13.324595
66.040 13.352196
66.045 13.116839
66.050 12.658047
66.055 13.108299
66.060 12.46955
66.065 11.763978
66.070 11.891401
66.075 11.274202
66.080 11.065052
66.085 11.372882
66.090 10.999641
66.095 11.085516
66.100 11.835028
66.105 12.236641
66.110 12.451995
66.115 12.277814
66.120 12.231731
66.125 12.639606
66.130 12.97258
66.135 12.264242
66.140 11.995712
66.145 11.791059
66.150 11.908477
66.155 11.5723
66.160 11.183229
66.165 10.845616
66.170 10.798931
66.175 10.740601
66.180 11.118822
66.185 11.211155
66.190 11.449355
66.195 11.325508
66.200 11.723516
66.205 11.635162
66.210 11.79669
66.215 11.42909
66.220 11.490453
66.225 11.776561
66.230 11.628356
66.235 11.394696
66.240 11.403268
66.245 10.738753
66.250 10.750098
66.255 10.452768
66.260 10.626288
66.265 10.45212
66.270 10.532775
66.275 10.761028
66.280 11.092381
66.285 11.190205
66.290 11.381516
66.295 10.795851
66.300 11.044786
66.305 10.735733
66.310 10.629782
66.315 10.62915
66.320 10.36697
66.325 10.024414
66.330 10.69653
66.335 10.55998
66.340 10.315895
66.345 10.467752
66.350 10.73534
66.355 10.957264
66.360 10.708742
66.365 10.488
66.370 10.786628
66.375 11.200877
66.380 11.266838
66.385 11.12154
66.390 10.969569
66.395 11.163028
66.400 11.339897
66.405 11.625297
66.410 11.72563
66.415 11.850519
66.420 11.790239
66.425 12.48671
66.430 12.575045
66.435 12.31459
66.440 12.221731
66.445 11.959743
66.450 11.542975
66.455 11.212244
66.460 10.626935
66.465 10.571822
66.470 10.822649
66.475 10.667914
66.480 10.340348
66.485 10.211832
66.490 10.4214
66.495 10.72092
66.500 10.154237
66.505 10.004635
66.510 10.28806
66.515 10.898362
66.520 11.416057
66.525 10.952171
66.530 10.583308
66.535 10.670959
66.540 10.400393
66.545 10.38149
66.550 10.593225
66.555 10.315704
66.560 10.650325
66.565 10.955247
66.570 11.233229
66.575 11.461549
66.580 11.561567
66.585 11.388505
66.590 11.210607
66.595 11.465961
66.600 11.293086
66.605 11.481658
66.610 11.271919
66.615 10.921359
66.620 10.604675
66.625 10.797431
66.630 10.454484
66.635 10.369076
66.640 9.757735
66.645 9.356795
66.650 9.234555
66.655 9.308063
66.660 8.951795
66.665 8.916064
66.670 8.763481
66.675 8.968554
66.680 9.117629
66.685 9.105533
66.690 8.877575
66.695 9.349471
66.700 9.501415
66.705 9.840168
66.710 10.259748
66.715 10.816905
66.720 11.326416
66.725 11.526826
66.730 11.335629
66.735 11.58829
66.740 11.549947
66.745 11.089626
66.750 10.810096
66.755 10.399184
66.760 10.36305
66.765 10.539326
66.770 10.223382
66.775 10.043501
66.780 9.853738
66.785 9.550888
66.790 9.283259
66.795 8.887745
66.800 8.410066
66.805 8.684246
66.810 8.792573
66.815 9.347103
66.820 9.364377
66.825 9.589806
66.830 10.136306
66.835 10.150648
66.840 10.091495
66.845 10.188971
66.850 10.005303
66.855 9.935478
66.860 9.803316
66.865 9.2964
66.870 9.21839
66.875 9.276115
66.880 9.309536
66.885 9.413581
66.890 9.99013
66.895 10.166037
66.900 10.431155
66.905 10.384718
66.910 9.840779
66.915 9.911469
66.920 9.568414
66.925 9.288692
66.930 8.960911
66.935 8.96518
66.940 9.356162
66.945 9.596793
66.950 9.493778
66.955 9.839786
66.960 10.149308
66.965 10.740526
66.970 10.649883
66.975 10.601741
66.980 10.709657
66.985 10.611354
66.990 10.429781
66.995 10.277557
67.000 10.334243
67.005 10.929375
67.010 10.910851
67.015 11.058578
67.020 11.380162
67.025 11.199944
67.030 11.046127
67.035 10.815578
67.040 10.531052
67.045 10.375605
67.050 10.193119
67.055 10.116914
67.060 10.411835
67.065 10.636873
67.070 10.340325
67.075 10.492594
67.080 10.698139
67.085 10.640298
67.090 10.011823
67.095 9.905226
67.100 9.8693
67.105 10.244425
67.110 10.576654
67.115 10.788218
67.120 11.223546
67.125 11.827704
67.130 11.815928
67.135 11.626751
67.140 11.27888
67.145 11.101068
67.150 11.197613
67.155 11.059844
67.160 10.605739
67.165 11.291442
67.170 11.530295
67.175 11.193885
67.180 10.959595
67.185 10.654778
67.190 10.614075
67.195 10.557849
67.200 9.988256
67.205 10.147803
67.210 10.334259
67.215 10.135947
67.220 10.465428
67.225 10.582194
67.230 10.844012
67.235 10.634469
67.240 10.618279
67.245 10.516784
67.250 10.628811
67.255 10.360424
67.260 10.237781
67.265 10.048627
67.270 9.953384
67.275 9.75328
67.280 9.746672
67.285 9.316029
67.290 9.169372
67.295 9.475254
67.300 9.584675
67.305 9.858894
67.310 9.834161
67.315 9.858428
67.320 10.108923
67.325 10.440332
67.330 10.427356
67.335 10.711802
67.340 10.74385
67.345 10.950363
67.350 10.976094
67.355 11.119291
67.360 10.951552
67.365 11.05404
67.370 10.646509
67.375 10.507523
67.380 10.413292
67.385 10.569651
67.390 10.295194
67.395 10.273378
67.400 10.131974
67.405 10.28131
67.410 10.574137
67.415 10.392475
67.420 10.171418
67.425 9.845263
67.430 9.433036
67.435 9.229594
67.440 9.145747
67.445 9.146061
67.450 9.509009
67.455 10.023538
67.460 10.659938
67.465 10.859863
67.470 10.894861
67.475 11.227332
67.480 11.458146
67.485 11.864582
67.490 11.459762
67.495 11.625398
67.500 11.527929
67.505 11.023582
67.510 10.696877
67.515 11.01862
67.520 10.882349
67.525 10.882995
67.530 10.330628
67.535 10.860875
67.540 11.398803
67.545 11.162482
67.550 10.808664
67.555 10.950877
67.560 11.277422
67.565 11.338997
67.570 11.097134
67.575 11.171134
67.580 11.475391
67.585 10.963324
67.590 10.260661
67.595 9.917184
67.600 9.621509
67.605 9.444989
67.610 9.339724
67.615 9.257639
67.620 9.399855
67.625 10.066844
67.630 10.607244
67.635 11.042961
67.640 11.141597
67.645 10.699564
67.650 10.787427
67.655 10.873092
67.660 10.381226
67.665 10.038509
67.670 9.635468
67.675 9.36377
67.680 9.918753
67.685 10.283533
67.690 10.430696
67.695 10.109227
67.700 9.915796
67.705 10.40483
67.710 10.605103
67.715 10.547237
67.720 10.549251
67.725 10.440388
67.730 10.97684
67.735 11.021615
67.740 10.968176
67.745 11.303352
67.750 11.264318
67.755 10.84614
67.760 10.761691
67.765 10.407974
67.770 10.19723
67.775 10.183662
67.780 10.056341
67.785 9.748059
67.790 9.511914
67.795 9.181949
67.800 9.351289
67.805 9.429149
67.810 9.163658
67.815 8.980632
67.820 9.136689
67.825 9.36105
67.830 9.806715
67.835 9.738475
67.840 9.703143
67.845 9.702047
67.850 9.703346
67.855 10.136418
67.860 10.392915
67.865 10.544904
67.870 11.017807
67.875 11.135185
67.880 11.38092
67.885 11.318353
67.890 10.886946
67.895 10.675646
67.900 10.672459
67.905 10.727912
67.910 10.778548
67.915 10.91641
67.920 10.957916
67.925 11.094238
67.930 11.500127
67.935 11.492361
67.940 11.345283
67.945 11.155375
67.950 10.910412
67.955 11.008266
67.960 11.270614
67.965 11.258189
67.970 11.662504
67.975 11.476823
67.980 11.469152
67.985 11.476395
67.990 11.307681
67.995 10.960032
68.000 10.911046
68.005 10.313155
68.010 10.314487
68.015 10.522071
68.020 10.575609
68.025 10.485984
68.030 10.300272
68.035 9.808228
68.040 9.68879
68.045 9.516888
68.050 9.351389
68.055 9.329791
68.060 9.740026
68.065 9.72078
68.070 10.124373
68.075 10.461786
68.080 10.999892
68.085 11.056309
68.090 10.725978
68.095 10.667479
68.100 10.924182
68.105 11.220795
68.110 11.255781
68.115 11.301259
68.120 11.097943
68.125 10.855154
68.130 10.796139
68.135 10.251662
68.140 10.422476
68.145 10.771461
68.150 10.55581
68.155 10.662223
68.160 10.691071
68.165 10.76859
68.170 10.916718
68.175 10.540473
68.180 10.158396
68.185 10.120025
68.190 10.350243
68.195 10.700162
68.200 10.80251
68.205 10.82434
68.210 10.562674
68.215 10.289262
68.220 10.581446
68.225 10.506075
68.230 10.36372
68.235 9.998682
68.240 9.966687
68.245 10.90409
68.250 11.624454
68.255 11.506926
68.260 11.650368
68.265 11.872276
68.270 12.01823
68.275 11.927156
68.280 11.120092
68.285 10.710446
68.290 10.789932
68.295 10.495654
68.300 10.41298
68.305 10.741138
68.310 10.925236
68.315 10.674046
68.320 10.711445
68.325 11.066157
68.330 11.370789
68.335 11.685847
68.340 11.926249
68.345 11.630366
68.350 11.881538
68.355 11.982061
68.360 11.623423
68.365 11.594518
68.370 11.741511
68.375 11.774166
68.380 12.052217
68.385 12.664115
68.390 12.364354
68.395 12.09443
68.400 12.388399
68.405 12.215572
68.410 12.322575
68.415 12.430733
68.420 12.074814
68.425 12.781231
68.430 13.205492
68.435 12.476007
68.440 12.60033
68.445 12.734536
68.450 12.633949
68.455 12.606208
68.460 12.743492
68.465 13.03513
68.470 13.607567
68.475 13.485092
68.480 13.561749
68.485 13.98289
68.490 13.502048
68.495 13.557247
68.500 13.944684
68.505 13.753489
68.510 13.218318
68.515 12.603594
68.520 12.690471
68.525 13.222489
68.530 12.646193
68.535 12.035656
68.540 11.900073
68.545 12.182301
68.550 12.557603
68.555 12.663011
68.560 12.824556
68.565 12.841027
68.570 13.548711
68.575 14.07964
68.580 14.127614
68.585 13.985208
68.590 13.9231
68.595 14.128656
68.600 14.932362
68.605 14.620474
68.610 14.365578
68.615 14.53962
68.620 15.23018
68.625 16.029808
68.630 16.278345
68.635 16.202646
68.640 16.429361
68.645 16.440063
68.650 16.668005
68.655 16.659401
68.660 16.244883
68.665 15.965307
68.670 15.792434
68.675 15.677413
68.680 15.444131
68.685 15.648194
68.690 15.8352
68.695 15.944042
68.700 15.996679
68.705 16.17684
68.710 16.536737
68.715 16.718784
68.720 17.065762
68.725 17.452847
68.730 18.144043
68.735 18.263155
68.740 18.448071
68.745 18.713942
68.750 19.185272
68.755 18.836086
68.760 17.969601
68.765 17.946724
68.770 18.83564
68.775 18.986979
68.780 18.503576
68.785 18.195124
68.790 18.141924
68.795 18.481995
68.800 18.192759
68.805 16.900497
68.810 16.436796
68.815 17.071447
68.820 17.262049
68.825 16.978188
68.830 17.446314
68.835 17.480284
68.840 18.280769
68.845 18.908827
68.850 18.76017
68.855 18.862518
68.860 19.212357
68.865 18.692715
68.870 18.872282
68.875 18.781637
68.880 18.457113
68.885 18.657068
68.890 19.158554
68.895 19.028095
68.900 18.907253
68.905 19.144958
68.910 19.461975
68.915 19.556929
68.920 19.446102
68.925 18.778551
68.930 18.715578
68.935 18.235451
68.940 17.782486
68.945 17.186281
68.950 16.829666
68.955 16.309755
68.960 16.525803
68.965 16.358362
68.970 16.567635
68.975 17.052265
68.980 17.466078
68.985 17.821547
68.990 17.880705
68.995 18.455313
69.000 19.022875
69.005 19.211784
69.010 18.608318
69.015 18.490355
69.020 17.744516
69.025 17.498032
69.030 16.966452
69.035 16.21574
69.040 16.062519
69.045 15.555572
69.050 15.305655
69.055 15.512723
69.060 15.089461
69.065 14.739171
69.070 14.270252
69.075 14.111876
69.080 14.582994
69.085 14.479891
69.090 14.751957
69.095 14.846643
69.100 15.43773
69.105 16.073862
69.110 16.099308
69.115 16.031199
69.120 15.69276
69.125 15.812391
69.130 15.82544
69.135 15.852002
69.140 16.230589
69.145 16.03138
69.150 16.045116
69.155 16.604494
69.160 16.220661
69.165 15.6983
69.170 14.976336
69.175 14.470356
69.180 14.365089
69.185 13.847975
69.190 12.986508
69.195 12.758121
69.200 12.70813
69.205 12.439979
69.210 11.957193
69.215 11.844683
69.220 12.220119
69.225 12.975737
69.230 13.187571
69.235 13.290767
69.240 13.429678
69.245 13.696896
69.250 13.516119
69.255 12.976857
69.260 12.841669
69.265 12.863289
69.270 12.64123
69.275 12.65526
69.280 12.068267
69.285 11.822682
69.290 11.87154
69.295 11.508307
69.300 11.449497
69.305 11.564125
69.310 11.555338
69.315 11.909149
69.320 11.851011
69.325 11.798331
69.330 11.677232
69.335 11.691442
69.340 11.597735
69.345 11.176042
69.350 11.018809
69.355 10.665292
69.360 10.456627
69.365 10.601332
69.370 10.528442
69.375 10.37454
69.380 10.266666
69.385 10.402367
69.390 10.373807
69.395 10.320097
69.400 10.208646
69.405 10.100544
69.410 10.116611
69.415 10.201014
69.420 10.733585
69.425 11.282115
69.430 11.57418
69.435 11.910799
69.440 12.201718
69.445 12.199427
69.450 11.90735
69.455 11.273611
69.460 10.956908
69.465 10.385279
69.470 10.155529
69.475 10.178717
69.480 10.220015
69.485 10.418632
69.490 10.763324
69.495 10.87693
69.500 10.561184
69.505 10.590487
69.510 10.814976
69.515 10.957097
69.520 10.744077
69.525 10.847361
69.530 11.16522
69.535 11.424103
69.540 11.365129
69.545 11.242098
69.550 11.775514
69.555 12.273746
69.560 12.350872
69.565 12.013491
69.570 12.252104
69.575 12.438499
69.580 12.282925
69.585 11.462757
69.590 10.80417
69.595 10.439915
69.600 10.733431
69.605 10.324601
69.610 9.974383
69.615 9.673548
69.620 9.983226
69.625 10.232287
69.630 10.559171
69.635 10.358699
69.640 10.456601
69.645 10.583409
69.650 10.477733
69.655 10.331728
69.660 10.437881
69.665 10.192965
69.670 10.364651
69.675 9.87604
69.680 9.93643
69.685 10.564212
69.690 10.653884
69.695 10.404343
69.700 10.446266
69.705 10.733922
69.710 11.198432
69.715 11.321415
69.720 10.92672
69.725 11.064878
69.730 11.651822
69.735 11.610537
69.740 11.346543
69.745 11.1992
69.750 10.924971
69.755 10.792191
69.760 10.416797
69.765 10.173824
69.770 10.130852
69.775 10.486951
69.780 10.24194
69.785 10.205066
69.790 10.11549
69.795 10.018021
69.800 10.270965
69.805 10.025892
69.810 9.410542
69.815 9.453844
69.820 9.634796
69.825 9.627168
69.830 9.433381
69.835 9.389714
69.840 9.833722
69.845 10.090308
69.850 9.805387
69.855 9.596625
69.860 9.642504
69.865 9.477176
69.870 9.384221
69.875 9.231591
69.880 9.514077
69.885 9.894254
69.890 10.413757
69.895 11.112224
69.900 11.121037
69.905 10.994008
69.910 10.757091
69.915 10.736535
69.920 10.152281
69.925 9.678399
69.930 9.025935
69.935 9.319846
69.940 9.520735
69.945 9.387824
69.950 9.487793
69.955 10.053237
69.960 10.355694
69.965 10.415659
69.970 9.699712
69.975 8.915554
69.980 8.905698
69.985 8.924749
69.990 8.708295
69.995 8.862494
70.000 9.333348
70.005 9.982312
70.010 10.363461
70.015 10.464821
70.020 10.417545
70.025 10.476229
70.030 9.983253
70.035 10.00226
70.040 10.273251
70.045 10.729622
70.050 10.561403
70.055 10.518602
70.060 10.232421
70.065 10.540332
70.070 10.510888
70.075 10.305017
70.080 10.388236
70.085 10.160547
70.090 10.403582
70.095 10.765379
70.100 10.982654
70.105 10.865129
70.110 10.89265
70.115 10.788903
70.120 11.067699
70.125 10.826395
70.130 10.736341
70.135 10.131101
70.140 10.073953
70.145 10.094113
70.150 10.018209
70.155 10.237161
70.160 10.400021
70.165 10.458327
70.170 10.827839
70.175 10.844796
70.180 10.522031
70.185 10.774935
70.190 10.985354
70.195 11.055525
70.200 10.77368
70.205 10.627871
70.210 10.637953
70.215 11.087778
70.220 10.71574
70.225 9.929375
70.230 9.940758
70.235 10.018929
70.240 10.277252
70.245 10.498654
70.250 10.459161
70.255 10.545223
70.260 10.719522
70.265 10.854977
70.270 10.918497
70.275 10.699569
70.280 10.601414
70.285 10.508438
70.290 10.909494
70.295 11.212187
70.300 11.160664
70.305 11.232384
70.310 11.337069
70.315 11.213388
70.320 11.432652
70.325 11.388607
70.330 11.06341
70.335 10.810877
70.340 10.202781
70.345 9.846025
70.350 9.484286
70.355 8.861547
70.360 9.091606
70.365 9.072579
70.370 9.027178
70.375 9.623302
70.380 10.131572
70.385 10.226401
70.390 10.198445
70.395 9.79078
70.400 9.843079
70.405 9.891698
70.410 9.508081
70.415 9.589149
70.420 10.125154
70.425 10.3058
70.430 10.533472
70.435 10.52977
70.440 11.059403
70.445 10.937281
70.450 10.920735
70.455 10.746
70.460 10.340648
70.465 10.561353
70.470 10.491344
70.475 10.454629
70.480 10.451694
70.485 10.593128
70.490 10.666645
70.495 11.117071
70.500 11.182268
70.505 11.161447
70.510 11.241475
70.515 11.707139
70.520 11.418192
70.525 11.146527
70.530 11.05809
70.535 10.866709
70.540 10.852396
70.545 11.32973
70.550 10.888246
70.555 11.33632
70.560 11.801543
70.565 11.93292
70.570 11.942129
70.575 11.558019
70.580 10.456813
70.585 10.143154
70.590 9.736908
70.595 9.38094
70.600 9.141299
70.605 9.438617
70.610 9.496096
70.615 9.93134
70.620 10.577177
70.625 10.76294
70.630 10.553392
70.635 10.393897
70.640 10.850898
70.645 11.135409
70.650 10.976774
70.655 10.60126
70.660 10.885903
70.665 11.272184
70.670 11.107953
70.675 10.787348
70.680 10.622073
70.685 10.356085
70.690 10.41667
70.695 10.260344
70.700 10.119514
70.705 10.030816
70.710 10.027325
70.715 10.500699
70.720 10.638138
70.725 10.689627
70.730 10.780596
70.735 10.661289
70.740 10.647144
70.745 10.58976
70.750 10.886976
70.755 11.15526
70.760 10.43924
70.765 10.625369
70.770 10.911596
70.775 10.663486
70.780 10.10647
70.785 9.444855
70.790 9.122836
70.795 8.985184
70.800 8.167449
70.805 8.461214
70.810 8.749257
70.815 8.979605
70.820 9.552232
70.825 9.665705
70.830 10.508665
70.835 11.04202
70.840 11.022985
70.845 11.214544
70.850 11.186999
70.855 10.588326
70.860 10.352631
70.865 10.003057
70.870 9.819767
70.875 9.489984
70.880 9.423788
70.885 9.838992
70.890 10.304334
70.895 11.006163
70.900 11.155538
70.905 11.093025
70.910 11.111791
70.915 10.91167
70.920 10.65543
70.925 10.48735
70.930 9.837497
70.935 9.805167
70.940 9.965945
70.945 9.969203
70.950 10.182759
70.955 10.134167
70.960 10.135695
70.965 10.630959
70.970 10.698368
70.975 10.886147
70.980 10.912583
70.985 10.802145
70.990 10.963643
70.995 11.003192
71.000 10.621433
71.005 10.53958
71.010 10.472253
71.015 10.568913
71.020 10.774322
71.025 10.663231
71.030 10.683718
71.035 10.532508
71.040 10.886852
71.045 11.161489
71.050 11.14147
71.055 11.225764
71.060 11.028892
71.065 11.457653
71.070 11.528119
71.075 10.941578
71.080 10.768685
71.085 10.510042
71.090 10.249132
71.095 10.404614
71.100 10.313577
71.105 10.773217
71.110 10.747397
71.115 10.334297
71.120 10.828248
71.125 10.635452
71.130 10.682306
71.135 10.319185
71.140 9.974568
71.145 10.343288
71.150 10.662993
71.155 10.184489
71.160 10.659317
71.165 10.614373
71.170 10.53204
71.175 10.488114
71.180 10.730533
71.185 10.713703
71.190 11.304981
71.195 10.929354
71.200 10.621497
71.205 10.696605
71.210 10.615185
71.215 10.028632
71.220 9.384989
71.225 9.115669
71.230 9.661643
71.235 9.700493
71.240 9.566405
71.245 9.951484
71.250 10.07121
71.255 10.266406
71.260 10.043089
71.265 9.935959
71.270 10.320424
71.275 10.537769
71.280 10.343031
71.285 10.854455
71.290 10.872543
71.295 10.867921
71.300 10.340806
71.305 10.045258
71.310 9.851701
71.315 10.024429
71.320 9.931326
71.325 10.281004
71.330 10.678799
71.335 11.39351
71.340 11.772504
71.345 11.986457
71.350 11.344068
71.355 10.755854
71.360 10.304179
71.365 10.319727
71.370 9.57664
71.375 9.038727
71.380 9.255579
71.385 9.222007
71.390 9.277108
71.395 9.49585
71.400 9.524626
71.405 9.706226
71.410 9.664577
71.415 9.640379
71.420 10.176562
71.425 10.189914
71.430 9.894343
71.435 9.960365
71.440 10.567217
71.445 10.750836
71.450 10.878275
71.455 11.337964
71.460 11.650643
71.465 12.22978
71.470 11.648171
71.475 11.156653
71.480 11.101541
71.485 11.064488
71.490 10.659544
71.495 10.334242
71.500 10.048818
71.505 10.30939
71.510 10.235046
71.515 10.085471
71.520 10.021194
71.525 9.815464
71.530 9.563144
71.535 10.058572
71.540 10.529478
71.545 10.600587
71.550 10.68874
71.555 10.820203
71.560 10.946611
71.565 11.292726
71.570 11.120848
71.575 10.694375
71.580 10.696789
71.585 10.72727
71.590 10.726149
71.595 10.800009
71.600 10.556285
71.605 10.234452
71.610 10.16906
71.615 9.829396
71.620 9.69507
71.625 9.860438
71.630 9.770361
71.635 10.366875
71.640 10.827272
71.645 10.748543
71.650 10.572125
71.655 10.50625
71.660 10.825576
71.665 10.826757
71.670 10.173169
71.675 10.290297
71.680 11.095672
71.685 11.519535
71.690 11.751966
71.695 11.382401
71.700 11.206493
71.705 10.829688
71.710 10.32178
71.715 9.955038
71.720 10.012314
71.725 10.035736
71.730 9.942004
71.735 10.377581
71.740 10.860929
71.745 10.637799
71.750 10.635458
71.755 9.832712
71.760 9.213783
71.765 9.251583
71.770 9.347357
71.775 9.588335
71.780 9.941261
71.785 10.052062
71.790 10.585784
71.795 10.628648
71.800 10.453382
71.805 9.983402
71.810 9.592329
71.815 9.630119
71.820 10.065799
71.825 10.256776
71.830 10.216571
71.835 10.470387
71.840 10.962398
71.845 11.401116
71.850 11.39314
71.855 11.372108
71.860 11.410612
71.865 11.699544
71.870 11.266187
71.875 11.425279
71.880 11.136612
71.885 11.405519
71.890 11.751545
71.895 11.764704
71.900 11.705364
71.905 11.955408
71.910 11.710469
71.915 11.534751
71.920 10.754443
71.925 10.449588
71.930 10.499114
71.935 10.617554
71.940 10.914886
71.945 10.669538
71.950 10.690909
71.955 11.214773
71.960 10.685967
71.965 10.57214
71.970 10.590892
71.975 10.252658
71.980 10.914308
71.985 10.716048
71.990 10.593519
71.995 10.68412
72.000 10.456007
72.005 10.058054
72.010 10.141553
72.015 9.720427
72.020 9.700831
72.025 9.846862
72.030 9.952573
72.035 9.871235
72.040 10.068106
72.045 9.961653
72.050 9.877872
72.055 9.608827
72.060 9.283449
72.065 9.717713
72.070 9.957491
72.075 9.97195
72.080 9.416818
72.085 9.779163
72.090 9.997458
72.095 10.254849
72.100 10.249822
72.105 10.147859
72.110 9.788072
72.115 9.799279
72.120 9.590355
72.125 9.698863
72.130 9.507897
72.135 9.406748
72.140 9.591682
72.145 10.251069
72.150 10.609345
72.155 10.646984
72.160 10.23722
72.165 9.913501
72.170 9.966022
72.175 9.927307
72.180 10.185441
72.185 10.129153
72.190 10.489416
72.195 10.774898
72.200 10.65662
72.205 10.567841
72.210 10.446339
72.215 10.201565
72.220 10.609615
72.225 10.775429
72.230 10.936408
72.235 11.383965
72.240 11.351881
72.245 11.310964
72.250 11.194799
72.255 10.549466
72.260 10.259589
72.265 10.049567
72.270 9.828961
72.275 9.761501
72.280 9.944869
72.285 9.687157
72.290 9.671656
72.295 9.821603
72.300 9.756643
72.305 9.511409
72.310 9.658585
72.315 10.174513
72.320 10.390977
72.325 10.337828
72.330 10.16178
72.335 10.562523
72.340 10.941496
72.345 10.979821
72.350 10.667647
72.355 11.018829
72.360 11.532858
72.365 11.436696
72.370 11.173759
72.375 11.023765
72.380 10.535219
72.385 10.601342
72.390 9.759533
72.395 9.649077
72.400 9.940251
72.405 10.370392
72.410 10.361284
72.415 10.213528
72.420 9.963552
72.425 10.238542
72.430 10.288327
72.435 9.851213
72.440 9.691594
72.445 9.791586
72.450 9.892485
72.455 10.110939
72.460 9.974255
72.465 9.849657
72.470 10.217869
72.475 10.272408
72.480 10.220277
72.485 10.436495
72.490 10.637154
72.495 10.741132
72.500 10.907312
72.505 10.361427
72.510 10.291292
72.515 10.058717
72.520 9.789148
72.525 10.157743
72.530 10.002702
72.535 10.065022
72.540 10.182757
72.545 10.381996
72.550 10.591665
72.555 10.102623
72.560 9.955593
72.565 9.837229
72.570 9.857581
72.575 9.87747
72.580 9.830811
72.585 10.370788
72.590 10.488433
72.595 10.298311
72.600 10.375629
72.605 10.360229
72.610 10.545117
72.615 10.549865
72.620 10.513268
72.625 10.71209
72.630 10.43646
72.635 10.543782
72.640 10.499086
72.645 10.186235
72.650 9.720738
72.655 9.365227
72.660 9.384772
72.665 9.805276
72.670 9.832438
72.675 9.981351
72.680 10.120095
72.685 10.079632
72.690 9.975746
72.695 9.981338
72.700 10.098515
72.705 9.810808
72.710 9.741437
72.715 10.145185
72.720 10.184142
72.725 10.834711
72.730 11.05155
72.735 11.188928
72.740 11.290217
72.745 11.415055
72.750 10.940675
72.755 10.800154
72.760 9.73153
72.765 9.658593
72.770 9.207845
72.775 8.975529
72.780 9.080043
72.785 9.302604
72.790 9.687281
72.795 9.700456
72.800 9.426883
72.805 9.54612
72.810 9.808646
72.815 9.690669
72.820 9.512545
72.825 9.437567
72.830 9.480145
72.835 9.826438
72.840 9.889139
72.845 9.870203
72.850 9.698322
72.855 9.800249
72.860 9.621735
72.865 9.555091
72.870 9.007518
72.875 8.863514
72.880 8.579944
72.885 8.968454
72.890 8.78132
72.895 8.943751
72.900 9.212828
72.905 9.559949
72.910 10.067253
72.915 10.134873
72.920 9.956194
72.925 9.982427
72.930 9.882958
72.935 9.868372
72.940 9.653457
72.945 9.503591
72.950 9.455673
72.955 9.704987
72.960 9.345919
72.965 8.756418
72.970 8.885082
72.975 8.935891
72.980 9.046519
72.985 8.971557
72.990 9.315149
72.995 9.882891
73.000 9.794827
