!@!!GADDS PLOTSO FILE: Chi integration type
!@!!Title/SampleName: map-164
!@!!Comment: ?
!@!!User: Bruker Instrument Administrator
!@!!Site: University of Illinois Chicago
!@!!Frame: map-164_01_000.gfrm
!@!!Wavelengths    1.54184   1.54056   1.54439
!@!!Frame angles: 2Theta: 63.000 Omega: 50.000 Phi: 0.000 Chi: 90.000
!@!!Integration range: 2Theta: 53.000 to 73.000  Gamma: -105.000 to -75.000
!@!!Integration method: bin normalized
!@!N
!@!SS
!@!M
!@!L 0.0 0.0 0.0 0.0
!@!XDegrees
!@!YCounts
53.000 3.49229
53.005 3.547221
53.010 3.922663
53.015 4.232008
53.020 4.235441
53.025 4.428003
53.030 4.226252
53.035 4.046165
53.040 4.098439
53.045 4.014682
53.050 3.780459
53.055 3.578204
53.060 3.571799
53.065 3.720139
53.070 4.019557
53.075 3.895099
53.080 3.711611
53.085 3.749973
53.090 3.877434
53.095 3.794967
53.100 3.741027
53.105 3.713451
53.110 3.868584
53.115 4.262125
53.120 4.42152
53.125 4.370203
53.130 4.325172
53.135 4.573939
53.140 4.718921
53.145 4.480145
53.150 4.21466
53.155 3.991908
53.160 4.075443
53.165 3.813085
53.170 3.726234
53.175 3.670509
53.180 3.953601
53.185 4.284668
53.190 4.117844
53.195 4.044653
53.200 4.138112
53.205 3.933205
53.210 3.694268
53.215 3.519226
53.220 3.849921
53.225 4.083296
53.230 4.089401
53.235 3.992985
53.240 3.839171
53.245 4.033904
53.250 3.637408
53.255 3.545526
53.260 3.555003
53.265 3.549113
53.270 3.935393
53.275 4.207075
53.280 4.006436
53.285 3.909514
53.290 3.859465
53.295 4.225428
53.300 4.448427
53.305 4.36545
53.310 4.283216
53.315 4.496855
53.320 4.49214
53.325 4.291603
53.330 4.136892
53.335 3.985987
53.340 4.060056
53.345 4.11772
53.350 4.049412
53.355 4.062293
53.360 3.925361
53.365 3.908912
53.370 4.134507
53.375 4.319055
53.380 4.262761
53.385 4.491745
53.390 4.76915
53.395 4.833718
53.400 4.514878
53.405 4.197504
53.410 3.90516
53.415 3.746088
53.420 3.674025
53.425 3.610062
53.430 3.840754
53.435 4.045028
53.440 4.081253
53.445 4.332308
53.450 4.685073
53.455 4.820351
53.460 4.855611
53.465 4.531037
53.470 4.518124
53.475 4.514623
53.480 4.225425
53.485 4.202376
53.490 4.007539
53.495 3.773665
53.500 3.785551
53.505 4.036316
53.510 4.202917
53.515 4.074965
53.520 3.975175
53.525 4.055753
53.530 4.373768
53.535 4.517939
53.540 4.420094
53.545 4.382963
53.550 4.365145
53.555 4.185194
53.560 4.106091
53.565 3.830451
53.570 3.57969
53.575 3.584981
53.580 3.860563
53.585 4.314147
53.590 4.689519
53.595 4.844735
53.600 5.006678
53.605 4.866835
53.610 4.747363
53.615 4.165049
53.620 3.983455
53.625 3.644739
53.630 3.183486
53.635 3.077488
53.640 3.086361
53.645 3.318541
53.650 3.484277
53.655 3.611547
53.660 4.277676
53.665 4.595407
53.670 4.695492
53.675 4.904859
53.680 5.084531
53.685 5.166056
53.690 5.251649
53.695 4.982373
53.700 4.862468
53.705 4.630341
53.710 4.540618
53.715 4.557435
53.720 4.429881
53.725 4.139881
53.730 4.238435
53.735 4.466851
53.740 4.723119
53.745 4.851157
53.750 5.079599
53.755 5.221963
53.760 5.19373
53.765 5.387085
53.770 5.761592
53.775 5.973019
53.780 5.764878
53.785 5.387305
53.790 5.521299
53.795 5.758903
53.800 5.910127
53.805 5.655541
53.810 5.277102
53.815 5.365857
53.820 5.376512
53.825 5.165394
53.830 4.710469
53.835 4.209901
53.840 4.289505
53.845 4.110626
53.850 4.011996
53.855 3.836163
53.860 3.75805
53.865 3.793831
53.870 3.791021
53.875 3.705842
53.880 4.056207
53.885 4.064319
53.890 4.401798
53.895 4.627834
53.900 5.150082
53.905 5.361939
53.910 5.249908
53.915 5.457977
53.920 5.837935
53.925 5.751606
53.930 5.43621
53.935 5.020228
53.940 5.20617
53.945 5.388712
53.950 5.153495
53.955 4.999456
53.960 5.121743
53.965 5.323789
53.970 5.227688
53.975 4.882061
53.980 4.913941
53.985 4.874794
53.990 4.959355
53.995 5.077904
54.000 5.675196
54.005 5.96829
54.010 6.013286
54.015 6.314348
54.020 6.398691
54.025 6.337759
54.030 6.062261
54.035 5.850456
54.040 5.775229
54.045 6.118865
54.050 6.151249
54.055 6.104142
54.060 6.097825
54.065 6.199791
54.070 6.222839
54.075 6.478757
54.080 6.327585
54.085 6.544802
54.090 6.837421
54.095 7.052559
54.100 7.011228
54.105 7.072008
54.110 7.07899
54.115 7.138593
54.120 7.022207
54.125 7.381213
54.130 7.943742
54.135 8.21113
54.140 8.303995
54.145 8.026347
54.150 7.755493
54.155 7.79734
54.160 7.312
54.165 7.11988
54.170 7.327694
54.175 7.810585
54.180 8.263973
54.185 8.361714
54.190 8.223698
54.195 8.370957
54.200 8.328578
54.205 7.845309
54.210 7.734213
54.215 7.685732
54.220 8.071257
54.225 8.335601
54.230 8.643375
54.235 8.49427
54.240 8.691257
54.245 8.781939
54.250 8.995586
54.255 8.663636
54.260 8.38156
54.265 8.225416
54.270 8.764642
54.275 8.787191
54.280 8.964046
54.285 9.033566
54.290 9.590286
54.295 9.729122
54.300 9.901849
54.305 9.892877
54.310 9.617607
54.315 9.282149
54.320 9.331405
54.325 9.363415
54.330 9.782469
54.335 9.752027
54.340 10.12777
54.345 10.368637
54.350 10.040367
54.355 9.45167
54.360 8.939256
54.365 8.841944
54.370 8.846226
54.375 8.128438
54.380 8.02836
54.385 8.196095
54.390 8.502539
54.395 8.475972
54.400 8.269782
54.405 8.226092
54.410 8.281021
54.415 8.156241
54.420 7.778141
54.425 7.305774
54.430 7.030945
54.435 6.603415
54.440 6.539487
54.445 6.575737
54.450 6.379487
54.455 6.740886
54.460 6.572946
54.465 6.514571
54.470 6.52382
54.475 6.160308
54.480 6.195637
54.485 6.574294
54.490 6.478756
54.495 6.305123
54.500 6.012597
54.505 6.15812
54.510 6.088273
54.515 5.759754
54.520 5.574563
54.525 5.931326
54.530 6.237793
54.535 6.51562
54.540 6.311197
54.545 6.311819
54.550 6.327927
54.555 6.181152
54.560 6.086087
54.565 6.100886
54.570 5.811763
54.575 5.605314
54.580 5.713192
54.585 5.260471
54.590 5.070388
54.595 4.928812
54.600 4.708363
54.605 4.810598
54.610 4.942172
54.615 4.889393
54.620 5.125731
54.625 5.19786
54.630 5.10469
54.635 5.176785
54.640 5.071645
54.645 4.676033
54.650 4.609941
54.655 4.671372
54.660 4.72524
54.665 4.577773
54.670 4.399402
54.675 4.579052
54.680 4.652135
54.685 4.718982
54.690 4.545173
54.695 4.630444
54.700 4.650826
54.705 4.70604
54.710 4.735234
54.715 5.115427
54.720 5.206609
54.725 5.46941
54.730 5.391409
54.735 5.211462
54.740 5.279113
54.745 5.26561
54.750 5.172549
54.755 5.387268
54.760 5.250837
54.765 5.636244
54.770 5.942205
54.775 5.740524
54.780 5.691245
54.785 5.284405
54.790 4.974096
54.795 4.829112
54.800 4.392454
54.805 4.428001
54.810 4.405223
54.815 4.443959
54.820 4.387428
54.825 4.63099
54.830 4.898818
54.835 4.941366
54.840 4.982749
54.845 4.697179
54.850 4.623616
54.855 4.67575
54.860 4.218726
54.865 3.911091
54.870 3.8891
54.875 3.900642
54.880 4.196696
54.885 4.166496
54.890 4.373983
54.895 4.66152
54.900 5.008369
54.905 5.065514
54.910 4.9867
54.915 4.848421
54.920 4.787518
54.925 4.625948
54.930 4.338327
54.935 4.066226
54.940 3.685072
54.945 3.910111
54.950 3.884904
54.955 3.863932
54.960 3.94176
54.965 4.207276
54.970 4.536813
54.975 4.91776
54.980 4.59991
54.985 4.65946
54.990 4.795998
54.995 4.969617
55.000 4.707458
55.005 4.469031
55.010 4.549934
55.015 4.788927
55.020 4.849326
55.025 4.62437
55.030 4.560197
55.035 4.734354
55.040 4.711691
55.045 4.507847
55.050 4.212961
55.055 4.426098
55.060 4.529045
55.065 4.640748
55.070 4.867808
55.075 4.970031
55.080 4.994099
55.085 4.871245
55.090 4.64316
55.095 4.378335
55.100 4.147288
55.105 3.873306
55.110 3.88338
55.115 3.921093
55.120 4.089375
55.125 4.112833
55.130 4.47003
55.135 4.451305
55.140 4.515619
55.145 4.468134
55.150 4.524619
55.155 4.488893
55.160 4.43862
55.165 4.199728
55.170 4.265143
55.175 4.341191
55.180 4.273472
55.185 4.465111
55.190 4.92793
55.195 4.994481
55.200 5.219017
55.205 5.291656
55.210 5.298678
55.215 5.58092
55.220 5.478191
55.225 5.449933
55.230 5.43804
55.235 5.188198
55.240 5.009148
55.245 4.953195
55.250 4.696701
55.255 4.299431
55.260 3.939492
55.265 3.923597
55.270 3.785207
55.275 3.999469
55.280 4.066665
55.285 4.146423
55.290 4.102492
55.295 4.34794
55.300 4.688597
55.305 4.53639
55.310 4.125277
55.315 3.907305
55.320 3.950576
55.325 4.42305
55.330 3.863235
55.335 3.68896
55.340 4.162537
55.345 4.553794
55.350 4.7538
55.355 4.645473
55.360 4.476639
55.365 4.444272
55.370 4.309224
55.375 4.00848
55.380 3.8295
55.385 3.606287
55.390 3.372547
55.395 3.468212
55.400 3.789503
55.405 3.935296
55.410 4.157753
55.415 4.256246
55.420 4.487705
55.425 4.633363
55.430 4.442606
55.435 4.192688
55.440 4.155488
55.445 3.99191
55.450 3.882742
55.455 3.695835
55.460 3.866974
55.465 4.462951
55.470 4.650226
55.475 4.662011
55.480 4.453103
55.485 4.454193
55.490 4.738447
55.495 5.01065
55.500 4.648402
55.505 4.424512
55.510 4.500223
55.515 4.784139
55.520 4.680022
55.525 4.326695
55.530 3.823231
55.535 3.809013
55.540 3.956242
55.545 3.877904
55.550 3.961786
55.555 4.125592
55.560 4.39704
55.565 4.830987
55.570 5.055504
55.575 4.881194
55.580 4.750384
55.585 4.544856
55.590 4.339577
55.595 4.224591
55.600 3.944807
55.605 3.976563
55.610 4.047662
55.615 4.141002
55.620 4.139349
55.625 4.263538
55.630 4.488976
55.635 4.935187
55.640 5.133992
55.645 5.158568
55.650 5.388512
55.655 5.603089
55.660 5.620568
55.665 5.09817
55.670 4.531655
55.675 4.412951
55.680 4.315587
55.685 4.177015
55.690 4.151167
55.695 4.33438
55.700 4.443115
55.705 4.433159
55.710 4.541819
55.715 4.777193
55.720 5.140615
55.725 5.238981
55.730 5.123231
55.735 4.994045
55.740 5.024208
55.745 4.982985
55.750 4.981034
55.755 4.509099
55.760 4.358621
55.765 4.482493
55.770 4.708022
55.775 4.736256
55.780 4.637727
55.785 4.224301
55.790 4.197357
55.795 4.283254
55.800 4.278954
55.805 4.086334
55.810 4.076744
55.815 4.183628
55.820 4.400333
55.825 4.298683
55.830 4.21943
55.835 3.971515
55.840 3.751797
55.845 3.629341
55.850 3.911371
55.855 4.1861
55.860 4.145366
55.865 4.396985
55.870 4.625124
55.875 5.073869
55.880 5.144229
55.885 5.093592
55.890 4.847027
55.895 4.731919
55.900 4.565352
55.905 4.651466
55.910 4.599844
55.915 4.496499
55.920 4.383956
55.925 4.720883
55.930 5.038984
55.935 5.088917
55.940 5.248747
55.945 5.315597
55.950 5.44894
55.955 5.098925
55.960 4.81125
55.965 4.600227
55.970 4.464803
55.975 4.369481
55.980 4.552779
55.985 4.411248
55.990 4.698751
55.995 4.817653
56.000 4.929579
56.005 5.06949
56.010 5.074592
56.015 5.04156
56.020 4.9788
56.025 4.747472
56.030 4.654264
56.035 4.892884
56.040 4.777467
56.045 4.392885
56.050 4.159715
56.055 4.555791
56.060 4.605804
56.065 4.592765
56.070 4.326583
56.075 4.367849
56.080 4.637217
56.085 4.6428
56.090 4.346949
56.095 4.478607
56.100 4.427692
56.105 4.636282
56.110 4.450527
56.115 4.534681
56.120 4.746076
56.125 4.912737
56.130 5.054817
56.135 4.980562
56.140 4.978986
56.145 5.220487
56.150 4.918325
56.155 5.127158
56.160 5.20262
56.165 5.249687
56.170 5.798939
56.175 5.669638
56.180 5.526391
56.185 5.30306
56.190 4.930519
56.195 4.842576
56.200 4.378892
56.205 3.939557
56.210 3.93081
56.215 3.958325
56.220 4.177861
56.225 4.318633
56.230 4.497655
56.235 4.990216
56.240 5.178905
56.245 5.477857
56.250 5.546058
56.255 5.509337
56.260 5.540538
56.265 5.2794
56.270 4.804392
56.275 4.361355
56.280 4.098895
56.285 4.169229
56.290 4.29755
56.295 4.59138
56.300 4.742157
56.305 4.911671
56.310 4.869887
56.315 5.043465
56.320 4.827496
56.325 4.475839
56.330 4.001073
56.335 3.876055
56.340 4.124855
56.345 4.510378
56.350 4.427455
56.355 4.208623
56.360 4.310233
56.365 4.372222
56.370 4.520291
56.375 4.337854
56.380 4.199204
56.385 4.039625
56.390 4.363177
56.395 4.56229
56.400 4.674767
56.405 4.716939
56.410 5.053746
56.415 5.186113
56.420 5.311872
56.425 5.313482
56.430 5.307851
56.435 5.314499
56.440 5.208871
56.445 4.948117
56.450 5.099918
56.455 5.216297
56.460 5.377571
56.465 5.375611
56.470 5.237606
56.475 5.172417
56.480 4.975113
56.485 4.865042
56.490 4.824315
56.495 4.731628
56.500 4.39932
56.505 4.492834
56.510 4.676763
56.515 4.824628
56.520 4.813246
56.525 4.720865
56.530 4.964615
56.535 5.299566
56.540 5.64123
56.545 5.502038
56.550 5.402705
56.555 5.153936
56.560 5.075787
56.565 5.056113
56.570 4.965145
56.575 4.579193
56.580 4.609327
56.585 4.699015
56.590 4.749315
56.595 4.311333
56.600 4.136083
56.605 4.300201
56.610 4.264668
56.615 4.254276
56.620 4.436542
56.625 4.674256
56.630 4.909132
56.635 4.655159
56.640 4.539409
56.645 4.884604
56.650 4.684694
56.655 4.41241
56.660 4.443021
56.665 4.625217
56.670 4.59673
56.675 4.542669
56.680 4.492585
56.685 4.758791
56.690 5.219834
56.695 4.97582
56.700 5.083587
56.705 5.152724
56.710 5.035358
56.715 4.959745
56.720 4.779184
56.725 4.493998
56.730 4.736171
56.735 4.614758
56.740 4.690696
56.745 4.403865
56.750 4.440853
56.755 4.702463
56.760 4.518519
56.765 4.439374
56.770 4.331323
56.775 4.385398
56.780 4.79655
56.785 4.64098
56.790 4.631397
56.795 4.760039
56.800 4.805533
56.805 4.77209
56.810 4.51634
56.815 4.311274
56.820 4.431803
56.825 4.41153
56.830 4.407677
56.835 4.541378
56.840 4.584627
56.845 4.7664
56.850 4.698221
56.855 4.642186
56.860 4.81371
56.865 4.990657
56.870 4.951026
56.875 4.992893
56.880 5.38251
56.885 5.52013
56.890 5.48351
56.895 5.372123
56.900 5.530399
56.905 5.817012
56.910 5.679264
56.915 5.559851
56.920 5.547179
56.925 5.609442
56.930 5.428302
56.935 4.909191
56.940 4.941719
56.945 5.010636
56.950 4.927656
56.955 4.812486
56.960 4.897246
56.965 5.348403
56.970 5.472018
56.975 5.710037
56.980 5.776729
56.985 5.625119
56.990 5.621479
56.995 5.322996
57.000 5.070646
57.005 5.13285
57.010 4.799942
57.015 4.928437
57.020 5.086538
57.025 5.392088
57.030 5.371272
57.035 5.261342
57.040 5.06999
57.045 4.776481
57.050 4.532327
57.055 4.435285
57.060 4.024654
57.065 4.10845
57.070 4.112395
57.075 4.003086
57.080 4.176424
57.085 4.214578
57.090 4.161955
57.095 4.478326
57.100 4.43363
57.105 4.838703
57.110 5.309511
57.115 5.188134
57.120 5.446632
57.125 5.223532
57.130 5.249619
57.135 5.285245
57.140 5.204571
57.145 5.096268
57.150 5.022238
57.155 5.094035
57.160 5.078682
57.165 4.950744
57.170 4.911979
57.175 4.665427
57.180 4.835911
57.185 4.581699
57.190 4.632504
57.195 4.599083
57.200 4.603892
57.205 4.778188
57.210 4.64572
57.215 4.550865
57.220 4.902203
57.225 4.949454
57.230 5.182573
57.235 5.282786
57.240 4.735607
57.245 4.549697
57.250 4.445917
57.255 4.128594
57.260 3.882793
57.265 3.744685
57.270 3.701957
57.275 3.960731
57.280 4.306616
57.285 4.324173
57.290 4.52683
57.295 4.80738
57.300 4.979032
57.305 4.920641
57.310 5.08111
57.315 5.365665
57.320 5.698751
57.325 6.033273
57.330 6.007939
57.335 6.014661
57.340 6.33073
57.345 6.370641
57.350 6.486468
57.355 6.291074
57.360 6.154592
57.365 5.916679
57.370 5.770128
57.375 5.764075
57.380 5.731745
57.385 5.22041
57.390 5.279215
57.395 4.937407
57.400 5.117439
57.405 4.911025
57.410 4.65021
57.415 4.645144
57.420 4.766311
57.425 4.684828
57.430 5.082878
57.435 5.18526
57.440 5.206379
57.445 5.242367
57.450 5.350796
57.455 5.377355
57.460 5.331037
57.465 5.143939
57.470 5.244363
57.475 5.315618
57.480 5.219126
57.485 5.557813
57.490 5.63333
57.495 5.743823
57.500 5.776813
57.505 5.685912
57.510 5.646662
57.515 5.482503
57.520 4.859512
57.525 4.796206
57.530 4.646201
57.535 4.685805
57.540 4.834175
57.545 4.821669
57.550 5.055529
57.555 5.161233
57.560 5.184933
57.565 5.143042
57.570 4.853042
57.575 5.000597
57.580 5.214807
57.585 5.29114
57.590 5.431196
57.595 5.377394
57.600 5.401763
57.605 5.828557
57.610 5.479894
57.615 5.241397
57.620 5.204437
57.625 5.323551
57.630 5.562079
57.635 5.857646
57.640 5.845264
57.645 5.961642
57.650 5.809289
57.655 5.769667
57.660 5.527769
57.665 5.255832
57.670 4.73283
57.675 4.566469
57.680 4.848205
57.685 5.010196
57.690 5.205519
57.695 5.273047
57.700 5.304889
57.705 5.578894
57.710 5.365736
57.715 5.1574
57.720 5.287561
57.725 4.990903
57.730 5.105258
57.735 5.239198
57.740 5.431257
57.745 5.430033
57.750 5.697243
57.755 5.585546
57.760 5.706967
57.765 5.832688
57.770 5.534714
57.775 5.216568
57.780 5.342858
57.785 4.910395
57.790 4.952989
57.795 4.986167
57.800 4.719473
57.805 4.942912
57.810 5.160772
57.815 5.335172
57.820 5.881175
57.825 6.18117
57.830 6.454924
57.835 6.564018
57.840 6.587483
57.845 6.85841
57.850 6.825749
57.855 6.659504
57.860 6.546829
57.865 6.019438
57.870 6.431367
57.875 6.610091
57.880 6.406953
57.885 6.119612
57.890 6.103107
57.895 6.253311
57.900 6.781731
57.905 6.766695
57.910 6.524718
57.915 6.813471
57.920 7.099569
57.925 7.142648
57.930 7.106834
57.935 6.589388
57.940 6.536614
57.945 6.652636
57.950 6.671479
57.955 6.632703
57.960 6.443773
57.965 6.508373
57.970 6.408899
57.975 6.663166
57.980 6.685641
57.985 6.984385
57.990 6.912537
57.995 7.270981
58.000 7.094563
58.005 7.112083
58.010 7.092571
58.015 6.69953
58.020 6.007086
58.025 5.995775
58.030 6.159359
58.035 6.148366
58.040 6.080786
58.045 6.054054
58.050 6.323238
58.055 6.614107
58.060 6.315614
58.065 6.24201
58.070 6.620068
58.075 6.753957
58.080 6.642488
58.085 6.484615
58.090 6.201603
58.095 6.198804
58.100 5.837878
58.105 5.574388
58.110 5.217885
58.115 5.14643
58.120 5.430161
58.125 5.486208
58.130 5.779919
58.135 5.805456
58.140 5.920749
58.145 6.46957
58.150 6.508103
58.155 6.327343
58.160 6.436675
58.165 5.96523
58.170 5.762003
58.175 5.511719
58.180 5.195045
58.185 5.284045
58.190 5.276541
58.195 5.146378
58.200 5.580978
58.205 6.19012
58.210 6.321719
58.215 6.641892
58.220 6.444563
58.225 6.450198
58.230 6.343155
58.235 5.861718
58.240 5.435255
58.245 5.069652
58.250 4.614366
58.255 4.402638
58.260 4.581697
58.265 4.801531
58.270 4.952939
58.275 5.146373
58.280 5.6565
58.285 6.077319
58.290 6.241096
58.295 6.100159
58.300 6.281941
58.305 6.387388
58.310 6.34903
58.315 5.983519
58.320 5.745979
58.325 5.936967
58.330 5.718955
58.335 5.942595
58.340 5.996272
58.345 5.626474
58.350 5.573528
58.355 5.46359
58.360 5.252637
58.365 5.323183
58.370 5.153375
58.375 5.080794
58.380 5.292687
58.385 5.106947
58.390 5.177462
58.395 5.423185
58.400 5.896205
58.405 5.79001
58.410 5.832478
58.415 5.921653
58.420 6.138892
58.425 6.041659
58.430 5.928314
58.435 5.543509
58.440 5.541543
58.445 5.705526
58.450 5.814541
58.455 5.795575
58.460 5.942717
58.465 6.055509
58.470 6.024983
58.475 6.209734
58.480 6.003312
58.485 5.927753
58.490 5.808194
58.495 5.919965
58.500 5.590637
58.505 5.355337
58.510 5.317578
58.515 5.411349
58.520 5.185605
58.525 4.965659
58.530 4.74711
58.535 5.013909
58.540 5.067972
58.545 5.194466
58.550 5.441954
58.555 5.850515
58.560 6.269587
58.565 6.52197
58.570 6.494631
58.575 6.747544
58.580 6.733119
58.585 6.822365
58.590 6.586206
58.595 6.304908
58.600 6.149491
58.605 6.217152
58.610 6.059728
58.615 5.939163
58.620 5.907804
58.625 6.111459
58.630 6.175508
58.635 6.173227
58.640 6.186803
58.645 6.049867
58.650 5.677984
58.655 5.806173
58.660 6.343774
58.665 6.866314
58.670 7.08755
58.675 7.01863
58.680 7.261507
58.685 7.376365
58.690 7.156004
58.695 6.778098
58.700 6.470533
58.705 6.315853
58.710 6.046967
58.715 5.687703
58.720 5.870324
58.725 5.845075
58.730 5.609245
58.735 5.385191
58.740 4.995262
58.745 5.133312
58.750 5.266533
58.755 5.168637
58.760 5.084432
58.765 4.993092
58.770 5.184933
58.775 5.227518
58.780 5.570148
58.785 5.632717
58.790 5.805847
58.795 6.269358
58.800 6.416394
58.805 6.480739
58.810 6.704403
58.815 6.458827
58.820 6.425487
58.825 6.191947
58.830 5.745715
58.835 5.830818
58.840 5.953998
58.845 5.858887
58.850 5.964843
58.855 5.89246
58.860 5.78301
58.865 5.624712
58.870 5.606583
58.875 5.429858
58.880 5.396046
58.885 5.10092
58.890 5.28434
58.895 5.321327
58.900 5.34186
58.905 4.942234
58.910 4.994
58.915 4.953288
58.920 5.014963
58.925 5.007102
58.930 5.269088
58.935 5.291422
58.940 5.386037
58.945 5.065239
58.950 5.399676
58.955 5.367496
58.960 5.007064
58.965 4.874298
58.970 5.126724
58.975 5.398166
58.980 5.846714
58.985 5.932765
58.990 5.928905
58.995 6.24501
59.000 6.33199
59.005 6.059832
59.010 6.163852
59.015 6.072789
59.020 5.82417
59.025 6.206426
59.030 6.182265
59.035 6.016442
59.040 6.474556
59.045 6.466191
59.050 6.473299
59.055 6.395735
59.060 6.263563
59.065 6.040583
59.070 6.121484
59.075 5.64595
59.080 5.790185
59.085 5.649331
59.090 5.717984
59.095 5.733073
59.100 5.844634
59.105 5.84943
59.110 5.971767
59.115 5.629255
59.120 5.904439
59.125 5.918485
59.130 5.956764
59.135 5.844193
59.140 5.775701
59.145 5.829095
59.150 5.955068
59.155 5.861525
59.160 5.717532
59.165 5.757558
59.170 5.939183
59.175 5.974155
59.180 6.001828
59.185 5.868912
59.190 5.650357
59.195 5.721381
59.200 5.367068
59.205 5.272447
59.210 5.350017
59.215 5.107516
59.220 5.30093
59.225 5.36904
59.230 5.122979
59.235 5.259627
59.240 5.077237
59.245 4.899371
59.250 5.081976
59.255 4.945974
59.260 5.048446
59.265 5.307386
59.270 5.408684
59.275 5.604215
59.280 5.605277
59.285 5.423513
59.290 5.619629
59.295 6.064004
59.300 6.165034
59.305 6.248696
59.310 6.286553
59.315 6.561597
59.320 6.730898
59.325 6.538966
59.330 6.647374
59.335 7.043645
59.340 7.143582
59.345 7.383398
59.350 6.926402
59.355 7.005981
59.360 6.882739
59.365 6.518183
59.370 6.055577
59.375 5.792978
59.380 5.666343
59.385 5.89992
59.390 5.803883
59.395 5.617845
59.400 5.532766
59.405 5.509022
59.410 5.318333
59.415 5.228041
59.420 5.15818
59.425 5.303874
59.430 5.440967
59.435 5.464252
59.440 5.481102
59.445 5.519357
59.450 5.604383
59.455 5.806045
59.460 5.921775
59.465 6.22699
59.470 6.224194
59.475 6.384799
59.480 6.295969
59.485 6.022464
59.490 6.023934
59.495 5.789651
59.500 5.410291
59.505 5.430655
59.510 5.880105
59.515 6.343411
59.520 6.546735
59.525 6.53387
59.530 6.738382
59.535 7.095832
59.540 7.252368
59.545 6.786162
59.550 6.535361
59.555 6.606752
59.560 6.626869
59.565 6.362258
59.570 6.111044
59.575 5.863983
59.580 5.479816
59.585 5.390099
59.590 5.162815
59.595 5.210373
59.600 5.569712
59.605 5.511782
59.610 5.792649
59.615 6.124346
59.620 6.190653
59.625 6.505932
59.630 6.382596
59.635 5.86653
59.640 6.059566
59.645 5.951023
59.650 6.083081
59.655 6.084582
59.660 6.041734
59.665 6.247718
59.670 6.601377
59.675 6.612459
59.680 6.747062
59.685 6.755763
59.690 6.777575
59.695 6.714572
59.700 6.602697
59.705 6.363757
59.710 6.492592
59.715 6.281437
59.720 6.261981
59.725 6.108223
59.730 6.155645
59.735 6.288179
59.740 6.346381
59.745 6.48327
59.750 6.657225
59.755 6.635116
59.760 6.569185
59.765 6.045711
59.770 5.740801
59.775 5.594798
59.780 5.391689
59.785 5.562135
59.790 5.542721
59.795 5.803017
59.800 6.171476
59.805 6.055372
59.810 6.303291
59.815 6.35575
59.820 5.942641
59.825 6.130966
59.830 6.144681
59.835 6.15595
59.840 6.127517
59.845 6.141008
59.850 5.882518
59.855 6.435024
59.860 6.456454
59.865 6.428058
59.870 6.258191
59.875 6.31791
59.880 5.986743
59.885 5.844513
59.890 5.15444
59.895 4.802405
59.900 4.385281
59.905 4.602426
59.910 5.005064
59.915 5.551441
59.920 5.577096
59.925 5.751578
59.930 6.07186
59.935 6.088598
59.940 5.967903
59.945 5.400686
59.950 5.076324
59.955 5.255985
59.960 5.346641
59.965 5.280472
59.970 5.520755
59.975 5.691762
59.980 5.795797
59.985 6.102517
59.990 6.161611
59.995 6.245955
60.000 6.295831
60.005 5.911523
60.010 5.745674
60.015 5.50105
60.020 4.961628
60.025 4.822242
60.030 4.414836
60.035 4.193122
60.040 4.201174
60.045 4.267464
60.050 4.972221
60.055 5.171409
60.060 5.200727
60.065 5.338008
60.070 5.283413
60.075 5.579085
60.080 5.715393
60.085 5.540563
60.090 5.575387
60.095 5.603678
60.100 5.530683
60.105 5.70872
60.110 5.798659
60.115 5.572246
60.120 5.35863
60.125 5.480194
60.130 5.847694
60.135 5.917923
60.140 5.914423
60.145 5.697093
60.150 5.743984
60.155 5.866252
60.160 5.801968
60.165 5.905256
60.170 6.249733
60.175 6.193409
60.180 6.259299
60.185 6.056419
60.190 5.823312
60.195 5.778036
60.200 5.63586
60.205 5.49015
60.210 5.836114
60.215 6.16523
60.220 6.07179
60.225 5.917732
60.230 6.085513
60.235 5.884861
60.240 5.904123
60.245 5.74273
60.250 5.459445
60.255 5.820805
60.260 5.908184
60.265 5.443707
60.270 5.519989
60.275 5.416183
60.280 5.537804
60.285 5.418345
60.290 5.30922
60.295 5.408305
60.300 5.517538
60.305 5.437948
60.310 5.199697
60.315 5.051836
60.320 5.451592
60.325 5.553109
60.330 5.983567
60.335 6.025623
60.340 5.845315
60.345 5.878362
60.350 5.580545
60.355 5.426379
60.360 5.245098
60.365 4.992566
60.370 5.21946
60.375 5.348101
60.380 5.470998
60.385 5.706344
60.390 5.841405
60.395 5.518445
60.400 5.271667
60.405 5.155579
60.410 5.064632
60.415 4.999884
60.420 4.787056
60.425 5.181949
60.430 5.642374
60.435 5.804667
60.440 5.923785
60.445 6.045778
60.450 5.888664
60.455 5.864904
60.460 5.454059
60.465 5.618499
60.470 5.658425
60.475 5.516808
60.480 5.633061
60.485 5.874556
60.490 5.900476
60.495 5.733078
60.500 5.359309
60.505 5.545838
60.510 5.600035
60.515 5.666066
60.520 5.416658
60.525 5.496448
60.530 5.631092
60.535 5.538637
60.540 5.304047
60.545 5.355496
60.550 5.252239
60.555 5.539948
60.560 5.625143
60.565 5.737111
60.570 5.702816
60.575 5.302354
60.580 5.065227
60.585 4.867498
60.590 4.617521
60.595 4.545422
60.600 4.366579
60.605 4.540536
60.610 4.982666
60.615 5.206847
60.620 5.192662
60.625 5.146634
60.630 5.156232
60.635 5.131273
60.640 5.015018
60.645 4.66065
60.650 4.52823
60.655 4.866972
60.660 4.804837
60.665 4.557861
60.670 4.808599
60.675 4.982507
60.680 5.296558
60.685 5.220707
60.690 5.04651
60.695 5.201302
60.700 5.21406
60.705 5.043474
60.710 5.229317
60.715 5.546755
60.720 5.921313
60.725 6.381648
60.730 6.303284
60.735 6.33959
60.740 6.202707
60.745 5.661809
60.750 5.459092
60.755 5.449197
60.760 5.514293
60.765 6.084633
60.770 6.05106
60.775 6.129796
60.780 6.702747
60.785 6.80007
60.790 6.68315
60.795 6.228866
60.800 5.943351
60.805 6.174295
60.810 6.354347
60.815 6.211129
60.820 6.114158
60.825 6.23599
60.830 6.397155
60.835 6.256564
60.840 6.094929
60.845 5.955829
60.850 5.790334
60.855 5.821084
60.860 5.712462
60.865 5.618704
60.870 5.542129
60.875 5.496867
60.880 5.28919
60.885 5.085016
60.890 5.026184
60.895 4.919142
60.900 5.166533
60.905 5.43629
60.910 5.390735
60.915 5.69424
60.920 6.07291
60.925 6.200656
60.930 6.155248
60.935 6.179284
60.940 6.01699
60.945 5.845563
60.950 5.849988
60.955 5.806986
60.960 5.426554
60.965 5.298443
60.970 5.255102
60.975 5.250132
60.980 5.812124
60.985 5.437634
60.990 5.138623
60.995 5.294595
61.000 5.225175
61.005 5.181503
61.010 5.21488
61.015 5.067227
61.020 5.135317
61.025 5.510811
61.030 5.665801
61.035 5.67345
61.040 5.672771
61.045 5.563399
61.050 5.755447
61.055 5.750808
61.060 5.352638
61.065 5.325692
61.070 5.721141
61.075 5.598629
61.080 5.84005
61.085 5.659081
61.090 5.872277
61.095 6.140508
61.100 5.923718
61.105 5.946534
61.110 6.068308
61.115 6.123214
61.120 6.137481
61.125 6.130039
61.130 6.08321
61.135 6.270503
61.140 6.185018
61.145 5.932894
61.150 5.399689
61.155 5.043481
61.160 5.113097
61.165 5.127676
61.170 4.860756
61.175 4.779156
61.180 5.100989
61.185 5.363698
61.190 5.663929
61.195 5.490998
61.200 5.881776
61.205 6.443771
61.210 6.446223
61.215 6.440268
61.220 6.550288
61.225 6.432485
61.230 6.602857
61.235 6.240134
61.240 5.824234
61.245 6.017295
61.250 6.044397
61.255 6.119232
61.260 6.018847
61.265 6.019987
61.270 6.019685
61.275 6.059658
61.280 6.031152
61.285 6.164104
61.290 6.084769
61.295 6.055491
61.300 6.048302
61.305 6.417488
61.310 6.426909
61.315 6.091327
61.320 6.024056
61.325 6.275358
61.330 6.380096
61.335 6.175654
61.340 5.823873
61.345 5.7785
61.350 5.859087
61.355 5.46091
61.360 5.440156
61.365 5.514087
61.370 5.466734
61.375 5.563805
61.380 5.416921
61.385 5.255319
61.390 5.927272
61.395 5.87464
61.400 5.889173
61.405 6.064174
61.410 6.143801
61.415 6.235884
61.420 6.005131
61.425 5.426857
61.430 5.096272
61.435 5.290049
61.440 5.160408
61.445 5.019399
61.450 5.048232
61.455 5.271741
61.460 5.192061
61.465 5.151967
61.470 4.908325
61.475 4.940564
61.480 4.762094
61.485 4.797287
61.490 5.130002
61.495 5.312308
61.500 5.306533
61.505 5.137678
61.510 4.854197
61.515 5.121961
61.520 5.397208
61.525 5.489753
61.530 5.905869
61.535 6.070748
61.540 6.236519
61.545 6.451894
61.550 6.125657
61.555 5.876759
61.560 5.659691
61.565 5.384981
61.570 5.349558
61.575 5.185356
61.580 5.400311
61.585 5.525568
61.590 5.242243
61.595 5.206152
61.600 5.363563
61.605 5.086813
61.610 5.102943
61.615 5.010863
61.620 5.069838
61.625 5.129858
61.630 4.853217
61.635 4.734385
61.640 5.279207
61.645 5.252705
61.650 5.008135
61.655 5.115987
61.660 5.3617
61.665 5.618636
61.670 5.865381
61.675 5.691026
61.680 6.107974
61.685 6.170129
61.690 5.931889
61.695 5.788342
61.700 5.840468
61.705 5.668237
61.710 5.600247
61.715 5.350714
61.720 5.698057
61.725 6.288416
61.730 6.322408
61.735 6.177523
61.740 6.200105
61.745 6.293357
61.750 6.175373
61.755 5.841509
61.760 5.345942
61.765 5.349185
61.770 5.682038
61.775 5.704545
61.780 5.529037
61.785 5.826589
61.790 5.916705
61.795 6.336478
61.800 6.617668
61.805 6.34479
61.810 6.395462
61.815 6.376611
61.820 6.418374
61.825 6.297529
61.830 6.151963
61.835 5.927311
61.840 5.838344
61.845 6.060123
61.850 6.265469
61.855 6.211384
61.860 6.414665
61.865 6.472536
61.870 6.771892
61.875 7.030365
61.880 7.148863
61.885 7.300281
61.890 7.386853
61.895 7.799763
61.900 7.765666
61.905 7.582263
61.910 7.490324
61.915 7.274823
61.920 7.597122
61.925 7.416397
61.930 6.763968
61.935 6.714116
61.940 6.677308
61.945 6.69702
61.950 6.4514
61.955 6.213493
61.960 6.630456
61.965 6.681538
61.970 6.716632
61.975 6.578808
61.980 6.52367
61.985 6.349254
61.990 6.03109
61.995 5.740165
62.000 5.871041
62.005 5.808499
62.010 6.049833
62.015 6.118559
62.020 6.149349
62.025 6.080524
62.030 6.037694
62.035 5.600468
62.040 5.596782
62.045 5.409173
62.050 5.371493
62.055 5.476708
62.060 5.672269
62.065 5.6393
62.070 5.731606
62.075 5.719608
62.080 5.53988
62.085 5.390722
62.090 5.333657
62.095 5.09229
62.100 4.898707
62.105 4.931686
62.110 4.927335
62.115 5.161492
62.120 5.232261
62.125 5.458133
62.130 5.743576
62.135 5.758314
62.140 6.044582
62.145 6.232232
62.150 6.286386
62.155 6.464072
62.160 6.225746
62.165 6.062272
62.170 6.243018
62.175 6.059402
62.180 5.557446
62.185 5.173474
62.190 4.737491
62.195 4.723946
62.200 4.827959
62.205 4.780027
62.210 4.673911
62.215 4.677629
62.220 4.883061
62.225 5.0917
62.230 5.244307
62.235 5.083141
62.240 5.119877
62.245 5.330577
62.250 5.758193
62.255 5.771384
62.260 5.790931
62.265 5.673507
62.270 5.831294
62.275 5.984712
62.280 5.979379
62.285 5.690167
62.290 5.502628
62.295 5.443623
62.300 5.611908
62.305 5.716777
62.310 5.369996
62.315 5.515372
62.320 5.713827
62.325 5.974426
62.330 5.997006
62.335 5.832702
62.340 5.76529
62.345 5.902497
62.350 5.58135
62.355 5.434406
62.360 5.479963
62.365 5.638724
62.370 5.576992
62.375 5.126659
62.380 5.163545
62.385 5.290741
62.390 5.460824
62.395 5.422995
62.400 5.635979
62.405 5.96881
62.410 6.551871
62.415 6.772268
62.420 7.025782
62.425 7.135104
62.430 7.029212
62.435 6.731929
62.440 6.582884
62.445 6.458767
62.450 6.086697
62.455 5.823461
62.460 5.952183
62.465 6.143181
62.470 6.119489
62.475 6.289949
62.480 6.168709
62.485 6.316435
62.490 6.192255
62.495 5.827492
62.500 5.723026
62.505 5.748992
62.510 5.407536
62.515 5.410949
62.520 5.480021
62.525 5.765137
62.530 5.977928
62.535 6.103621
62.540 6.197937
62.545 6.679088
62.550 6.71688
62.555 6.643286
62.560 6.556071
62.565 6.444358
62.570 6.405559
62.575 6.427104
62.580 6.28719
62.585 6.558529
62.590 6.955087
62.595 7.255582
62.600 7.342723
62.605 7.323148
62.610 7.096162
62.615 7.502843
62.620 7.12961
62.625 6.744231
62.630 6.403364
62.635 6.488984
62.640 6.554743
62.645 6.517097
62.650 6.273726
62.655 6.328307
62.660 6.096791
62.665 6.152831
62.670 6.174999
62.675 6.333301
62.680 6.352971
62.685 6.293723
62.690 6.598708
62.695 7.278494
62.700 7.302052
62.705 7.404882
62.710 7.819753
62.715 8.140408
62.720 8.144868
62.725 7.794916
62.730 7.527888
62.735 7.651288
62.740 7.465158
62.745 7.148607
62.750 7.239336
62.755 7.417511
62.760 7.231256
62.765 7.228824
62.770 7.196729
62.775 7.082626
62.780 6.903235
62.785 6.401601
62.790 6.352032
62.795 6.654529
62.800 6.766971
62.805 6.788555
62.810 6.838156
62.815 6.894619
62.820 6.953905
62.825 7.092019
62.830 7.146205
62.835 6.893127
62.840 6.808863
62.845 6.911241
62.850 6.796382
62.855 6.734131
62.860 6.614519
62.865 6.947473
62.870 7.251549
62.875 7.653434
62.880 7.77974
62.885 7.811717
62.890 7.865142
62.895 7.455487
62.900 6.913136
62.905 6.505852
62.910 6.031953
62.915 5.995096
62.920 6.025304
62.925 6.219145
62.930 6.419482
62.935 6.390465
62.940 6.548858
62.945 6.709706
62.950 6.901219
62.955 7.139384
62.960 6.934464
62.965 6.781054
62.970 6.89185
62.975 6.951052
62.980 6.790612
62.985 6.615747
62.990 6.242465
62.995 6.027406
63.000 6.116608
63.005 6.229954
63.010 6.395288
63.015 6.33655
63.020 6.071359
63.025 6.315658
63.030 6.538817
63.035 6.358719
63.040 6.07281
63.045 5.668079
63.050 5.824671
63.055 5.858646
63.060 5.624983
63.065 6.018767
63.070 6.311863
63.075 6.292046
63.080 6.237243
63.085 6.03021
63.090 5.9685
63.095 5.994088
63.100 5.82712
63.105 5.713924
63.110 5.646783
63.115 5.816241
63.120 5.805979
63.125 5.905775
63.130 6.102639
63.135 5.890262
63.140 6.139882
63.145 5.995872
63.150 5.799666
63.155 5.720706
63.160 5.736906
63.165 5.713956
63.170 5.334765
63.175 4.99631
63.180 5.418824
63.185 5.370894
63.190 5.317277
63.195 5.029403
63.200 5.283208
63.205 5.472878
63.210 5.684024
63.215 5.788245
63.220 5.954318
63.225 6.209331
63.230 6.556508
63.235 6.358026
63.240 6.222586
63.245 6.274116
63.250 6.584502
63.255 6.691609
63.260 6.389226
63.265 6.217193
63.270 6.006519
63.275 5.909427
63.280 5.791023
63.285 5.181664
63.290 5.079923
63.295 5.361181
63.300 5.270911
63.305 5.198338
63.310 5.845947
63.315 6.13395
63.320 6.383262
63.325 6.284272
63.330 6.497056
63.335 6.863138
63.340 6.909419
63.345 6.465816
63.350 6.567851
63.355 6.856107
63.360 6.944132
63.365 6.529472
63.370 6.59118
63.375 6.571522
63.380 6.612728
63.385 6.447301
63.390 5.733301
63.395 5.613515
63.400 5.68231
63.405 5.382472
63.410 5.595197
63.415 5.552372
63.420 5.647216
63.425 5.912474
63.430 6.089513
63.435 6.242978
63.440 6.237529
63.445 6.071043
63.450 5.838542
63.455 5.664719
63.460 5.5671
63.465 6.133163
63.470 6.276123
63.475 6.158467
63.480 5.862189
63.485 5.912444
63.490 6.116971
63.495 6.399537
63.500 5.624891
63.505 5.370529
63.510 5.688153
63.515 6.106254
63.520 6.146493
63.525 5.995885
63.530 6.04209
63.535 5.937739
63.540 5.969635
63.545 5.839289
63.550 5.993475
63.555 6.215762
63.560 6.428036
63.565 6.35312
63.570 6.58169
63.575 6.735948
63.580 6.766177
63.585 6.481674
63.590 6.213621
63.595 5.741191
63.600 5.978879
63.605 6.02263
63.610 5.600412
63.615 5.541477
63.620 5.671035
63.625 5.61968
63.630 5.961396
63.635 5.861587
63.640 5.873986
63.645 6.211513
63.650 6.546138
63.655 6.739869
63.660 6.837214
63.665 6.763863
63.670 6.495746
63.675 6.632949
63.680 6.553002
63.685 6.538498
63.690 6.337008
63.695 6.598752
63.700 6.659918
63.705 6.594991
63.710 6.27153
63.715 6.068527
63.720 5.611286
63.725 5.586122
63.730 5.695272
63.735 5.566666
63.740 5.557171
63.745 5.811648
63.750 5.876739
63.755 6.072636
63.760 6.328382
63.765 6.212174
63.770 6.438597
63.775 6.688202
63.780 6.742505
63.785 6.584288
63.790 6.536042
63.795 6.207766
63.800 6.178908
63.805 5.883908
63.810 5.593351
63.815 5.475245
63.820 5.625254
63.825 5.601756
63.830 5.44325
63.835 5.339402
63.840 5.372226
63.845 5.689014
63.850 5.99544
63.855 6.073135
63.860 6.243758
63.865 6.32982
63.870 6.456417
63.875 6.306704
63.880 6.130769
63.885 5.820911
63.890 5.661998
63.895 5.688661
63.900 5.767697
63.905 5.657248
63.910 5.570107
63.915 5.56689
63.920 5.477981
63.925 5.689983
63.930 5.922369
63.935 6.036777
63.940 6.419013
63.945 6.652647
63.950 6.840423
63.955 6.927663
63.960 6.675751
63.965 6.400972
63.970 6.5064
63.975 6.401184
63.980 6.284583
63.985 6.283195
63.990 6.549649
63.995 6.644746
64.000 6.687728
64.005 6.401685
64.010 6.586659
64.015 6.823259
64.020 6.870217
64.025 6.881723
64.030 7.110173
64.035 7.027516
64.040 6.638276
64.045 6.668823
64.050 6.703101
64.055 6.475176
64.060 6.080392
64.065 5.848898
64.070 6.283437
64.075 6.320969
64.080 5.72683
64.085 5.488439
64.090 5.799403
64.095 6.249765
64.100 6.426553
64.105 6.077036
64.110 6.531521
64.115 6.811139
64.120 6.970287
64.125 6.729887
64.130 6.433656
64.135 6.253188
64.140 6.34655
64.145 6.025945
64.150 6.021858
64.155 5.836887
64.160 6.192525
64.165 6.517104
64.170 6.662053
64.175 6.687043
64.180 6.578467
64.185 6.675092
64.190 7.138026
64.195 6.784194
64.200 6.527455
64.205 6.271066
64.210 6.478093
64.215 6.668068
64.220 6.662388
64.225 6.534539
64.230 6.681364
64.235 6.518598
64.240 6.838536
64.245 6.744109
64.250 6.812752
64.255 6.746227
64.260 6.896667
64.265 7.09103
64.270 7.340968
64.275 7.206431
64.280 7.304368
64.285 7.342926
64.290 7.430756
64.295 7.150429
64.300 7.15406
64.305 7.505093
64.310 7.344097
64.315 7.795302
64.320 8.283779
64.325 8.309334
64.330 8.250175
64.335 8.076515
64.340 7.859492
64.345 7.810221
64.350 7.671548
64.355 7.423976
64.360 7.525797
64.365 7.808613
64.370 8.066247
64.375 8.438277
64.380 8.94891
64.385 8.988341
64.390 8.969003
64.395 9.284906
64.400 9.330936
64.405 9.364195
64.410 9.357243
64.415 9.103506
64.420 8.888456
64.425 8.834877
64.430 8.59689
64.435 8.63808
64.440 8.416828
64.445 8.285424
64.450 8.445259
64.455 8.642801
64.460 8.709929
64.465 8.511464
64.470 8.251195
64.475 8.63145
64.480 8.58779
64.485 8.634378
64.490 8.571772
64.495 8.695965
64.500 9.045867
64.505 9.11322
64.510 8.821941
64.515 8.537345
64.520 8.247708
64.525 8.122219
64.530 8.030428
64.535 7.834871
64.540 7.639557
64.545 7.629342
64.550 7.715117
64.555 8.028094
64.560 8.426053
64.565 8.439458
64.570 8.74983
64.575 8.676808
64.580 8.614165
64.585 8.641675
64.590 8.803113
64.595 8.534937
64.600 8.342829
64.605 8.195189
64.610 8.325408
64.615 8.633574
64.620 8.826797
64.625 8.361279
64.630 8.011505
64.635 7.826309
64.640 7.57783
64.645 7.592549
64.650 7.146002
64.655 6.839162
64.660 6.652807
64.665 6.637551
64.670 6.480235
64.675 6.656226
64.680 6.76399
64.685 7.49003
64.690 7.525773
64.695 7.475184
64.700 7.902095
64.705 8.056257
64.710 7.658614
64.715 7.616578
64.720 7.304885
64.725 7.341283
64.730 7.449569
64.735 7.133972
64.740 7.659904
64.745 8.066623
64.750 7.881258
64.755 7.585903
64.760 7.551122
64.765 7.423548
64.770 7.252562
64.775 6.857089
64.780 6.711568
64.785 6.518046
64.790 6.381642
64.795 6.469316
64.800 6.72901
64.805 6.723861
64.810 6.918979
64.815 6.926072
64.820 7.07466
64.825 7.289124
64.830 7.388631
64.835 7.271717
64.840 7.236515
64.845 7.042894
64.850 7.283575
64.855 6.998416
64.860 6.715908
64.865 6.171133
64.870 6.216619
64.875 6.52032
64.880 6.487422
64.885 6.155325
64.890 6.397511
64.895 6.875219
64.900 7.499107
64.905 7.547634
64.910 7.174527
64.915 6.94471
64.920 6.945801
64.925 7.133738
64.930 7.21347
64.935 6.74294
64.940 6.726587
64.945 6.960798
64.950 7.328
64.955 7.514329
64.960 7.187535
64.965 6.98657
64.970 7.228193
64.975 7.158057
64.980 7.069438
64.985 7.245628
64.990 7.664783
64.995 7.93069
65.000 7.974327
65.005 7.765168
65.010 7.587499
65.015 7.672466
65.020 7.462002
65.025 7.303372
65.030 7.743578
65.035 8.000892
65.040 8.26065
65.045 8.953835
65.050 9.15814
65.055 9.123432
65.060 8.939008
65.065 8.286068
65.070 8.02176
65.075 7.881934
65.080 7.39853
65.085 7.391121
65.090 7.749079
65.095 8.12528
65.100 7.857326
65.105 7.72941
65.110 7.937874
65.115 7.942598
65.120 8.210613
65.125 7.81051
65.130 7.434573
65.135 7.905789
65.140 8.106638
65.145 7.885411
65.150 8.326509
65.155 7.987152
65.160 8.010008
65.165 8.096066
65.170 7.799428
65.175 7.781788
65.180 8.200131
65.185 8.263417
65.190 8.582875
65.195 8.890611
65.200 9.129229
65.205 9.201856
65.210 9.107135
65.215 8.76943
65.220 8.373208
65.225 7.74013
65.230 7.431092
65.235 7.391237
65.240 7.402471
65.245 7.650922
65.250 7.669492
65.255 7.674603
65.260 7.996375
65.265 7.922938
65.270 7.978994
65.275 8.050117
65.280 8.007051
65.285 8.088362
65.290 7.966673
65.295 7.872243
65.300 8.058374
65.305 8.03535
65.310 7.596883
65.315 7.377451
65.320 7.246826
65.325 7.287952
65.330 7.256418
65.335 7.053188
65.340 7.214905
65.345 7.820107
65.350 8.335933
65.355 8.6275
65.360 8.869174
65.365 8.780351
65.370 8.737433
65.375 8.47644
65.380 8.52046
65.385 8.335609
65.390 8.449134
65.395 8.521294
65.400 8.842346
65.405 9.079787
65.410 9.390911
65.415 9.250016
65.420 9.325651
65.425 8.917688
65.430 8.504849
65.435 8.214505
65.440 8.241927
65.445 8.060018
65.450 8.060575
65.455 8.154828
65.460 8.383594
65.465 8.681033
65.470 8.698875
65.475 8.68591
65.480 8.86789
65.485 9.081776
65.490 8.818572
65.495 8.97757
65.500 8.914354
65.505 9.266806
65.510 9.300359
65.515 8.982289
65.520 8.800214
65.525 8.685706
65.530 8.433755
65.535 8.661738
65.540 8.480515
65.545 8.456056
65.550 8.978354
65.555 8.997611
65.560 9.434757
65.565 9.833309
65.570 9.649423
65.575 9.621486
65.580 9.332935
65.585 8.813167
65.590 8.487365
65.595 7.8417
65.600 7.705109
65.605 8.331079
65.610 8.112417
65.615 8.659629
65.620 8.633257
65.625 9.132184
65.630 9.592516
65.635 9.387422
65.640 9.054567
65.645 9.401287
65.650 9.311876
65.655 9.658755
65.660 9.548629
65.665 9.224565
65.670 9.052748
65.675 8.784053
65.680 8.325563
65.685 7.987992
65.690 7.732349
65.695 7.5482
65.700 7.690237
65.705 7.863679
65.710 8.49871
65.715 9.048165
65.720 9.075065
65.725 9.103126
65.730 9.276297
65.735 9.493365
65.740 9.510653
65.745 9.097336
65.750 8.708884
65.755 8.868722
65.760 9.095304
65.765 8.973886
65.770 8.831088
65.775 8.793858
65.780 8.65607
65.785 8.657553
65.790 8.466693
65.795 8.277726
65.800 8.140306
65.805 7.93432
65.810 7.686697
65.815 7.777619
65.820 7.505335
65.825 7.320861
65.830 6.988092
65.835 7.199919
65.840 7.091141
65.845 6.935062
65.850 6.928622
65.855 7.089667
65.860 7.28295
65.865 7.469816
65.870 7.101894
65.875 6.965672
65.880 6.890659
65.885 6.744698
65.890 6.336717
65.895 6.272917
65.900 6.50719
65.905 6.772567
65.910 6.913538
65.915 7.207545
65.920 7.177042
65.925 7.455333
65.930 7.469314
65.935 7.414603
65.940 7.398957
65.945 7.017384
65.950 6.892826
65.955 7.0886
65.960 6.941282
65.965 6.88406
65.970 6.627921
65.975 6.684803
65.980 7.217916
65.985 7.2865
65.990 7.454137
65.995 7.710443
66.000 7.680276
66.005 7.96835
66.010 7.889776
66.015 7.747548
66.020 7.65596
66.025 7.441387
66.030 7.428312
66.035 7.758639
66.040 7.518254
66.045 7.970663
66.050 8.171432
66.055 7.997553
66.060 7.992299
66.065 8.077167
66.070 7.886947
66.075 7.894526
66.080 7.520202
66.085 7.6625
66.090 8.023364
66.095 8.010243
66.100 7.499814
66.105 7.394242
66.110 7.537602
66.115 7.284208
66.120 6.579775
66.125 6.539864
66.130 6.665602
66.135 6.926421
66.140 7.023019
66.145 6.967622
66.150 7.302179
66.155 7.662098
66.160 7.738304
66.165 7.422719
66.170 7.137438
66.175 7.00193
66.180 7.065996
66.185 7.07068
66.190 7.376893
66.195 7.298632
66.200 7.597847
66.205 7.678811
66.210 7.260271
66.215 7.315506
66.220 7.231723
66.225 6.940536
66.230 7.253539
66.235 6.960572
66.240 7.222008
66.245 7.555807
66.250 7.290422
66.255 7.103038
66.260 7.000678
66.265 6.726435
66.270 6.915453
66.275 7.000633
66.280 6.843514
66.285 6.958257
66.290 7.158596
66.295 7.202098
66.300 7.072049
66.305 6.818294
66.310 6.558228
66.315 6.180229
66.320 6.253263
66.325 6.10621
66.330 6.186993
66.335 6.235492
66.340 6.481961
66.345 6.33205
66.350 6.477466
66.355 6.185065
66.360 6.291131
66.365 6.190927
66.370 6.387558
66.375 6.182315
66.380 6.308418
66.385 6.359782
66.390 6.308152
66.395 6.152633
66.400 6.300359
66.405 6.427083
66.410 6.555828
66.415 6.535737
66.420 6.699613
66.425 7.078255
66.430 6.92165
66.435 6.538128
66.440 6.380534
66.445 6.140413
66.450 6.397703
66.455 6.402699
66.460 6.473414
66.465 6.704228
66.470 6.941896
66.475 6.968491
66.480 7.509495
66.485 7.754033
66.490 7.925092
66.495 7.554303
66.500 7.647758
66.505 7.938963
66.510 7.849463
66.515 7.671379
66.520 7.1436
66.525 6.844256
66.530 7.348829
66.535 7.315007
66.540 7.206982
66.545 7.415371
66.550 7.581151
66.555 7.725577
66.560 8.028804
66.565 7.894401
66.570 7.914869
66.575 7.637729
66.580 6.975716
66.585 6.310394
66.590 6.137688
66.595 5.945837
66.600 5.4325
66.605 5.28457
66.610 5.429838
66.615 5.759581
66.620 6.35822
66.625 6.445445
66.630 6.634528
66.635 6.876219
66.640 6.842684
66.645 6.771205
66.650 6.477314
66.655 6.289235
66.660 6.183305
66.665 5.971992
66.670 5.891557
66.675 5.88932
66.680 6.187189
66.685 6.300289
66.690 6.730371
66.695 7.044533
66.700 7.090648
66.705 7.195722
66.710 7.186729
66.715 7.154098
66.720 7.340613
66.725 6.889647
66.730 6.544431
66.735 6.489175
66.740 6.26044
66.745 6.309271
66.750 6.449431
66.755 6.155109
66.760 6.431543
66.765 6.537912
66.770 6.562416
66.775 6.861726
66.780 6.63426
66.785 6.536876
66.790 6.695926
66.795 6.77486
66.800 6.756205
66.805 6.960402
66.810 6.821616
66.815 6.80909
66.820 6.693063
66.825 6.773026
66.830 6.780372
66.835 7.102423
66.840 6.966985
66.845 7.339623
66.850 7.440908
66.855 7.285918
66.860 7.187295
66.865 7.388454
66.870 7.250234
66.875 7.312515
66.880 7.011778
66.885 7.291744
66.890 7.541125
66.895 7.724393
66.900 7.338996
66.905 7.45849
66.910 7.734221
66.915 7.962973
66.920 7.819747
66.925 7.96354
66.930 7.595617
66.935 7.550579
66.940 7.530732
66.945 7.383074
66.950 7.244823
66.955 7.187669
66.960 7.105214
66.965 7.43224
66.970 7.596573
66.975 7.961325
66.980 8.158287
66.985 8.525687
66.990 8.891561
66.995 8.914729
67.000 8.897532
67.005 9.02571
67.010 8.844861
67.015 8.089055
67.020 7.43821
67.025 7.645733
67.030 7.834226
67.035 7.891616
67.040 7.555741
67.045 7.469124
67.050 8.517294
67.055 8.710373
67.060 9.127968
67.065 9.268323
67.070 9.388524
67.075 9.551345
67.080 9.574158
67.085 9.417776
67.090 9.276834
67.095 8.751489
67.100 8.800622
67.105 8.487425
67.110 8.025213
67.115 7.834867
67.120 7.898004
67.125 7.631651
67.130 7.316247
67.135 6.756422
67.140 6.875692
67.145 7.451595
67.150 7.405128
67.155 7.109901
67.160 7.384955
67.165 7.630605
67.170 8.261642
67.175 8.298562
67.180 8.179846
67.185 8.536441
67.190 9.019647
67.195 8.974389
67.200 8.71045
67.205 8.295023
67.210 8.085791
67.215 8.103024
67.220 8.157186
67.225 7.995319
67.230 7.982753
67.235 7.995848
67.240 8.076022
67.245 8.217705
67.250 7.990886
67.255 8.068696
67.260 7.913886
67.265 7.885386
67.270 8.045095
67.275 8.19555
67.280 7.996475
67.285 7.68277
67.290 7.242975
67.295 7.094663
67.300 7.266171
67.305 6.971995
67.310 6.769502
67.315 6.882114
67.320 7.156676
67.325 6.92053
67.330 7.070525
67.335 6.853452
67.340 7.029932
67.345 6.8778
67.350 7.007101
67.355 7.264846
67.360 7.749823
67.365 7.900581
67.370 7.907217
67.375 7.921557
67.380 8.200561
67.385 8.048636
67.390 7.715183
67.395 7.45934
67.400 7.60045
67.405 7.834354
67.410 7.670469
67.415 7.594118
67.420 7.321919
67.425 7.188435
67.430 6.765481
67.435 6.581164
67.440 6.570976
67.445 6.686272
67.450 6.891825
67.455 7.15024
67.460 7.752115
67.465 8.061345
67.470 7.784238
67.475 7.380187
67.480 7.47974
67.485 7.431011
67.490 7.515408
67.495 7.246446
67.500 7.503096
67.505 8.057717
67.510 8.282791
67.515 8.685399
67.520 8.583431
67.525 8.170427
67.530 7.656384
67.535 7.446462
67.540 7.380157
67.545 7.259871
67.550 7.085846
67.555 7.546003
67.560 7.936362
67.565 8.029478
67.570 7.875049
67.575 7.874245
67.580 7.965088
67.585 7.474287
67.590 6.705069
67.595 6.520655
67.600 6.475224
67.605 6.373639
67.610 6.103777
67.615 5.733233
67.620 6.313363
67.625 6.449993
67.630 6.525722
67.635 6.559098
67.640 6.980902
67.645 7.201921
67.650 7.133834
67.655 6.783144
67.660 6.803136
67.665 6.696358
67.670 6.673903
67.675 6.24539
67.680 6.421102
67.685 6.57286
67.690 6.755821
67.695 6.840279
67.700 7.095964
67.705 7.231578
67.710 7.352681
67.715 7.12984
67.720 7.078439
67.725 7.301813
67.730 7.090778
67.735 7.074598
67.740 6.831215
67.745 6.892845
67.750 6.998259
67.755 7.296121
67.760 7.344793
67.765 7.393045
67.770 7.515555
67.775 7.951683
67.780 8.130902
67.785 8.177858
67.790 7.855898
67.795 7.597658
67.800 7.906535
67.805 7.731368
67.810 7.820473
67.815 7.913386
67.820 8.003392
67.825 8.153193
67.830 8.022022
67.835 7.834343
67.840 7.564248
67.845 7.249251
67.850 7.14177
67.855 7.132838
67.860 7.084231
67.865 7.450236
67.870 7.714216
67.875 7.986741
67.880 7.959673
67.885 7.958153
67.890 7.880295
67.895 7.765073
67.900 7.580492
67.905 7.513879
67.910 7.434989
67.915 7.582981
67.920 7.360556
67.925 7.236468
67.930 7.259455
67.935 6.863915
67.940 6.816756
67.945 6.685455
67.950 6.597712
67.955 6.4406
67.960 6.592982
67.965 6.640372
67.970 6.789177
67.975 6.679212
67.980 6.774457
67.985 7.09156
67.990 7.496975
67.995 7.263443
68.000 7.73713
68.005 8.150316
68.010 8.404049
68.015 8.570749
68.020 8.505015
68.025 8.255046
68.030 8.290921
68.035 8.161581
68.040 7.762949
68.045 7.376834
68.050 7.362537
68.055 7.111148
68.060 7.29283
68.065 7.37113
68.070 7.40866
68.075 7.540339
68.080 7.545172
68.085 7.46249
68.090 7.740836
68.095 7.943113
68.100 7.777171
68.105 7.651741
68.110 7.966883
68.115 7.756173
68.120 7.462866
68.125 7.225534
68.130 6.881225
68.135 6.751442
68.140 6.794027
68.145 6.629105
68.150 6.761865
68.155 6.502546
68.160 6.719174
68.165 6.800492
68.170 6.572542
68.175 6.168413
68.180 6.189912
68.185 6.288396
68.190 6.581205
68.195 6.176964
68.200 6.407129
68.205 6.626729
68.210 6.464832
68.215 6.198205
68.220 6.124114
68.225 6.142764
68.230 6.017769
68.235 6.099544
68.240 6.304187
68.245 6.991942
68.250 7.349419
68.255 7.62037
68.260 7.914328
68.265 8.065483
68.270 7.823991
68.275 8.014005
68.280 7.542744
68.285 7.220282
68.290 6.935803
68.295 7.086531
68.300 7.204246
68.305 7.286743
68.310 6.996661
68.315 7.110716
68.320 7.610077
68.325 7.846824
68.330 7.866404
68.335 7.873975
68.340 7.529956
68.345 7.65018
68.350 7.568611
68.355 6.991403
68.360 6.839279
68.365 6.541173
68.370 6.549685
68.375 6.662527
68.380 7.024595
68.385 7.644795
68.390 7.859084
68.395 7.913192
68.400 7.843547
68.405 7.872583
68.410 8.343235
68.415 7.967501
68.420 7.622139
68.425 7.674986
68.430 7.761837
68.435 8.073681
68.440 8.152556
68.445 7.929574
68.450 8.044128
68.455 7.934441
68.460 7.823033
68.465 7.545526
68.470 7.333467
68.475 7.243512
68.480 7.1817
68.485 6.837506
68.490 6.866431
68.495 7.365543
68.500 7.401186
68.505 7.380578
68.510 7.381458
68.515 7.60644
68.520 7.904064
68.525 7.950827
68.530 7.698647
68.535 7.740137
68.540 7.788894
68.545 7.907753
68.550 7.611376
68.555 7.802902
68.560 7.996635
68.565 7.660798
68.570 7.265198
68.575 7.070919
68.580 6.914594
68.585 7.070215
68.590 7.149314
68.595 6.920293
68.600 7.262337
68.605 7.511529
68.610 7.922811
68.615 8.013633
68.620 8.183886
68.625 8.113507
68.630 8.231413
68.635 8.102155
68.640 8.351337
68.645 7.9717
68.650 8.153255
68.655 7.811248
68.660 7.827171
68.665 7.854747
68.670 7.98118
68.675 7.992819
68.680 8.265593
68.685 7.85657
68.690 7.445559
68.695 7.328516
68.700 7.165974
68.705 6.813678
68.710 6.507462
68.715 6.834031
68.720 7.233953
68.725 7.69468
68.730 7.862368
68.735 7.736757
68.740 8.037239
68.745 8.037898
68.750 7.899403
68.755 7.613614
68.760 7.357745
68.765 7.35602
68.770 7.836487
68.775 7.653635
68.780 7.413624
68.785 7.454817
68.790 7.743629
68.795 7.932952
68.800 7.739877
68.805 7.622941
68.810 7.457441
68.815 7.521491
68.820 7.100111
68.825 7.144187
68.830 7.153735
68.835 7.128217
68.840 7.371816
68.845 7.815056
68.850 7.558585
68.855 7.513533
68.860 7.349793
68.865 7.020409
68.870 6.849596
68.875 6.844995
68.880 6.741904
68.885 7.29083
68.890 7.644105
68.895 7.965923
68.900 8.55235
68.905 8.852356
68.910 8.73665
68.915 8.608152
68.920 8.682261
68.925 8.526554
68.930 8.354047
68.935 7.877959
68.940 7.755114
68.945 7.665343
68.950 7.822498
68.955 7.471174
68.960 7.534016
68.965 7.639935
68.970 7.79137
68.975 7.932573
68.980 7.850839
68.985 7.787711
68.990 8.011908
68.995 8.052032
69.000 7.910016
69.005 7.747225
69.010 8.178038
69.015 8.388783
69.020 8.433981
69.025 8.543849
69.030 8.49731
69.035 9.068061
69.040 9.461463
69.045 9.341496
69.050 9.257851
69.055 9.062736
69.060 8.865871
69.065 8.606959
69.070 7.765686
69.075 7.279951
69.080 7.375832
69.085 7.230855
69.090 7.308097
69.095 7.451276
69.100 7.959433
69.105 8.222798
69.110 8.162982
69.115 8.144095
69.120 8.271472
69.125 8.412439
69.130 8.311925
69.135 8.105781
69.140 8.186538
69.145 8.361615
69.150 8.110301
69.155 8.091804
69.160 7.776049
69.165 7.442752
69.170 7.262618
69.175 7.398298
69.180 7.458177
69.185 7.594992
69.190 7.926782
69.195 7.994632
69.200 8.209511
69.205 8.23323
69.210 8.217529
69.215 8.128922
69.220 8.190681
69.225 7.93629
69.230 8.091681
69.235 8.296945
69.240 8.271808
69.245 7.934117
69.250 7.713493
69.255 7.703282
69.260 7.955384
69.265 7.944994
69.270 7.755177
69.275 7.556808
69.280 7.593651
69.285 8.252432
69.290 8.225242
69.295 8.262419
69.300 8.021365
69.305 8.196834
69.310 8.19443
69.315 8.028895
69.320 8.022052
69.325 7.979528
69.330 7.506845
69.335 7.413537
69.340 7.123441
69.345 7.489138
69.350 7.279392
69.355 6.922868
69.360 6.805643
69.365 6.940539
69.370 7.007204
69.375 7.207246
69.380 7.180378
69.385 6.966002
69.390 7.083755
69.395 7.20749
69.400 7.177344
69.405 7.124818
69.410 7.014633
69.415 7.481978
69.420 7.645764
69.425 7.583003
69.430 7.620268
69.435 7.616999
69.440 7.946063
69.445 8.011747
69.450 7.863936
69.455 7.6955
69.460 7.105909
69.465 7.17486
69.470 7.158444
69.475 7.1144
69.480 7.283858
69.485 7.400241
69.490 8.053953
69.495 8.58921
69.500 8.609903
69.505 8.784923
69.510 8.847301
69.515 8.760831
69.520 8.596804
69.525 8.239388
69.530 7.887486
69.535 7.683592
69.540 7.385442
69.545 7.260457
69.550 7.467005
69.555 7.511097
69.560 7.650478
69.565 7.810054
69.570 8.201144
69.575 8.372012
69.580 8.413344
69.585 8.336682
69.590 8.370822
69.595 8.141724
69.600 7.957449
69.605 7.515568
69.610 7.218555
69.615 7.055089
69.620 6.64666
69.625 6.758355
69.630 7.300314
69.635 7.789424
69.640 8.171713
69.645 8.346987
69.650 8.507052
69.655 8.820563
69.660 8.763283
69.665 8.56866
69.670 8.401112
69.675 8.580974
69.680 8.866526
69.685 8.906016
69.690 8.974043
69.695 8.412766
69.700 8.181923
69.705 8.23299
69.710 8.108356
69.715 7.666294
69.720 7.749807
69.725 7.790123
69.730 8.76613
69.735 9.090316
69.740 9.050201
69.745 9.049207
69.750 9.293738
69.755 8.830935
69.760 8.783941
69.765 8.58839
69.770 8.83024
69.775 8.521762
69.780 8.502689
69.785 8.609065
69.790 8.67688
69.795 8.529231
69.800 8.095037
69.805 7.963974
69.810 8.460554
69.815 8.562901
69.820 8.452486
69.825 8.340643
69.830 8.30059
69.835 7.828949
69.840 7.749212
69.845 7.426085
69.850 7.374723
69.855 7.627126
69.860 7.70025
69.865 7.904722
69.870 8.058656
69.875 8.221255
69.880 8.274358
69.885 8.267638
69.890 8.212296
69.895 8.138493
69.900 7.873848
69.905 7.76545
69.910 7.415326
69.915 7.282989
69.920 7.055998
69.925 6.83768
69.930 6.866287
69.935 6.952602
69.940 7.11208
69.945 7.392944
69.950 7.227464
69.955 7.373479
69.960 7.372816
69.965 6.976989
69.970 7.075515
69.975 6.806559
69.980 6.528276
69.985 6.414637
69.990 6.361138
69.995 6.608482
70.000 6.927485
70.005 6.569544
70.010 6.739408
70.015 6.604821
70.020 6.71541
70.025 6.704411
70.030 6.342746
70.035 6.564429
70.040 6.542745
70.045 6.660142
70.050 6.992839
70.055 6.83851
70.060 6.964074
70.065 6.949892
70.070 6.999174
70.075 7.342554
70.080 7.621129
70.085 7.612674
70.090 7.915277
70.095 7.781192
70.100 7.634359
70.105 7.506856
70.110 7.057396
70.115 6.790769
70.120 6.53803
70.125 6.53709
70.130 6.96006
70.135 7.098026
70.140 7.222834
70.145 7.298555
70.150 7.725408
70.155 7.912582
70.160 7.683184
70.165 7.714461
70.170 7.819145
70.175 7.66265
70.180 7.767369
70.185 7.597314
70.190 7.51724
70.195 7.378036
70.200 7.499036
70.205 7.940304
70.210 8.181081
70.215 8.189797
70.220 8.196551
70.225 8.396876
70.230 8.420345
70.235 7.901719
70.240 7.375184
70.245 7.456064
70.250 7.442274
70.255 7.656917
70.260 7.598494
70.265 7.668856
70.270 8.03141
70.275 8.268149
70.280 8.200272
70.285 8.186109
70.290 8.048457
70.295 7.938785
70.300 7.930205
70.305 8.192082
70.310 8.244637
70.315 7.821718
70.320 7.874591
70.325 7.684202
70.330 7.751502
70.335 7.323278
70.340 6.703382
70.345 6.368145
70.350 6.641576
70.355 6.604445
70.360 6.88599
70.365 6.940435
70.370 7.200549
70.375 7.286328
70.380 7.708433
70.385 7.606212
70.390 7.433056
70.395 7.362738
70.400 7.238556
70.405 7.34802
70.410 7.360281
70.415 7.036921
70.420 6.805845
70.425 6.851876
70.430 7.075675
70.435 7.512572
70.440 7.333029
70.445 7.335089
70.450 7.682085
70.455 7.98962
70.460 7.923641
70.465 7.575322
70.470 7.300941
70.475 7.39262
70.480 7.327741
70.485 7.044156
70.490 6.941356
70.495 6.826935
70.500 6.943386
70.505 6.76719
70.510 7.009836
70.515 7.326048
70.520 7.44312
70.525 7.208156
70.530 6.93024
70.535 7.254462
70.540 7.259887
70.545 7.033737
70.550 7.093976
70.555 7.299667
70.560 7.691098
70.565 7.885883
70.570 7.704464
70.575 7.973657
70.580 8.332089
70.585 7.97641
70.590 7.671451
70.595 7.31331
70.600 6.931453
70.605 6.594752
70.610 6.341581
70.615 6.266372
70.620 6.411489
70.625 6.728269
70.630 6.593853
70.635 6.628157
70.640 6.97793
70.645 7.032723
70.650 6.657674
70.655 6.433523
70.660 6.428981
70.665 6.869476
70.670 6.610549
70.675 6.481725
70.680 6.603867
70.685 6.782203
70.690 6.716558
70.695 6.831146
70.700 7.052222
70.705 7.270074
70.710 6.965127
70.715 6.685984
70.720 6.773264
70.725 6.977434
70.730 6.772587
70.735 6.593001
70.740 6.64444
70.745 6.742825
70.750 6.96293
70.755 7.251229
70.760 7.044157
70.765 7.136439
70.770 7.264298
70.775 7.284769
70.780 7.200053
70.785 6.799726
70.790 6.752381
70.795 7.100565
70.800 7.174546
70.805 7.122063
70.810 7.018414
70.815 7.437705
70.820 7.511076
70.825 7.239894
70.830 6.899279
70.835 6.727813
70.840 6.70497
70.845 6.803855
70.850 6.630993
70.855 6.461253
70.860 6.219711
70.865 6.06767
70.870 5.997415
70.875 6.010499
70.880 6.118524
70.885 6.288678
70.890 6.816433
70.895 6.999047
70.900 7.365047
70.905 7.351042
70.910 7.265833
70.915 7.116144
70.920 7.20601
70.925 7.040332
70.930 6.790537
70.935 6.60079
70.940 6.707321
70.945 6.59268
70.950 6.637283
70.955 6.67819
70.960 6.525907
70.965 6.89028
70.970 6.765015
70.975 6.639363
70.980 6.511716
70.985 6.192296
70.990 5.933827
70.995 6.170733
71.000 6.07278
71.005 6.138445
71.010 6.5137
71.015 6.613555
71.020 6.699765
71.025 6.591659
71.030 6.649605
71.035 6.92813
71.040 6.99995
71.045 7.2374
71.050 7.504081
71.055 8.159951
71.060 8.504982
71.065 8.340889
71.070 8.424623
71.075 8.248762
71.080 8.184009
71.085 8.029984
71.090 7.436047
71.095 7.701172
71.100 7.863306
71.105 7.808584
71.110 7.68864
71.115 7.304601
71.120 7.018884
71.125 7.057469
71.130 6.867417
71.135 6.530894
71.140 6.385299
71.145 6.445291
71.150 6.498558
71.155 6.931694
71.160 6.736626
71.165 6.461596
71.170 6.648903
71.175 6.364537
71.180 6.490453
71.185 6.645137
71.190 6.456427
71.195 6.388803
71.200 6.748746
71.205 6.898784
71.210 7.439116
71.215 7.597478
71.220 7.604525
71.225 7.956276
71.230 8.026917
71.235 8.005735
71.240 7.797996
71.245 7.534771
71.250 7.374736
71.255 7.482009
71.260 7.132412
71.265 7.6801
71.270 7.94557
71.275 7.927609
71.280 7.803075
71.285 7.620258
71.290 7.614448
71.295 7.715259
71.300 7.204406
71.305 6.907531
71.310 6.795027
71.315 6.841962
71.320 6.520252
71.325 6.360719
71.330 6.260692
71.335 6.374507
71.340 6.511524
71.345 6.586946
71.350 7.124451
71.355 7.906021
71.360 7.757413
71.365 7.770946
71.370 7.346936
71.375 7.445464
71.380 7.102548
71.385 6.440594
71.390 6.254296
71.395 6.064573
71.400 5.927027
71.405 6.136118
71.410 6.475896
71.415 6.955967
71.420 6.528205
71.425 6.428587
71.430 6.546562
71.435 6.364091
71.440 6.388209
71.445 6.160348
71.450 6.387916
71.455 6.833147
71.460 6.767748
71.465 6.858974
71.470 6.869236
71.475 6.790849
71.480 6.811597
71.485 7.014194
71.490 7.28954
71.495 7.636249
71.500 7.964459
71.505 7.846686
71.510 7.609564
71.515 7.244315
71.520 6.962355
71.525 6.751223
71.530 6.771376
71.535 6.557562
71.540 6.673013
71.545 6.84431
71.550 6.774392
71.555 6.432691
71.560 6.04484
71.565 5.973661
71.570 6.336302
71.575 6.485515
71.580 6.635116
71.585 6.805501
71.590 6.873067
71.595 6.761316
71.600 6.773921
71.605 6.803149
71.610 7.321895
71.615 7.500836
71.620 7.882116
71.625 7.805929
71.630 7.838509
71.635 7.388573
71.640 7.144228
71.645 6.694484
71.650 6.475669
71.655 6.395102
71.660 6.540433
71.665 6.716722
71.670 6.911828
71.675 6.767292
71.680 6.513153
71.685 5.978826
71.690 6.010267
71.695 6.302211
71.700 6.68341
71.705 6.365029
71.710 6.468541
71.715 6.937624
71.720 7.373341
71.725 7.256282
71.730 7.069034
71.735 6.931037
71.740 7.098001
71.745 7.2521
71.750 7.387679
71.755 7.564519
71.760 7.717064
71.765 7.38519
71.770 7.51312
71.775 7.702788
71.780 7.192273
71.785 6.82592
71.790 6.317536
71.795 6.323144
71.800 6.573153
71.805 6.889556
71.810 6.844762
71.815 6.890169
71.820 7.281543
71.825 7.301808
71.830 7.282074
71.835 6.843615
71.840 6.530217
71.845 6.479029
71.850 6.692572
71.855 6.65249
71.860 6.719013
71.865 6.87509
71.870 6.965815
71.875 6.986546
71.880 6.855676
71.885 6.468606
71.890 6.546132
71.895 6.577758
71.900 6.742535
71.905 6.795768
71.910 6.93075
71.915 6.933558
71.920 6.859075
71.925 6.681008
71.930 6.501012
71.935 6.550942
71.940 6.344697
71.945 6.486264
71.950 6.363282
71.955 6.387493
71.960 6.433024
71.965 6.392802
71.970 6.643543
71.975 6.345076
71.980 6.379752
71.985 6.943508
71.990 7.041739
71.995 7.199105
72.000 7.650565
72.005 7.453245
72.010 7.909649
72.015 7.943814
72.020 7.969989
72.025 8.088869
72.030 7.811889
72.035 7.267259
72.040 7.084732
72.045 6.701003
72.050 6.355996
72.055 6.553607
72.060 6.443873
72.065 6.389094
72.070 6.687821
72.075 6.794467
72.080 6.72447
72.085 6.664654
72.090 6.73301
72.095 6.854432
72.100 7.206563
72.105 7.241655
72.110 7.582424
72.115 7.658125
72.120 7.324622
72.125 6.929622
72.130 6.715459
72.135 6.419704
72.140 6.037508
72.145 6.12597
72.150 6.61876
72.155 7.039979
72.160 7.378583
72.165 7.626432
72.170 7.729261
72.175 7.774819
72.180 7.933469
72.185 7.466736
72.190 7.212779
72.195 7.081623
72.200 6.928963
72.205 6.974745
72.210 6.579829
72.215 6.08952
72.220 6.384262
72.225 6.22981
72.230 6.072812
72.235 5.923433
72.240 5.931179
72.245 5.792099
72.250 6.000648
72.255 5.88635
72.260 6.509177
72.265 6.51138
72.270 6.339612
72.275 6.12501
72.280 6.116003
72.285 6.321698
72.290 6.201775
72.295 5.865681
72.300 5.920858
72.305 6.379117
72.310 7.163779
72.315 7.52512
72.320 7.132842
72.325 7.109317
72.330 7.7327
72.335 8.162397
72.340 7.902424
72.345 7.571887
72.350 7.214748
72.355 7.26394
72.360 6.969858
72.365 6.479502
72.370 6.385883
72.375 6.45789
72.380 6.646976
72.385 6.686366
72.390 7.193306
72.395 7.489648
72.400 7.323486
72.405 7.227072
72.410 7.512979
72.415 7.44349
72.420 7.548186
72.425 7.05249
72.430 7.07114
72.435 7.329003
72.440 7.418991
72.445 7.350544
72.450 7.659763
72.455 7.736263
72.460 7.722428
72.465 7.323113
72.470 6.92984
72.475 6.89652
72.480 6.415277
72.485 6.34118
72.490 6.384942
72.495 6.560291
72.500 6.794991
72.505 6.903153
72.510 6.73382
72.515 6.909229
72.520 6.835892
72.525 6.94843
72.530 7.192558
72.535 7.056606
72.540 7.220575
72.545 7.057684
72.550 7.32338
72.555 7.150002
72.560 6.894332
72.565 6.542472
72.570 6.737428
72.575 6.464528
72.580 6.671079
72.585 6.462106
72.590 6.554737
72.595 6.550607
72.600 7.110465
72.605 7.299116
72.610 7.462204
72.615 7.389815
72.620 7.195016
72.625 7.211293
72.630 7.081319
72.635 6.533491
72.640 6.217764
72.645 6.58897
72.650 6.4283
72.655 6.614155
72.660 6.77721
72.665 7.023695
72.670 7.141458
72.675 7.110924
72.680 6.999471
72.685 7.106761
72.690 7.045219
72.695 7.054321
72.700 6.986985
72.705 7.037712
72.710 7.225043
72.715 7.289456
72.720 7.351786
72.725 7.294364
72.730 7.316574
72.735 7.364445
72.740 7.101814
72.745 6.744691
72.750 6.355615
72.755 6.342718
72.760 6.411551
72.765 6.311747
72.770 6.266986
72.775 6.674731
72.780 6.897185
72.785 7.188113
72.790 6.899828
72.795 6.398768
72.800 6.447069
72.805 6.404868
72.810 6.279138
72.815 6.328191
72.820 6.304329
72.825 6.493495
72.830 6.879242
72.835 6.739957
72.840 6.65361
72.845 6.654809
72.850 6.362324
72.855 6.238889
72.860 6.285639
72.865 5.968238
72.870 6.082894
72.875 6.235853
72.880 6.353515
72.885 6.350187
72.890 6.317132
72.895 6.435168
72.900 6.399206
72.905 6.394955
72.910 6.413149
72.915 6.549047
72.920 6.609598
72.925 6.838915
72.930 7.4243
72.935 7.351281
72.940 7.177606
72.945 7.206582
72.950 7.402942
72.955 7.527885
72.960 7.032907
72.965 6.56019
72.970 6.565985
72.975 6.559173
72.980 6.63656
72.985 6.387766
72.990 6.306965
72.995 6.458114
73.000 6.580365
