!@!!GADDS PLOTSO FILE: Chi integration type
!@!!Title/SampleName: map-a1
!@!!Comment: ?
!@!!User: Bruker Instrument Administrator
!@!!Site: University of Illinois Chicago
!@!!Frame: map-a1_01_000.gfrm
!@!!Wavelengths    1.54184   1.54056   1.54439
!@!!Frame angles: 2Theta: 63.000 Omega: 50.000 Phi: 0.000 Chi: 90.000
!@!!Integration range: 2Theta: 53.000 to 73.000  Gamma: -105.000 to -75.000
!@!!Integration method: bin normalized
!@!N
!@!SS
!@!M
!@!L 0.0 0.0 0.0 0.0
!@!XDegrees
!@!YCounts
53.000 8.802554
53.005 8.769295
53.010 8.709488
53.015 8.35719
53.020 8.592241
53.025 8.913742
53.030 8.466768
53.035 8.143048
53.040 8.133408
53.045 8.586013
53.050 8.536601
53.055 8.144825
53.060 8.500444
53.065 8.917013
53.070 9.04152
53.075 8.94622
53.080 8.971012
53.085 9.589185
53.090 10.281811
53.095 10.243505
53.100 10.115347
53.105 10.351324
53.110 10.080733
53.115 9.484699
53.120 8.804701
53.125 8.034699
53.130 7.799305
53.135 7.941957
53.140 8.066325
53.145 8.417683
53.150 8.880478
53.155 9.793316
53.160 10.265406
53.165 10.402624
53.170 10.48866
53.175 10.164259
53.180 9.871211
53.185 9.440725
53.190 8.640346
53.195 8.530252
53.200 8.618514
53.205 8.67649
53.210 9.222555
53.215 9.541613
53.220 9.609983
53.225 9.843513
53.230 9.550913
53.235 9.332298
53.240 9.196236
53.245 9.032869
53.250 9.233288
53.255 9.544531
53.260 9.339275
53.265 9.443025
53.270 9.535152
53.275 9.791698
53.280 9.454452
53.285 8.979536
53.290 9.010634
53.295 9.248629
53.300 9.219339
53.305 8.995893
53.310 9.074621
53.315 9.314901
53.320 9.256386
53.325 9.15137
53.330 9.245645
53.335 9.739318
53.340 10.087013
53.345 9.686012
53.350 10.136696
53.355 10.351233
53.360 10.39992
53.365 10.316177
53.370 9.90988
53.375 9.664208
53.380 9.836228
53.385 9.789319
53.390 9.834515
53.395 9.640876
53.400 9.174226
53.405 9.393745
53.410 9.550025
53.415 9.58761
53.420 9.538877
53.425 9.277141
53.430 9.559443
53.435 9.529178
53.440 9.658958
53.445 9.631004
53.450 9.174872
53.455 8.834538
53.460 8.782988
53.465 9.082708
53.470 9.323657
53.475 9.157351
53.480 9.233371
53.485 9.413981
53.490 9.629859
53.495 9.915138
53.500 10.060439
53.505 10.00321
53.510 9.930247
53.515 10.252748
53.520 10.384317
53.525 10.083471
53.530 9.781068
53.535 9.446921
53.540 9.505071
53.545 9.568943
53.550 9.13161
53.555 9.134785
53.560 9.209676
53.565 9.124139
53.570 9.462787
53.575 9.398646
53.580 9.48722
53.585 9.607975
53.590 9.855801
53.595 10.297682
53.600 10.66268
53.605 10.67629
53.610 10.964526
53.615 11.143412
53.620 11.366878
53.625 11.276867
53.630 10.881317
53.635 10.725237
53.640 10.596371
53.645 10.351275
53.650 10.222095
53.655 10.05057
53.660 10.047933
53.665 10.187997
53.670 10.055264
53.675 9.9207
53.680 9.613446
53.685 9.546772
53.690 9.808267
53.695 9.668592
53.700 9.559543
53.705 9.926871
53.710 10.168874
53.715 10.436485
53.720 10.66326
53.725 10.667889
53.730 10.965846
53.735 11.039168
53.740 10.919157
53.745 10.88142
53.750 10.695914
53.755 10.665915
53.760 11.344654
53.765 11.598851
53.770 11.646664
53.775 11.707574
53.780 12.083259
53.785 12.349561
53.790 11.850961
53.795 11.491492
53.800 11.541763
53.805 11.407915
53.810 10.819049
53.815 10.04355
53.820 10.014702
53.825 10.139781
53.830 9.50732
53.835 9.054523
53.840 9.167327
53.845 9.466027
53.850 9.943004
53.855 9.876115
53.860 9.746585
53.865 10.239552
53.870 10.330999
53.875 10.155806
53.880 10.279637
53.885 10.088932
53.890 10.026093
53.895 9.795209
53.900 9.100395
53.905 9.286771
53.910 9.441746
53.915 9.355032
53.920 8.984529
53.925 9.369289
53.930 9.777146
53.935 10.099488
53.940 10.208733
53.945 10.523331
53.950 11.150748
53.955 11.44741
53.960 11.491101
53.965 11.537757
53.970 11.473407
53.975 11.563333
53.980 11.249601
53.985 11.07531
53.990 10.96192
53.995 10.565612
54.000 10.266928
54.005 10.177671
54.010 9.757426
54.015 9.615794
54.020 9.673024
54.025 9.566194
54.030 9.78405
54.035 10.022334
54.040 9.934068
54.045 10.209909
54.050 9.905881
54.055 9.961352
54.060 9.882365
54.065 9.541501
54.070 9.787276
54.075 9.785332
54.080 9.796217
54.085 9.90426
54.090 10.078135
54.095 10.157138
54.100 10.714847
54.105 10.815239
54.110 11.026876
54.115 10.755293
54.120 10.625288
54.125 10.783413
54.130 10.787351
54.135 10.710539
54.140 10.59982
54.145 10.454768
54.150 10.699717
54.155 10.510815
54.160 10.498372
54.165 10.682038
54.170 10.123688
54.175 10.047365
54.180 9.887128
54.185 9.859629
54.190 9.863964
54.195 9.704872
54.200 9.930047
54.205 10.345707
54.210 10.568484
54.215 10.86388
54.220 10.942461
54.225 10.783711
54.230 10.696652
54.235 10.668344
54.240 10.399843
54.245 10.359776
54.250 10.162083
54.255 10.406343
54.260 10.715539
54.265 10.456632
54.270 10.333899
54.275 10.670621
54.280 10.729893
54.285 10.929051
54.290 11.096261
54.295 11.545761
54.300 12.330215
54.305 12.22852
54.310 12.047868
54.315 12.153202
54.320 11.997805
54.325 12.04067
54.330 11.665621
54.335 11.03054
54.340 11.049476
54.345 11.00357
54.350 11.44186
54.355 11.552858
54.360 11.304429
54.365 11.691797
54.370 11.597888
54.375 11.437615
54.380 10.948168
54.385 10.18144
54.390 10.052444
54.395 9.989371
54.400 9.588677
54.405 9.319261
54.410 9.376216
54.415 9.475042
54.420 9.42151
54.425 9.266125
54.430 9.025023
54.435 9.033759
54.440 9.09337
54.445 9.322181
54.450 9.663051
54.455 9.688476
54.460 9.559317
54.465 9.79376
54.470 10.494529
54.475 10.665446
54.480 10.516955
54.485 10.59248
54.490 10.9397
54.495 11.38766
54.500 11.001776
54.505 10.241027
54.510 10.350707
54.515 10.509377
54.520 10.430682
54.525 10.16577
54.530 10.092172
54.535 10.490092
54.540 10.540946
54.545 10.467063
54.550 10.371734
54.555 10.30539
54.560 10.313193
54.565 10.209385
54.570 10.426409
54.575 10.787592
54.580 11.231657
54.585 11.405019
54.590 11.479683
54.595 11.112588
54.600 10.625648
54.605 10.083502
54.610 9.701319
54.615 9.327925
54.620 9.302213
54.625 9.736449
54.630 9.777997
54.635 9.927626
54.640 10.724173
54.645 11.50816
54.650 11.831375
54.655 12.005181
54.660 11.808652
54.665 11.850758
54.670 12.033203
54.675 11.06813
54.680 10.784459
54.685 10.877953
54.690 10.596491
54.695 10.932889
54.700 11.484169
54.705 11.738539
54.710 12.351867
54.715 12.348159
54.720 12.139309
54.725 11.807397
54.730 11.283896
54.735 10.689662
54.740 10.696445
54.745 10.752276
54.750 10.782826
54.755 10.961463
54.760 11.273129
54.765 11.308181
54.770 11.729398
54.775 11.422239
54.780 11.125945
54.785 10.560436
54.790 10.409689
54.795 10.419979
54.800 10.544189
54.805 10.791013
54.810 11.093859
54.815 10.969386
54.820 10.963218
54.825 11.05035
54.830 11.152578
54.835 11.341707
54.840 11.140474
54.845 10.994189
54.850 11.482682
54.855 11.977027
54.860 11.961318
54.865 11.905291
54.870 11.489347
54.875 11.276462
54.880 11.493067
54.885 10.908396
54.890 10.602873
54.895 10.547698
54.900 10.901033
54.905 11.010479
54.910 11.096745
54.915 10.883224
54.920 11.484442
54.925 11.918406
54.930 12.193417
54.935 11.922437
54.940 11.648576
54.945 11.852157
54.950 12.466137
54.955 12.302698
54.960 12.487447
54.965 12.670584
54.970 12.996058
54.975 12.932849
54.980 12.621159
54.985 12.718638
54.990 12.483984
54.995 11.836628
55.000 11.359537
55.005 11.121056
55.010 11.384821
55.015 11.391224
55.020 11.12294
55.025 11.261781
55.030 11.580021
55.035 12.243632
55.040 12.661159
55.045 12.94701
55.050 12.649295
55.055 12.391488
55.060 12.627669
55.065 12.487601
55.070 12.045654
55.075 11.878191
55.080 11.492827
55.085 11.778854
55.090 11.840485
55.095 11.738237
55.100 11.843789
55.105 12.124622
55.110 12.393377
55.115 12.725924
55.120 12.905004
55.125 13.094224
55.130 13.384329
55.135 13.841488
55.140 13.911543
55.145 13.612082
55.150 13.104277
55.155 13.060977
55.160 12.332598
55.165 11.390692
55.170 10.599509
55.175 10.220852
55.180 10.51734
55.185 10.859794
55.190 10.238934
55.195 10.730425
55.200 10.873431
55.205 11.184564
55.210 11.323841
55.215 11.193432
55.220 11.07492
55.225 11.361803
55.230 11.059884
55.235 11.157933
55.240 11.216874
55.245 11.277821
55.250 11.210362
55.255 11.160253
55.260 11.266462
55.265 11.760731
55.270 12.072345
55.275 12.126434
55.280 12.176104
55.285 12.2498
55.290 12.16166
55.295 11.937895
55.300 11.517262
55.305 11.155183
55.310 10.797668
55.315 10.846163
55.320 11.19339
55.325 11.134782
55.330 11.319082
55.335 12.050028
55.340 12.516541
55.345 12.647098
55.350 11.850893
55.355 12.137463
55.360 12.332804
55.365 11.486884
55.370 10.827415
55.375 10.304017
55.380 10.461098
55.385 10.991643
55.390 10.468432
55.395 11.221392
55.400 11.753283
55.405 11.925732
55.410 12.739125
55.415 12.844968
55.420 12.387182
55.425 12.516915
55.430 12.350593
55.435 12.451942
55.440 12.279924
55.445 11.69559
55.450 11.99598
55.455 12.527421
55.460 12.514229
55.465 12.658817
55.470 12.821507
55.475 13.113008
55.480 13.514227
55.485 12.940371
55.490 12.405718
55.495 12.049018
55.500 11.850185
55.505 11.615768
55.510 11.370861
55.515 10.944478
55.520 11.122385
55.525 11.523789
55.530 11.666506
55.535 11.610403
55.540 11.63116
55.545 11.331969
55.550 11.853775
55.555 11.784053
55.560 11.900911
55.565 12.29574
55.570 12.476877
55.575 13.154814
55.580 13.235516
55.585 12.570347
55.590 12.359965
55.595 11.674603
55.600 11.522294
55.605 11.422272
55.610 11.153936
55.615 11.016861
55.620 11.068743
55.625 11.508659
55.630 11.436776
55.635 11.39361
55.640 11.361202
55.645 11.495501
55.650 11.98116
55.655 12.537488
55.660 12.945072
55.665 13.443852
55.670 13.354195
55.675 12.932885
55.680 12.458491
55.685 12.665592
55.690 12.401023
55.695 11.896884
55.700 12.164981
55.705 12.357565
55.710 12.543797
55.715 12.678519
55.720 12.70778
55.725 12.653191
55.730 12.710726
55.735 12.997632
55.740 13.069616
55.745 13.001728
55.750 13.035251
55.755 13.163089
55.760 13.490796
55.765 13.132463
55.770 12.098615
55.775 12.092138
55.780 12.465117
55.785 12.055677
55.790 11.679611
55.795 11.186437
55.800 10.978417
55.805 11.055624
55.810 10.580703
55.815 10.20532
55.820 10.30768
55.825 10.852516
55.830 11.771644
55.835 12.537865
55.840 13.200635
55.845 13.619499
55.850 13.781119
55.855 13.752072
55.860 13.49474
55.865 12.848384
55.870 12.395967
55.875 12.179065
55.880 12.259708
55.885 12.207636
55.890 12.322379
55.895 11.823289
55.900 11.632801
55.905 11.504781
55.910 11.861035
55.915 11.797751
55.920 11.900844
55.925 11.97931
55.930 12.743789
55.935 13.424702
55.940 13.331627
55.945 13.19879
55.950 13.34335
55.955 13.252461
55.960 12.712914
55.965 12.107659
55.970 12.000152
55.975 12.002187
55.980 11.602107
55.985 11.643711
55.990 11.941582
55.995 12.576159
56.000 12.731227
56.005 12.566725
56.010 12.849482
56.015 12.950531
56.020 12.730343
56.025 12.508879
56.030 12.263152
56.035 12.225632
56.040 11.80499
56.045 11.448257
56.050 11.505171
56.055 11.873316
56.060 11.921376
56.065 12.295815
56.070 12.468787
56.075 13.255958
56.080 13.79962
56.085 13.580731
56.090 13.149856
56.095 13.02972
56.100 12.718408
56.105 12.385198
56.110 12.215427
56.115 11.702318
56.120 11.926296
56.125 12.237272
56.130 12.421906
56.135 12.519856
56.140 12.511973
56.145 12.273187
56.150 12.816847
56.155 12.719857
56.160 12.308446
56.165 11.731692
56.170 11.737227
56.175 11.428392
56.180 10.699186
56.185 10.132392
56.190 9.998938
56.195 10.383689
56.200 11.037414
56.205 10.830091
56.210 11.193003
56.215 11.631148
56.220 11.746058
56.225 12.369488
56.230 12.520509
56.235 12.8229
56.240 13.647041
56.245 13.684221
56.250 13.547001
56.255 14.368826
56.260 14.936812
56.265 14.441501
56.270 13.62735
56.275 13.043796
56.280 12.884824
56.285 13.031297
56.290 12.251153
56.295 11.384723
56.300 11.477099
56.305 12.186015
56.310 12.249903
56.315 12.738585
56.320 12.792953
56.325 13.022501
56.330 13.727165
56.335 14.169864
56.340 14.175528
56.345 14.283011
56.350 14.511567
56.355 14.709448
56.360 14.389041
56.365 14.152072
56.370 13.36346
56.375 13.103771
56.380 12.86692
56.385 12.472376
56.390 12.418594
56.395 12.577751
56.400 12.577537
56.405 12.875546
56.410 12.578668
56.415 12.831113
56.420 13.315606
56.425 13.301776
56.430 13.189688
56.435 12.974686
56.440 12.784782
56.445 13.185099
56.450 13.17195
56.455 13.117855
56.460 12.903265
56.465 12.434366
56.470 12.551244
56.475 12.663319
56.480 12.49159
56.485 12.05429
56.490 12.230659
56.495 12.646661
56.500 12.81874
56.505 13.189492
56.510 13.291339
56.515 12.762436
56.520 12.698156
56.525 12.3633
56.530 11.797666
56.535 11.766936
56.540 11.139786
56.545 11.359652
56.550 12.466687
56.555 12.490697
56.560 12.466107
56.565 12.756543
56.570 12.844771
56.575 13.35426
56.580 13.049152
56.585 12.434316
56.590 12.214213
56.595 12.166391
56.600 11.987455
56.605 11.73
56.610 11.396987
56.615 11.552238
56.620 11.95557
56.625 12.424777
56.630 12.19094
56.635 12.337523
56.640 13.194792
56.645 13.389566
56.650 13.419008
56.655 13.280624
56.660 13.31151
56.665 13.277488
56.670 13.264457
56.675 13.075048
56.680 13.030813
56.685 12.53011
56.690 12.369206
56.695 12.128469
56.700 13.118521
56.705 13.026917
56.710 13.080959
56.715 13.031142
56.720 13.628064
56.725 14.396291
56.730 15.061037
56.735 14.813612
56.740 14.897828
56.745 15.13838
56.750 15.241302
56.755 14.770282
56.760 13.640763
56.765 13.352474
56.770 13.714635
56.775 13.527188
56.780 12.906586
56.785 13.238123
56.790 13.353981
56.795 13.703956
56.800 13.408287
56.805 13.707384
56.810 14.061349
56.815 14.270588
56.820 14.244545
56.825 14.548071
56.830 14.467915
56.835 14.559365
56.840 14.285566
56.845 13.931806
56.850 13.70933
56.855 13.556415
56.860 13.582213
56.865 14.446486
56.870 14.496371
56.875 14.274196
56.880 14.878305
56.885 15.432487
56.890 15.504433
56.895 14.98394
56.900 14.555595
56.905 14.821339
56.910 14.747411
56.915 14.172467
56.920 13.318385
56.925 13.188571
56.930 13.022281
56.935 12.119389
56.940 11.680821
56.945 11.963165
56.950 12.248268
56.955 12.657081
56.960 12.904276
56.965 13.69044
56.970 14.331774
56.975 14.551867
56.980 14.200972
56.985 14.639091
56.990 14.35181
56.995 13.904545
57.000 13.473397
57.005 13.489376
57.010 14.019904
57.015 14.255658
57.020 14.130372
57.025 14.271963
57.030 14.747295
57.035 15.376756
57.040 15.272592
57.045 14.405211
57.050 14.254846
57.055 13.945693
57.060 13.587542
57.065 13.075912
57.070 12.329184
57.075 11.993179
57.080 12.274472
57.085 12.327374
57.090 12.40223
57.095 12.882023
57.100 13.395404
57.105 13.605214
57.110 13.801417
57.115 13.622688
57.120 13.890395
57.125 14.195386
57.130 13.823261
57.135 13.824748
57.140 13.75279
57.145 13.687219
57.150 13.845194
57.155 13.602742
57.160 13.708344
57.165 13.247476
57.170 12.934881
57.175 12.798613
57.180 13.286818
57.185 13.218946
57.190 13.106642
57.195 13.451419
57.200 13.897202
57.205 13.715454
57.210 13.70925
57.215 13.129326
57.220 13.046992
57.225 13.645326
57.230 13.806547
57.235 13.672555
57.240 13.972864
57.245 13.762213
57.250 14.212316
57.255 14.063302
57.260 13.41178
57.265 13.276842
57.270 13.759591
57.275 13.965687
57.280 14.356905
57.285 14.083981
57.290 14.368124
57.295 14.318744
57.300 14.445399
57.305 13.827062
57.310 13.731179
57.315 13.471448
57.320 13.231462
57.325 13.176657
57.330 13.11613
57.335 12.794034
57.340 13.470907
57.345 13.504547
57.350 14.429199
57.355 14.626839
57.360 14.574033
57.365 14.73803
57.370 14.853861
57.375 14.806947
57.380 15.084915
57.385 14.73363
57.390 15.148257
57.395 15.109172
57.400 15.668366
57.405 15.721603
57.410 15.371439
57.415 15.177674
57.420 14.765178
57.425 14.488256
57.430 14.586478
57.435 14.685459
57.440 14.573707
57.445 14.307575
57.450 14.362219
57.455 14.103219
57.460 13.880385
57.465 13.351071
57.470 13.196789
57.475 13.512471
57.480 13.2154
57.485 13.077853
57.490 13.118752
57.495 13.391843
57.500 13.886654
57.505 13.803953
57.510 13.997533
57.515 14.645747
57.520 14.932357
57.525 15.202004
57.530 15.39327
57.535 15.447644
57.540 15.125111
57.545 14.946168
57.550 14.701539
57.555 14.646126
57.560 14.594999
57.565 14.035282
57.570 13.794024
57.575 14.004886
57.580 14.115851
57.585 13.77408
57.590 13.746481
57.595 13.711674
57.600 13.917315
57.605 13.76059
57.610 13.859426
57.615 13.941756
57.620 14.234103
57.625 15.224745
57.630 16.194019
57.635 16.485683
57.640 16.122475
57.645 15.934389
57.650 15.840159
57.655 16.298321
57.660 15.341348
57.665 14.2721
57.670 14.191332
57.675 14.907194
57.680 15.194031
57.685 15.48047
57.690 15.21088
57.695 15.320432
57.700 15.570576
57.705 15.296168
57.710 14.758582
57.715 14.759988
57.720 14.563517
57.725 14.459107
57.730 14.080849
57.735 14.497706
57.740 14.862473
57.745 14.75928
57.750 14.969151
57.755 15.187948
57.760 15.473134
57.765 16.126966
57.770 15.581564
57.775 15.641632
57.780 15.501781
57.785 14.787854
57.790 14.378729
57.795 14.016042
57.800 13.72747
57.805 14.415095
57.810 14.914542
57.815 14.665639
57.820 14.408962
57.825 14.742504
57.830 15.380348
57.835 15.890258
57.840 15.191504
57.845 15.186033
57.850 15.916728
57.855 16.611412
57.860 17.025991
57.865 16.542498
57.870 15.856457
57.875 16.07205
57.880 15.635532
57.885 15.479351
57.890 15.02424
57.895 14.837786
57.900 14.674839
57.905 14.738867
57.910 14.817214
57.915 14.804231
57.920 14.691532
57.925 14.190322
57.930 13.489647
57.935 13.715849
57.940 14.153029
57.945 14.010329
57.950 14.109942
57.955 13.934096
57.960 14.132125
57.965 14.354482
57.970 14.224836
57.975 14.183831
57.980 14.626801
57.985 14.888268
57.990 14.850703
57.995 15.288203
58.000 15.670056
58.005 15.731954
58.010 15.520597
58.015 15.020383
58.020 14.605802
58.025 14.798427
58.030 14.621087
58.035 14.443661
58.040 14.39607
58.045 14.690248
58.050 15.11813
58.055 15.190042
58.060 15.427304
58.065 15.435657
58.070 15.231161
58.075 15.021952
58.080 14.841288
58.085 14.72511
58.090 14.88025
58.095 14.65999
58.100 14.718254
58.105 15.035296
58.110 14.984151
58.115 14.467497
58.120 14.108391
58.125 14.061369
58.130 14.371486
58.135 14.276189
58.140 14.286289
58.145 14.589807
58.150 15.080945
58.155 15.668852
58.160 15.458201
58.165 15.256771
58.170 15.852483
58.175 15.827965
58.180 15.419419
58.185 15.266681
58.190 14.887647
58.195 14.792361
58.200 14.560803
58.205 14.021724
58.210 14.040569
58.215 14.01819
58.220 14.25898
58.225 14.375356
58.230 15.308998
58.235 15.405873
58.240 15.171321
58.245 15.047572
58.250 15.657412
58.255 15.420665
58.260 15.527443
58.265 15.15543
58.270 15.064251
58.275 15.654183
58.280 15.480659
58.285 14.842541
58.290 15.116159
58.295 15.635805
58.300 15.843927
58.305 15.689231
58.310 15.154766
58.315 15.489078
58.320 15.634753
58.325 15.574748
58.330 14.908003
58.335 15.545134
58.340 15.747474
58.345 15.76556
58.350 15.758452
58.355 15.526245
58.360 15.134435
58.365 15.199033
58.370 14.464398
58.375 14.640607
58.380 14.731316
58.385 14.645848
58.390 14.641372
58.395 15.258735
58.400 14.909792
58.405 14.962428
58.410 14.848815
58.415 14.856803
58.420 15.187503
58.425 15.188197
58.430 14.429281
58.435 14.355575
58.440 14.058582
58.445 14.29848
58.450 14.412193
58.455 14.365504
58.460 14.737258
58.465 15.218957
58.470 15.264634
58.475 15.570828
58.480 15.003091
58.485 14.822931
58.490 14.66094
58.495 14.649609
58.500 14.691204
58.505 14.557096
58.510 14.681572
58.515 14.889721
58.520 15.320232
58.525 15.948963
58.530 16.017567
58.535 15.967581
58.540 16.248001
58.545 16.195568
58.550 16.313387
58.555 16.067314
58.560 16.628447
58.565 16.30315
58.570 16.108776
58.575 16.400631
58.580 16.979395
58.585 16.861582
58.590 16.326035
58.595 15.65461
58.600 15.858511
58.605 15.366457
58.610 14.671774
58.615 14.502244
58.620 14.674895
58.625 15.20427
58.630 14.887699
58.635 15.454957
58.640 16.014141
58.645 16.440266
58.650 16.427267
58.655 16.720772
58.660 16.560225
58.665 16.397316
58.670 15.99572
58.675 16.507608
58.680 16.327587
58.685 16.093536
58.690 15.859957
58.695 16.201996
58.700 16.267754
58.705 16.452898
58.710 15.731384
58.715 15.239721
58.720 15.193284
58.725 15.142426
58.730 15.340325
58.735 15.476789
58.740 15.378555
58.745 15.804741
58.750 16.511156
58.755 16.905138
58.760 16.851315
58.765 16.248972
58.770 16.301321
58.775 16.084372
58.780 15.615121
58.785 15.205894
58.790 14.877098
58.795 15.124274
58.800 15.29418
58.805 15.18502
58.810 15.509152
58.815 16.402721
58.820 17.05353
58.825 17.143196
58.830 16.877695
58.835 17.110188
58.840 17.820253
58.845 17.675884
58.850 17.095297
58.855 17.056536
58.860 17.027025
58.865 16.847403
58.870 16.334419
58.875 15.65273
58.880 15.746372
58.885 15.882278
58.890 15.983359
58.895 15.963095
58.900 15.881165
58.905 16.201689
58.910 16.726671
58.915 16.61084
58.920 16.206854
58.925 16.204338
58.930 16.670862
58.935 16.770447
58.940 17.529383
58.945 17.558863
58.950 17.142214
58.955 17.467606
58.960 17.197332
58.965 16.946138
58.970 17.52104
58.975 16.715454
58.980 16.468611
58.985 16.963905
58.990 16.644156
58.995 17.100058
59.000 17.071285
59.005 16.293995
59.010 16.289816
59.015 16.143511
59.020 16.364471
59.025 16.102354
59.030 15.45838
59.035 15.553967
59.040 16.172318
59.045 16.097641
59.050 16.063137
59.055 16.042484
59.060 16.104353
59.065 15.78315
59.070 15.465844
59.075 15.063437
59.080 15.264921
59.085 15.186254
59.090 15.101715
59.095 15.491769
59.100 15.638303
59.105 15.76537
59.110 15.558991
59.115 14.969422
59.120 14.857343
59.125 14.801591
59.130 14.802299
59.135 15.60349
59.140 15.752106
59.145 15.671251
59.150 15.855968
59.155 15.739428
59.160 15.245827
59.165 15.145697
59.170 14.572968
59.175 14.303523
59.180 14.562248
59.185 14.732093
59.190 15.225724
59.195 15.50523
59.200 15.601841
59.205 15.793258
59.210 16.224125
59.215 16.864916
59.220 17.279676
59.225 17.209051
59.230 17.208427
59.235 16.913574
59.240 16.854239
59.245 16.99715
59.250 16.912699
59.255 16.829588
59.260 17.466856
59.265 17.926006
59.270 17.658476
59.275 17.364159
59.280 17.240309
59.285 17.089081
59.290 16.936588
59.295 16.16201
59.300 15.344376
59.305 15.416378
59.310 15.293984
59.315 14.708333
59.320 14.557973
59.325 14.438144
59.330 14.580098
59.335 15.090179
59.340 15.394957
59.345 16.302248
59.350 16.641384
59.355 16.528366
59.360 16.747301
59.365 17.151846
59.370 17.197817
59.375 17.656046
59.380 17.261322
59.385 17.328886
59.390 17.751829
59.395 18.011751
59.400 17.804403
59.405 17.930876
59.410 17.684671
59.415 17.318569
59.420 17.586756
59.425 17.291218
59.430 17.404623
59.435 17.517174
59.440 17.671762
59.445 17.507118
59.450 18.028635
59.455 18.683622
59.460 19.130939
59.465 19.029974
59.470 18.560444
59.475 18.360136
59.480 18.672043
59.485 18.982454
59.490 18.593296
59.495 18.812954
59.500 18.784136
59.505 18.846502
59.510 18.762543
59.515 18.134726
59.520 17.468937
59.525 17.016132
59.530 16.430185
59.535 16.1133
59.540 16.250118
59.545 16.599247
59.550 17.064695
59.555 17.377928
59.560 17.468737
59.565 17.857891
59.570 17.981737
59.575 18.128544
59.580 18.094746
59.585 17.885204
59.590 18.058729
59.595 18.385994
59.600 18.089909
59.605 18.06568
59.610 17.895197
59.615 17.780727
59.620 18.367739
59.625 18.137424
59.630 18.025322
59.635 18.165159
59.640 17.938953
59.645 17.873274
59.650 18.078333
59.655 17.616745
59.660 17.920565
59.665 17.59009
59.670 17.177921
59.675 17.607332
59.680 17.702885
59.685 18.005503
59.690 18.267393
59.695 18.251879
59.700 19.360495
59.705 20.380812
59.710 21.24478
59.715 21.493362
59.720 21.137833
59.725 20.781511
59.730 20.818289
59.735 20.476524
59.740 20.671022
59.745 19.948984
59.750 20.266432
59.755 20.758816
59.760 20.971556
59.765 20.882357
59.770 20.483025
59.775 19.906641
59.780 20.564447
59.785 20.411127
59.790 20.106318
59.795 20.243423
59.800 20.254705
59.805 20.703161
59.810 20.945147
59.815 20.87801
59.820 20.625469
59.825 20.416245
59.830 20.295778
59.835 20.437607
59.840 20.679707
59.845 20.74007
59.850 21.125406
59.855 21.228762
59.860 21.818657
59.865 22.298626
59.870 22.030851
59.875 21.48423
59.880 21.281725
59.885 21.106382
59.890 21.394302
59.895 21.115444
59.900 21.018789
59.905 20.832066
59.910 21.037867
59.915 21.331383
59.920 21.248192
59.925 21.395983
59.930 20.931303
59.935 20.709923
59.940 20.721268
59.945 20.401642
59.950 20.184622
59.955 20.940683
59.960 21.081373
59.965 21.870161
59.970 22.079762
59.975 22.553385
59.980 23.015013
59.985 23.269798
59.990 22.834782
59.995 22.769493
60.000 22.299124
60.005 22.476233
60.010 22.627949
60.015 22.249052
60.020 21.641125
60.025 21.013496
60.030 20.992542
60.035 21.255068
60.040 21.541706
60.045 21.82435
60.050 22.421566
60.055 22.681026
60.060 22.85144
60.065 22.773197
60.070 22.689972
60.075 22.553585
60.080 21.818054
60.085 21.890835
60.090 22.210688
60.095 22.541254
60.100 22.76354
60.105 22.431211
60.110 22.166821
60.115 22.745464
60.120 22.679607
60.125 22.056562
60.130 21.01668
60.135 19.986401
60.140 20.153284
60.145 20.127243
60.150 20.180176
60.155 19.706877
60.160 19.91522
60.165 20.755198
60.170 21.919617
60.175 21.969946
60.180 21.767866
60.185 21.350445
60.190 21.331587
60.195 21.387001
60.200 21.68321
60.205 21.912395
60.210 22.203966
60.215 22.440914
60.220 22.299047
60.225 22.974272
60.230 23.68829
60.235 23.564123
60.240 23.528368
60.245 23.216215
60.250 23.312632
60.255 23.72912
60.260 23.158705
60.265 22.76828
60.270 22.643339
60.275 22.125608
60.280 22.42725
60.285 22.102161
60.290 21.886671
60.295 21.595396
60.300 22.040768
60.305 22.120737
60.310 22.506493
60.315 23.096457
60.320 23.986431
60.325 24.655445
60.330 24.861683
60.335 24.338718
60.340 24.225912
60.345 24.028412
60.350 22.836845
60.355 22.183224
60.360 22.268997
60.365 22.149103
60.370 21.949932
60.375 21.585737
60.380 22.121773
60.385 22.785551
60.390 22.541059
60.395 22.348562
60.400 22.304493
60.405 22.312086
60.410 22.147036
60.415 21.577473
60.420 21.508068
60.425 20.843386
60.430 20.407393
60.435 20.329067
60.440 20.056057
60.445 19.894112
60.450 19.704508
60.455 19.331654
60.460 19.465681
60.465 19.700743
60.470 19.587616
60.475 19.685835
60.480 20.002319
60.485 20.294115
60.490 20.47522
60.495 20.456631
60.500 19.52339
60.505 19.941355
60.510 19.942257
60.515 19.731079
60.520 19.013578
60.525 18.472191
60.530 18.523006
60.535 18.859869
60.540 18.692232
60.545 18.250158
60.550 18.228867
60.555 18.438379
60.560 18.707392
60.565 18.922279
60.570 19.180452
60.575 19.115313
60.580 19.758043
60.585 20.084877
60.590 20.46723
60.595 20.361296
60.600 20.330156
60.605 20.204994
60.610 20.2262
60.615 20.037605
60.620 20.254526
60.625 20.73881
60.630 20.630083
60.635 20.406168
60.640 20.499662
60.645 20.77494
60.650 20.407225
60.655 19.422029
60.660 18.710434
60.665 18.957485
60.670 18.614237
60.675 18.224495
60.680 18.259277
60.685 18.113518
60.690 17.705927
60.695 17.937286
60.700 18.061552
60.705 18.576202
60.710 18.862549
60.715 18.719927
60.720 18.95686
60.725 19.568237
60.730 19.301924
60.735 18.924128
60.740 19.132652
60.745 18.613848
60.750 18.255905
60.755 18.196075
60.760 18.006166
60.765 17.975996
60.770 17.894667
60.775 17.346207
60.780 17.254236
60.785 17.476933
60.790 17.201099
60.795 17.041462
60.800 16.822598
60.805 16.977257
60.810 17.390106
60.815 17.706507
60.820 17.593248
60.825 17.772638
60.830 17.958233
60.835 18.343935
60.840 18.562235
60.845 18.728354
60.850 18.660425
60.855 18.482004
60.860 18.254528
60.865 18.077183
60.870 17.870644
60.875 17.545637
60.880 17.063015
60.885 16.841888
60.890 17.373453
60.895 18.174786
60.900 18.500282
60.905 18.456665
60.910 18.17873
60.915 17.886021
60.920 18.172131
60.925 17.900486
60.930 17.65081
60.935 17.402304
60.940 17.414518
60.945 17.753271
60.950 18.281324
60.955 17.975651
60.960 17.60755
60.965 17.449842
60.970 17.203419
60.975 16.691763
60.980 16.260883
60.985 15.892319
60.990 15.655143
60.995 15.840724
61.000 16.482002
61.005 17.151428
61.010 17.648485
61.015 17.771898
61.020 18.195232
61.025 18.521475
61.030 18.489544
61.035 17.842794
61.040 17.231009
61.045 17.200581
61.050 17.821878
61.055 17.75963
61.060 17.437841
61.065 16.942963
61.070 16.959627
61.075 17.020952
61.080 17.423332
61.085 17.43799
61.090 17.29954
61.095 17.588575
61.100 18.216208
61.105 18.030844
61.110 18.00765
61.115 17.162916
61.120 16.333218
61.125 15.669117
61.130 15.827511
61.135 16.242695
61.140 16.466295
61.145 16.576885
61.150 16.869394
61.155 17.150806
61.160 17.924789
61.165 16.875998
61.170 16.282263
61.175 16.539314
61.180 16.616508
61.185 16.599411
61.190 16.040644
61.195 15.739152
61.200 16.232958
61.205 16.000206
61.210 15.772447
61.215 16.038881
61.220 16.467056
61.225 16.949537
61.230 17.083555
61.235 16.715967
61.240 16.273106
61.245 16.184891
61.250 16.564095
61.255 16.952866
61.260 17.192467
61.265 17.639786
61.270 18.752539
61.275 19.320215
61.280 19.222235
61.285 18.639582
61.290 18.301012
61.295 18.514389
61.300 18.080671
61.305 17.566057
61.310 18.05204
61.315 18.074699
61.320 17.71521
61.325 17.937973
61.330 17.915688
61.335 18.022741
61.340 18.10391
61.345 17.655447
61.350 18.029097
61.355 18.192566
61.360 18.012171
61.365 18.291533
61.370 18.362028
61.375 17.245007
61.380 17.128685
61.385 17.02618
61.390 17.153358
61.395 16.829908
61.400 16.598932
61.405 16.639736
61.410 18.060677
61.415 18.444834
61.420 18.469744
61.425 18.577215
61.430 18.861465
61.435 18.954716
61.440 18.748541
61.445 18.23595
61.450 17.570333
61.455 18.011995
61.460 18.24284
61.465 17.716805
61.470 17.766527
61.475 18.190027
61.480 18.359486
61.485 18.434677
61.490 17.715599
61.495 17.43396
61.500 17.243853
61.505 16.946714
61.510 16.912828
61.515 16.811388
61.520 17.290302
61.525 17.725433
61.530 17.562393
61.535 17.383572
61.540 17.482189
61.545 17.711821
61.550 17.849339
61.555 17.729641
61.560 17.818134
61.565 18.186714
61.570 18.544603
61.575 18.539808
61.580 17.92845
61.585 17.685648
61.590 17.25584
61.595 16.418016
61.600 15.971189
61.605 15.957461
61.610 15.398564
61.615 15.690031
61.620 15.244082
61.625 15.5924
61.630 16.159286
61.635 16.282515
61.640 16.50156
61.645 16.890928
61.650 16.605759
61.655 16.62892
61.660 16.613113
61.665 16.788628
61.670 16.759079
61.675 17.120127
61.680 16.80862
61.685 16.813986
61.690 16.968527
61.695 16.573984
61.700 16.306717
61.705 16.296312
61.710 15.773959
61.715 17.03326
61.720 17.665476
61.725 18.041224
61.730 18.694258
61.735 19.042402
61.740 19.216711
61.745 19.094112
61.750 18.218481
61.755 18.191998
61.760 18.608896
61.765 18.563107
61.770 18.667978
61.775 18.658405
61.780 18.549162
61.785 18.066883
61.790 17.635952
61.795 17.222383
61.800 17.153128
61.805 16.90468
61.810 16.530045
61.815 16.821182
61.820 17.510239
61.825 17.999994
61.830 17.695246
61.835 17.7339
61.840 18.274191
61.845 18.530767
61.850 18.814253
61.855 18.414856
61.860 18.053404
61.865 18.283949
61.870 17.929182
61.875 17.800888
61.880 18.16733
61.885 17.950411
61.890 17.531839
61.895 17.247694
61.900 17.254519
61.905 16.886578
61.910 17.059998
61.915 16.691256
61.920 16.481634
61.925 17.334509
61.930 17.455818
61.935 17.444983
61.940 17.493143
61.945 16.903715
61.950 17.202196
61.955 17.116732
61.960 16.629147
61.965 16.828068
61.970 17.159904
61.975 17.029806
61.980 16.928967
61.985 16.230885
61.990 15.936242
61.995 15.90791
62.000 15.800938
62.005 15.621033
62.010 15.898776
62.015 15.980348
62.020 16.583944
62.025 16.860777
62.030 17.077072
62.035 16.824802
62.040 16.908533
62.045 16.775108
62.050 16.772417
62.055 16.811771
62.060 17.215174
62.065 17.387823
62.070 17.716595
62.075 17.755079
62.080 17.63546
62.085 17.227745
62.090 16.964535
62.095 16.862778
62.100 16.964954
62.105 16.862633
62.110 17.271919
62.115 17.358063
62.120 17.469221
62.125 17.808588
62.130 17.073542
62.135 16.465391
62.140 16.319412
62.145 15.507316
62.150 15.740816
62.155 16.155558
62.160 16.122972
62.165 17.071371
62.170 17.198526
62.175 17.241219
62.180 17.549603
62.185 17.903786
62.190 18.03982
62.195 17.927443
62.200 17.519436
62.205 18.350302
62.210 18.500782
62.215 18.317524
62.220 17.825884
62.225 17.434734
62.230 17.332701
62.235 17.437792
62.240 17.143492
62.245 17.318052
62.250 17.135695
62.255 17.333807
62.260 17.4494
62.265 17.55838
62.270 16.940792
62.275 16.116816
62.280 15.81135
62.285 16.17404
62.290 16.064461
62.295 15.954318
62.300 16.029919
62.305 16.74976
62.310 17.395622
62.315 17.034292
62.320 17.056358
62.325 16.625551
62.330 17.087448
62.335 16.899538
62.340 16.87812
62.345 17.055429
62.350 17.243042
62.355 17.271299
62.360 17.347145
62.365 16.47501
62.370 15.650021
62.375 14.974334
62.380 14.522871
62.385 14.556322
62.390 14.644956
62.395 15.422798
62.400 15.800289
62.405 16.244837
62.410 17.165159
62.415 17.498093
62.420 17.882696
62.425 17.952414
62.430 17.726496
62.435 18.065256
62.440 18.291988
62.445 18.349779
62.450 18.617521
62.455 18.940372
62.460 18.790873
62.465 19.28137
62.470 19.719862
62.475 19.731207
62.480 19.543497
62.485 19.042149
62.490 17.833359
62.495 17.786993
62.500 17.079678
62.505 16.200716
62.510 15.848792
62.515 15.652865
62.520 15.695576
62.525 16.384558
62.530 16.41489
62.535 16.262341
62.540 16.495802
62.545 16.418015
62.550 16.14356
62.555 16.807993
62.560 16.73797
62.565 16.405161
62.570 16.433823
62.575 16.228117
62.580 16.583942
62.585 16.260231
62.590 15.833322
62.595 15.83296
62.600 15.991635
62.605 16.639948
62.610 17.15181
62.615 17.197792
62.620 16.610258
62.625 16.222445
62.630 15.900392
62.635 16.08226
62.640 15.962423
62.645 15.885793
62.650 16.105658
62.655 16.925755
62.660 17.013069
62.665 17.043219
62.670 17.164341
62.675 17.3554
62.680 17.523918
62.685 17.638681
62.690 17.598209
62.695 17.738255
62.700 17.865891
62.705 17.858753
62.710 17.702824
62.715 17.884768
62.720 18.145115
62.725 18.705069
62.730 19.495451
62.735 20.024773
62.740 19.967688
62.745 20.094498
62.750 19.977057
62.755 19.793667
62.760 19.324472
62.765 18.838043
62.770 18.238504
62.775 18.110796
62.780 17.395681
62.785 17.052675
62.790 16.671719
62.795 16.768696
62.800 16.935404
62.805 17.426319
62.810 17.530676
62.815 17.982841
62.820 18.252201
62.825 18.490273
62.830 18.453569
62.835 18.326138
62.840 17.629198
62.845 17.28767
62.850 17.326281
62.855 17.159018
62.860 16.76351
62.865 16.722252
62.870 17.007353
62.875 17.614538
62.880 17.867222
62.885 17.675146
62.890 17.461897
62.895 17.372513
62.900 17.550062
62.905 16.917864
62.910 17.076904
62.915 16.967628
62.920 17.539852
62.925 17.88624
62.930 18.139053
62.935 17.845829
62.940 18.124405
62.945 18.444147
62.950 18.532087
62.955 17.982628
62.960 17.665886
62.965 17.334137
62.970 17.574234
62.975 17.883947
62.980 17.47892
62.985 17.321287
62.990 17.643906
62.995 17.658531
63.000 17.991131
63.005 17.663958
63.010 17.000639
63.015 16.661093
63.020 16.364016
63.025 16.725811
63.030 16.990906
63.035 17.14395
63.040 17.516792
63.045 17.960239
63.050 17.975462
63.055 17.952267
63.060 17.59539
63.065 17.747381
63.070 17.976519
63.075 17.96718
63.080 17.567011
63.085 18.081276
63.090 18.157812
63.095 17.835264
63.100 17.681459
63.105 16.881987
63.110 16.188515
63.115 16.11854
63.120 16.059992
63.125 16.466555
63.130 16.440859
63.135 16.193693
63.140 17.209906
63.145 17.800722
63.150 17.549242
63.155 17.311495
63.160 17.338547
63.165 17.562092
63.170 17.92642
63.175 17.350241
63.180 17.592541
63.185 18.128603
63.190 17.795628
63.195 17.438789
63.200 17.372005
63.205 17.343311
63.210 17.381311
63.215 17.332813
63.220 17.372719
63.225 17.316286
63.230 17.318333
63.235 17.102654
63.240 16.777939
63.245 16.251825
63.250 16.24424
63.255 16.066227
63.260 15.987351
63.265 15.742193
63.270 15.986275
63.275 16.806637
63.280 17.24898
63.285 17.157267
63.290 17.236242
63.295 17.450914
63.300 18.089977
63.305 18.144367
63.310 17.516098
63.315 18.021744
63.320 17.926285
63.325 17.862375
63.330 18.352673
63.335 17.980902
63.340 18.183838
63.345 18.488901
63.350 18.097435
63.355 18.327686
63.360 19.066381
63.365 19.473265
63.370 19.589195
63.375 19.178156
63.380 18.721869
63.385 18.22662
63.390 18.148798
63.395 17.445423
63.400 16.408375
63.405 15.788089
63.410 15.838081
63.415 15.791603
63.420 15.659867
63.425 15.379313
63.430 15.875647
63.435 16.252594
63.440 16.279364
63.445 16.377487
63.450 16.519323
63.455 16.879311
63.460 17.614702
63.465 16.899313
63.470 16.964319
63.475 17.585651
63.480 17.503344
63.485 17.668188
63.490 17.954504
63.495 17.750961
63.500 18.051239
63.505 18.16983
63.510 18.135229
63.515 18.0509
63.520 17.810732
63.525 17.540804
63.530 17.148129
63.535 17.292177
63.540 17.194096
63.545 17.458055
63.550 18.13715
63.555 18.073292
63.560 17.850386
63.565 17.636421
63.570 17.170185
63.575 16.715553
63.580 16.087866
63.585 15.440193
63.590 15.661234
63.595 16.073866
63.600 16.774479
63.605 17.861443
63.610 18.838449
63.615 19.15358
63.620 19.466597
63.625 19.516426
63.630 19.332222
63.635 18.916603
63.640 18.391911
63.645 17.594547
63.650 17.245178
63.655 17.131723
63.660 17.453369
63.665 17.886271
63.670 18.63496
63.675 18.863386
63.680 19.826954
63.685 20.51391
63.690 20.637762
63.695 20.542013
63.700 20.198034
63.705 19.466198
63.710 19.292263
63.715 18.539543
63.720 18.729515
63.725 18.67634
63.730 19.083691
63.735 19.333559
63.740 19.838972
63.745 19.574936
63.750 19.396296
63.755 18.574312
63.760 18.6096
63.765 18.198534
63.770 18.571524
63.775 18.258787
63.780 18.261646
63.785 18.832792
63.790 19.152901
63.795 19.109831
63.800 18.888338
63.805 17.595022
63.810 17.72937
63.815 17.966928
63.820 17.62475
63.825 17.396374
63.830 17.241594
63.835 17.637142
63.840 18.008007
63.845 18.021721
63.850 17.905478
63.855 17.918161
63.860 18.295643
63.865 18.107548
63.870 17.71294
63.875 17.758636
63.880 17.535419
63.885 17.32902
63.890 17.654839
63.895 17.415342
63.900 17.525532
63.905 17.583586
63.910 17.920383
63.915 18.70204
63.920 19.419733
63.925 19.496803
63.930 19.797903
63.935 19.799776
63.940 19.886652
63.945 19.624256
63.950 18.462282
63.955 17.691214
63.960 17.762726
63.965 17.855936
63.970 18.515362
63.975 18.927536
63.980 19.220633
63.985 19.632902
63.990 20.121677
63.995 19.833382
64.000 20.113417
64.005 19.905821
64.010 20.036968
64.015 20.168283
64.020 20.232851
64.025 19.971926
64.030 20.00812
64.035 19.912483
64.040 19.798025
64.045 19.372387
64.050 19.106365
64.055 18.257866
64.060 18.063229
64.065 17.966047
64.070 17.744295
64.075 17.722708
64.080 17.833658
64.085 18.394392
64.090 19.322613
64.095 19.769091
64.100 19.98468
64.105 19.851934
64.110 19.629204
64.115 19.736744
64.120 19.223909
64.125 19.31002
64.130 18.65518
64.135 18.221533
64.140 18.308285
64.145 18.385811
64.150 18.54187
64.155 19.073174
64.160 18.082449
64.165 17.727545
64.170 17.831873
64.175 17.875483
64.180 17.843309
64.185 17.585468
64.190 16.889612
64.195 17.409943
64.200 17.832539
64.205 18.09082
64.210 18.261229
64.215 18.451382
64.220 18.029047
64.225 18.118887
64.230 17.830711
64.235 17.869669
64.240 17.882742
64.245 17.449238
64.250 17.459332
64.255 18.103319
64.260 18.040712
64.265 18.464369
64.270 18.929579
64.275 18.834414
64.280 18.678909
64.285 18.191631
64.290 17.688707
64.295 17.408882
64.300 17.466743
64.305 16.901371
64.310 17.020216
64.315 17.467033
64.320 17.369144
64.325 17.554071
64.330 17.94866
64.335 17.890272
64.340 17.920996
64.345 17.382624
64.350 17.469887
64.355 17.912849
64.360 17.994419
64.365 17.686575
64.370 17.736752
64.375 17.60726
64.380 17.619356
64.385 17.180492
64.390 17.018805
64.395 17.097731
64.400 17.186541
64.405 17.238754
64.410 17.530109
64.415 17.869469
64.420 18.375727
64.425 18.531925
64.430 18.969418
64.435 19.474304
64.440 19.631092
64.445 19.756075
64.450 19.497669
64.455 19.37718
64.460 19.407129
64.465 18.953512
64.470 19.085327
64.475 19.008289
64.480 19.035927
64.485 19.171007
64.490 19.531538
64.495 19.847506
64.500 20.946409
64.505 21.162333
64.510 21.339218
64.515 21.485493
64.520 21.569283
64.525 20.786819
64.530 19.974911
64.535 19.204691
64.540 19.004013
64.545 18.857691
64.550 18.906225
64.555 18.921989
64.560 19.919201
64.565 20.348043
64.570 20.28727
64.575 20.030624
64.580 19.769394
64.585 19.953318
64.590 19.983013
64.595 19.410856
64.600 19.198921
64.605 19.291716
64.610 19.629293
64.615 19.724489
64.620 19.695826
64.625 19.30493
64.630 19.17963
64.635 19.59144
64.640 18.9849
64.645 18.922533
64.650 18.709255
64.655 18.419279
64.660 18.817177
64.665 18.145761
64.670 17.601103
64.675 17.247553
64.680 16.833855
64.685 16.634005
64.690 16.690966
64.695 16.810936
64.700 17.422533
64.705 17.77043
64.710 17.977814
64.715 18.343472
64.720 18.529606
64.725 19.003441
64.730 18.632935
64.735 18.331347
64.740 18.09137
64.745 18.444229
64.750 18.854219
64.755 19.073494
64.760 18.149597
64.765 18.264198
64.770 18.6399
64.775 18.961386
64.780 19.005848
64.785 19.344213
64.790 19.559027
64.795 20.26539
64.800 20.696964
64.805 21.112665
64.810 21.159365
64.815 20.975237
64.820 20.239931
64.825 20.206089
64.830 20.071705
64.835 20.478296
64.840 20.25598
64.845 20.213499
64.850 20.553146
64.855 20.336042
64.860 20.37949
64.865 20.544064
64.870 19.804747
64.875 19.694508
64.880 19.888348
64.885 19.958527
64.890 20.099787
64.895 20.162169
64.900 19.777357
64.905 20.015944
64.910 19.298775
64.915 19.317999
64.920 19.512154
64.925 19.558172
64.930 19.307697
64.935 19.646194
64.940 20.016016
64.945 20.945013
64.950 21.270386
64.955 21.102016
64.960 21.860994
64.965 22.174816
64.970 21.811684
64.975 22.119133
64.980 22.206049
64.985 22.09379
64.990 22.114693
64.995 21.780071
65.000 21.500307
65.005 22.049702
65.010 21.90102
65.015 21.803823
65.020 21.664938
65.025 21.496029
65.030 20.808655
65.035 20.682413
65.040 19.886919
65.045 20.285141
65.050 20.370209
65.055 20.78536
65.060 21.214018
65.065 22.289671
65.070 22.648149
65.075 23.097622
65.080 22.829762
65.085 23.299032
65.090 24.022228
65.095 24.552916
65.100 24.131775
65.105 24.32543
65.110 24.394129
65.115 23.953005
65.120 23.326637
65.125 23.664448
65.130 24.026836
65.135 24.808649
65.140 24.158173
65.145 24.142813
65.150 24.198662
65.155 24.48414
65.160 23.141602
65.165 22.08433
65.170 21.70186
65.175 21.982817
65.180 21.586086
65.185 21.918915
65.190 21.941282
65.195 22.341566
65.200 22.523876
65.205 22.523201
65.210 22.480936
65.215 21.821793
65.220 20.947691
65.225 21.005173
65.230 21.006683
65.235 21.137251
65.240 20.90571
65.245 21.554478
65.250 21.980064
65.255 21.889887
65.260 22.32501
65.265 22.445011
65.270 22.730711
65.275 22.882893
65.280 23.017477
65.285 24.272671
65.290 24.976139
65.295 23.816927
65.300 23.672922
65.305 23.947367
65.310 24.205011
65.315 24.25672
65.320 23.797358
65.325 23.447716
65.330 24.250723
65.335 23.92803
65.340 23.612305
65.345 23.689781
65.350 23.068062
65.355 22.889029
65.360 22.479342
65.365 22.075115
65.370 21.706482
65.375 21.611973
65.380 21.751499
65.385 22.155476
65.390 22.877003
65.395 23.282902
65.400 23.517622
65.405 24.487024
65.410 24.415905
65.415 24.843628
65.420 25.122696
65.425 24.424109
65.430 24.132866
65.435 24.564684
65.440 25.328909
65.445 25.431211
65.450 24.975872
65.455 24.506655
65.460 24.802919
65.465 25.437437
65.470 25.071939
65.475 24.709944
65.480 25.146162
65.485 24.924913
65.490 25.502274
65.495 26.188196
65.500 26.420156
65.505 26.593315
65.510 26.050959
65.515 25.58477
65.520 25.65484
65.525 25.157717
65.530 25.006781
65.535 24.836821
65.540 24.659447
65.545 24.956018
65.550 25.685843
65.555 26.282162
65.560 26.865126
65.565 27.061279
65.570 27.807287
65.575 28.151417
65.580 28.598991
65.585 29.216375
65.590 29.348627
65.595 30.060793
65.600 30.152512
65.605 30.253325
65.610 30.845787
65.615 30.648409
65.620 30.537973
65.625 30.78307
65.630 30.315685
65.635 30.241371
65.640 30.311373
65.645 30.980017
65.650 31.677067
65.655 31.122622
65.660 30.676722
65.665 30.504324
65.670 30.752396
65.675 31.421938
65.680 31.438745
65.685 31.75304
65.690 32.449223
65.695 32.885738
65.700 33.415131
65.705 32.854954
65.710 32.662251
65.715 33.404182
65.720 33.925793
65.725 34.199417
65.730 34.631912
65.735 34.821819
65.740 35.303135
65.745 35.241455
65.750 34.408714
65.755 34.570641
65.760 34.721474
65.765 34.724483
65.770 35.661339
65.775 35.788361
65.780 35.623802
65.785 36.064716
65.790 35.595844
65.795 35.49897
65.800 35.773972
65.805 34.999416
65.810 34.40324
65.815 34.288548
65.820 34.65797
65.825 35.808086
65.830 36.004311
65.835 35.920784
65.840 36.464016
65.845 36.514385
65.850 36.786854
65.855 36.828472
65.860 36.337345
65.865 36.774746
65.870 36.889313
65.875 36.890476
65.880 37.505611
65.885 38.032516
65.890 37.876499
65.895 37.981941
65.900 37.57246
65.905 38.034893
65.910 38.496296
65.915 39.013496
65.920 38.877991
65.925 39.26326
65.930 39.927814
65.935 40.283287
65.940 40.143173
65.945 40.208023
65.950 40.712215
65.955 40.388065
65.960 40.171185
65.965 39.43306
65.970 39.83456
65.975 39.809357
65.980 39.751732
65.985 38.972095
65.990 39.403397
65.995 39.370213
66.000 40.45747
66.005 39.341084
66.010 39.184261
66.015 38.736313
66.020 38.599541
66.025 37.869373
66.030 37.190598
66.035 36.955524
66.040 37.567368
66.045 37.937565
66.050 37.955441
66.055 37.465622
66.060 38.14793
66.065 38.769505
66.070 37.238331
66.075 37.294361
66.080 37.200241
66.085 36.900959
66.090 37.647858
66.095 37.575043
66.100 37.80233
66.105 38.64653
66.110 38.296703
66.115 37.644085
66.120 37.93737
66.125 37.793308
66.130 36.741676
66.135 36.605091
66.140 36.359264
66.145 36.147659
66.150 36.820263
66.155 36.752205
66.160 36.329811
66.165 36.988171
66.170 37.278694
66.175 38.089119
66.180 38.307724
66.185 38.201035
66.190 38.490154
66.195 38.217854
66.200 37.911266
66.205 36.749966
66.210 35.764862
66.215 35.683498
66.220 35.593155
66.225 35.129761
66.230 35.174747
66.235 35.092644
66.240 35.459732
66.245 35.529037
66.250 34.908279
66.255 35.313965
66.260 36.284088
66.265 36.828068
66.270 36.795429
66.275 36.472912
66.280 36.292103
66.285 36.167233
66.290 35.504501
66.295 34.81316
66.300 34.491455
66.305 34.681866
66.310 34.185875
66.315 34.263268
66.320 34.386494
66.325 34.195461
66.330 34.189548
66.335 34.205643
66.340 33.746647
66.345 33.869114
66.350 32.918938
66.355 31.85898
66.360 31.371336
66.365 31.342693
66.370 31.272316
66.375 31.204865
66.380 30.944111
66.385 31.416039
66.390 32.159618
66.395 31.702709
66.400 30.546148
66.405 29.650648
66.410 30.498745
66.415 31.074594
66.420 31.129246
66.425 31.019598
66.430 30.91851
66.435 31.28545
66.440 31.055948
66.445 29.192827
66.450 29.036554
66.455 28.839756
66.460 29.056114
66.465 29.651596
66.470 30.032942
66.475 30.240801
66.480 30.37804
66.485 29.72514
66.490 28.988342
66.495 28.042702
66.500 27.775602
66.505 27.744246
66.510 27.860891
66.515 27.63183
66.520 27.540157
66.525 28.633934
66.530 28.550356
66.535 28.081518
66.540 27.795197
66.545 27.376284
66.550 26.861847
66.555 26.29949
66.560 25.834167
66.565 26.253355
66.570 26.457258
66.575 25.725069
66.580 25.321861
66.585 25.696554
66.590 26.582033
66.595 27.406828
66.600 27.270559
66.605 26.844864
66.610 27.667887
66.615 28.34293
66.620 28.316109
66.625 27.732552
66.630 26.369596
66.635 25.921169
66.640 25.710121
66.645 25.075073
66.650 25.074829
66.655 25.021078
66.660 24.589661
66.665 24.857756
66.670 25.194017
66.675 25.09564
66.680 25.118866
66.685 24.902067
66.690 25.044502
66.695 25.47348
66.700 24.845387
66.705 24.31296
66.710 24.281231
66.715 23.778831
66.720 22.962471
66.725 22.376648
66.730 21.850636
66.735 21.857054
66.740 21.837521
66.745 21.907465
66.750 22.487282
66.755 23.641384
66.760 23.748346
66.765 24.248108
66.770 24.805849
66.775 25.449553
66.780 25.307821
66.785 24.28837
66.790 23.257658
66.795 23.172327
66.800 23.00293
66.805 22.585888
66.810 21.892982
66.815 21.534
66.820 21.931396
66.825 22.447481
66.830 22.104151
66.835 21.93906
66.840 22.064325
66.845 22.376307
66.850 23.130379
66.855 23.681343
66.860 23.995371
66.865 24.335396
66.870 24.700726
66.875 24.985132
66.880 25.013065
66.885 24.691076
66.890 23.913832
66.895 23.518141
66.900 23.930752
66.905 23.443588
66.910 23.206329
66.915 23.649918
66.920 24.29565
66.925 24.673189
66.930 24.612432
66.935 24.663195
66.940 25.577263
66.945 25.663567
66.950 24.828804
66.955 24.045006
66.960 23.798796
66.965 23.532213
66.970 22.998857
66.975 22.845257
66.980 22.856459
66.985 23.363018
66.990 23.664934
66.995 23.689068
67.000 23.400913
67.005 23.25926
67.010 23.600864
67.015 23.755899
67.020 24.095697
67.025 24.539646
67.030 24.853155
67.035 25.252354
67.040 25.51511
67.045 25.295668
67.050 25.205788
67.055 24.634317
67.060 24.214874
67.065 24.146172
67.070 24.527454
67.075 24.367424
67.080 24.11404
67.085 24.160711
67.090 24.298605
67.095 24.203165
67.100 23.562513
67.105 22.736637
67.110 22.390224
67.115 22.240074
67.120 22.699387
67.125 22.521551
67.130 22.679733
67.135 22.773676
67.140 22.512075
67.145 22.325314
67.150 22.30706
67.155 21.258823
67.160 20.921829
67.165 20.845276
67.170 21.2178
67.175 21.745502
67.180 22.024626
67.185 22.314724
67.190 22.325724
67.195 22.574585
67.200 22.745329
67.205 22.931267
67.210 23.249111
67.215 23.176075
67.220 23.120441
67.225 23.563953
67.230 23.594393
67.235 23.716951
67.240 23.361607
67.245 22.858135
67.250 22.75259
67.255 22.78462
67.260 22.705185
67.265 22.513424
67.270 22.135365
67.275 22.224249
67.280 21.39583
67.285 21.320383
67.290 21.135658
67.295 21.01425
67.300 21.084698
67.305 21.218878
67.310 21.491751
67.315 21.975784
67.320 22.006958
67.325 22.67491
67.330 22.487265
67.335 22.54796
67.340 22.118101
67.345 22.181318
67.350 22.842102
67.355 22.623251
67.360 22.233534
67.365 22.90049
67.370 23.223743
67.375 23.925148
67.380 23.144806
67.385 22.306917
67.390 22.28788
67.395 21.643618
67.400 20.551836
67.405 19.832638
67.410 19.571432
67.415 19.52503
67.420 20.07019
67.425 20.52817
67.430 21.025352
67.435 21.400574
67.440 21.165943
67.445 21.138054
67.450 21.186581
67.455 20.495682
67.460 19.830755
67.465 20.330034
67.470 20.950592
67.475 21.540041
67.480 21.587526
67.485 21.10878
67.490 21.523691
67.495 21.639809
67.500 21.261229
67.505 20.808216
67.510 20.522757
67.515 20.866169
67.520 21.27556
67.525 21.210699
67.530 21.13208
67.535 21.24828
67.540 21.452177
67.545 21.422882
67.550 20.894342
67.555 20.631218
67.560 20.728142
67.565 21.168083
67.570 21.020969
67.575 21.02326
67.580 21.209179
67.585 21.832603
67.590 21.923529
67.595 21.329668
67.600 20.515522
67.605 20.403309
67.610 20.689522
67.615 20.642925
67.620 20.261211
67.625 20.785959
67.630 21.528849
67.635 21.828402
67.640 21.609453
67.645 21.585817
67.650 21.461563
67.655 21.458359
67.660 21.091059
67.665 20.529434
67.670 20.416891
67.675 20.366699
67.680 20.405262
67.685 20.999958
67.690 21.248436
67.695 21.611502
67.700 21.851629
67.705 21.422174
67.710 20.838739
67.715 20.933573
67.720 20.842505
67.725 21.269823
67.730 20.727783
67.735 20.396732
67.740 20.745249
67.745 20.810089
67.750 20.324604
67.755 19.782892
67.760 19.357134
67.765 18.718943
67.770 19.195171
67.775 19.94664
67.780 20.04932
67.785 19.993387
67.790 20.400061
67.795 20.812054
67.800 20.975241
67.805 20.294851
67.810 19.716642
67.815 19.413523
67.820 19.677618
67.825 19.571033
67.830 19.605141
67.835 20.341478
67.840 20.244013
67.845 20.49165
67.850 20.471584
67.855 20.284327
67.860 19.552906
67.865 19.36809
67.870 19.385315
67.875 19.130461
67.880 18.720886
67.885 18.927851
67.890 19.272409
67.895 19.858826
67.900 20.136347
67.905 20.020449
67.910 20.213961
67.915 20.441065
67.920 20.310799
67.925 19.654114
67.930 19.291851
67.935 19.477953
67.940 19.664207
67.945 19.761744
67.950 19.874388
67.955 20.168228
67.960 20.54874
67.965 21.103693
67.970 21.215834
67.975 20.831736
67.980 20.534575
67.985 21.270741
67.990 21.120485
67.995 20.79208
68.000 20.287382
68.005 20.32382
68.010 20.722733
68.015 20.779028
68.020 20.102781
68.025 19.673969
68.030 20.399424
68.035 20.692657
68.040 20.719681
68.045 21.666565
68.050 21.656973
68.055 22.083822
68.060 22.509014
68.065 21.687607
68.070 21.153131
68.075 20.663
68.080 20.466354
68.085 20.748476
68.090 20.723543
68.095 20.988768
68.100 21.565323
68.105 21.731461
68.110 22.007927
68.115 21.553911
68.120 21.458538
68.125 21.809456
68.130 21.771868
68.135 21.796007
68.140 21.860546
68.145 21.422426
68.150 21.68849
68.155 21.137165
68.160 20.882887
68.165 20.728952
68.170 20.079527
68.175 20.573174
68.180 21.199327
68.185 20.847097
68.190 21.147243
68.195 21.25967
68.200 21.609158
68.205 21.886051
68.210 22.117432
68.215 22.12723
68.220 22.18778
68.225 21.931671
68.230 21.659348
68.235 21.410057
68.240 21.492905
68.245 21.755035
68.250 21.505823
68.255 21.499756
68.260 22.241837
68.265 22.793533
68.270 23.318726
68.275 22.808002
68.280 22.216455
68.285 22.64856
68.290 22.950813
68.295 22.221718
68.300 21.792086
68.305 21.717943
68.310 21.826321
68.315 21.585865
68.320 20.463533
68.325 19.378954
68.330 19.32065
68.335 18.502182
68.340 18.58976
68.345 18.262564
68.350 17.849104
68.355 18.985489
68.360 19.552
68.365 19.582214
68.370 19.870659
68.375 19.392424
68.380 19.765244
68.385 19.561701
68.390 19.443649
68.395 19.928402
68.400 19.843769
68.405 19.499063
68.410 19.837582
68.415 19.982712
68.420 20.451143
68.425 19.99017
68.430 19.280659
68.435 19.664232
68.440 19.905979
68.445 19.858635
68.450 20.006134
68.455 20.328825
68.460 20.501245
68.465 20.627417
68.470 20.831646
68.475 20.655041
68.480 20.446035
68.485 20.34148
68.490 20.226364
68.495 21.017414
68.500 21.314129
68.505 21.186144
68.510 21.106747
68.515 21.201124
68.520 21.26663
68.525 20.910927
68.530 20.681129
68.535 20.542387
68.540 20.481939
68.545 21.105354
68.550 21.423531
68.555 21.731352
68.560 22.189957
68.565 21.764393
68.570 22.044426
68.575 22.130722
68.580 21.78619
68.585 22.080111
68.590 22.708447
68.595 22.376797
68.600 22.52482
68.605 22.600552
68.610 22.710068
68.615 23.402054
68.620 22.965487
68.625 22.64835
68.630 23.744957
68.635 24.56855
68.640 25.069288
68.645 24.219488
68.650 23.284458
68.655 23.331015
68.660 22.695749
68.665 22.196918
68.670 21.312305
68.675 21.106977
68.680 22.436865
68.685 23.551498
68.690 24.005934
68.695 24.442604
68.700 24.640957
68.705 24.868004
68.710 24.564215
68.715 24.430655
68.720 23.668074
68.725 23.305109
68.730 22.719627
68.735 22.878901
68.740 22.970642
68.745 23.252897
68.750 22.817476
68.755 23.222157
68.760 23.819452
68.765 24.134731
68.770 23.641857
68.775 23.350164
68.780 23.374561
68.785 23.174219
68.790 22.562523
68.795 21.855858
68.800 21.836449
68.805 21.824518
68.810 22.116283
68.815 21.846853
68.820 21.881058
68.825 22.219261
68.830 22.904158
68.835 23.192659
68.840 23.243965
68.845 23.564732
68.850 23.996218
68.855 24.181511
68.860 24.041815
68.865 23.655767
68.870 23.557621
68.875 23.314302
68.880 23.00843
68.885 22.589596
68.890 22.14156
68.895 21.93432
68.900 21.544065
68.905 21.360569
68.910 21.879362
68.915 21.94643
68.920 21.845589
68.925 22.333405
68.930 22.903528
68.935 23.830257
68.940 23.607061
68.945 23.587757
68.950 24.319311
68.955 24.530535
68.960 24.497427
68.965 23.993385
68.970 23.208984
68.975 23.408957
68.980 23.093472
68.985 22.782927
68.990 23.316603
68.995 23.590239
69.000 24.287146
69.005 25.238111
69.010 25.609882
69.015 25.225451
69.020 25.012339
69.025 24.700457
69.030 24.405037
69.035 24.249411
69.040 23.70999
69.045 23.190092
69.050 23.237469
69.055 23.269485
69.060 23.217247
69.065 23.356167
69.070 22.957956
69.075 23.290224
69.080 23.388264
69.085 23.884031
69.090 24.065041
69.095 24.471172
69.100 24.348499
69.105 25.221418
69.110 25.781527
69.115 25.906599
69.120 25.508816
69.125 25.769772
69.130 25.791348
69.135 25.969604
69.140 25.41165
69.145 25.433039
69.150 25.521917
69.155 26.171721
69.160 25.982866
69.165 25.578966
69.170 25.783094
69.175 25.48366
69.180 25.979063
69.185 26.769306
69.190 26.070417
69.195 25.690386
69.200 25.804171
69.205 25.892797
69.210 25.888235
69.215 26.160208
69.220 26.652071
69.225 27.101662
69.230 28.198767
69.235 29.007814
69.240 28.710688
69.245 28.549841
69.250 28.518332
69.255 28.593868
69.260 28.855261
69.265 27.879948
69.270 27.157661
69.275 27.670233
69.280 27.072203
69.285 25.986818
69.290 25.564482
69.295 25.443972
69.300 26.172024
69.305 26.480864
69.310 27.177137
69.315 27.999945
69.320 28.568569
69.325 28.264196
69.330 28.59593
69.335 28.614248
69.340 28.597076
69.345 28.409508
69.350 28.59067
69.355 28.494862
69.360 29.223547
69.365 29.869289
69.370 29.856985
69.375 30.010763
69.380 30.252968
69.385 29.896259
69.390 30.58358
69.395 30.686609
69.400 30.668573
69.405 30.379332
69.410 30.159107
69.415 29.574905
69.420 29.709526
69.425 29.252329
69.430 28.688337
69.435 28.221117
69.440 28.56003
69.445 29.210621
69.450 28.946318
69.455 27.904984
69.460 27.423935
69.465 28.07443
69.470 29.425804
69.475 29.502615
69.480 29.440681
69.485 29.970606
69.490 30.912085
69.495 31.204588
69.500 30.410269
69.505 29.749945
69.510 29.878277
69.515 30.039637
69.520 29.858467
69.525 29.853485
69.530 29.202593
69.535 29.429651
69.540 29.136238
69.545 29.298185
69.550 29.078032
69.555 29.088655
69.560 29.2729
69.565 29.473959
69.570 28.926281
69.575 29.416739
69.580 28.780598
69.585 28.640221
69.590 28.596077
69.595 28.517937
69.600 28.985157
69.605 28.840784
69.610 28.892101
69.615 29.112015
69.620 29.711668
69.625 30.415188
69.630 30.477282
69.635 30.629271
69.640 31.038446
69.645 31.030685
69.650 30.567232
69.655 30.253107
69.660 30.068769
69.665 29.68243
69.670 29.529049
69.675 29.155815
69.680 28.853622
69.685 29.485451
69.690 29.978405
69.695 29.91963
69.700 30.571499
69.705 31.033045
69.710 30.882057
69.715 30.342892
69.720 29.986172
69.725 29.111364
69.730 28.686815
69.735 27.894596
69.740 27.268778
69.745 27.496124
69.750 27.120728
69.755 27.328938
69.760 28.071129
69.765 28.117353
69.770 28.442499
69.775 28.387878
69.780 28.972898
69.785 29.283968
69.790 28.276423
69.795 27.25773
69.800 27.176725
69.805 26.924318
69.810 26.228533
69.815 25.933905
69.820 26.121843
69.825 26.072422
69.830 26.088213
69.835 25.705433
69.840 25.380806
69.845 25.306824
69.850 24.371222
69.855 23.946451
69.860 24.033293
69.865 23.604736
69.870 23.296638
69.875 23.359425
69.880 23.034473
69.885 23.96837
69.890 24.251577
69.895 23.521812
69.900 23.824091
69.905 24.31189
69.910 24.631588
69.915 24.67341
69.920 24.311146
69.925 23.883392
69.930 24.40798
69.935 24.316149
69.940 23.581026
69.945 23.445469
69.950 22.255569
69.955 22.165047
69.960 21.888735
69.965 21.672953
69.970 21.754328
69.975 21.51745
69.980 21.940689
69.985 22.814615
69.990 22.934681
69.995 23.126265
70.000 22.950729
70.005 22.728462
70.010 22.734903
70.015 22.661579
70.020 22.514664
70.025 23.096191
70.030 23.562794
70.035 23.376839
70.040 22.81402
70.045 21.881145
70.050 21.255749
70.055 21.038298
70.060 20.057493
70.065 19.469664
70.070 19.739811
70.075 20.112654
70.080 20.824455
70.085 20.726334
70.090 21.023844
70.095 21.710348
70.100 22.038059
70.105 21.685799
70.110 21.909073
70.115 22.206831
70.120 22.212902
70.125 21.35611
70.130 20.684162
70.135 20.849636
70.140 21.111589
70.145 21.354553
70.150 21.042006
70.155 21.209209
70.160 21.463579
70.165 21.370653
70.170 21.388315
70.175 21.049683
70.180 20.896427
70.185 20.955513
70.190 21.017801
70.195 21.066301
70.200 21.363436
70.205 21.141157
70.210 21.212992
70.215 20.721725
70.220 20.769318
70.225 20.505775
70.230 20.407761
70.235 20.43745
70.240 20.468468
70.245 20.522976
70.250 21.119425
70.255 21.581045
70.260 21.807743
70.265 21.777863
70.270 20.90761
70.275 21.058807
70.280 21.260283
70.285 21.083208
70.290 20.541759
70.295 20.337406
70.300 20.463131
70.305 20.790894
70.310 20.902527
70.315 20.71464
70.320 20.231123
70.325 20.359285
70.330 19.943542
70.335 19.29236
70.340 19.952404
70.345 19.833647
70.350 19.43844
70.355 18.959927
70.360 18.868877
70.365 20.051081
70.370 20.658506
70.375 19.599319
70.380 19.410875
70.385 19.442221
70.390 19.835506
70.395 20.114882
70.400 19.530401
70.405 19.558922
70.410 20.002844
70.415 19.875679
70.420 20.407736
70.425 20.045391
70.430 20.038801
70.435 20.049747
70.440 19.482834
70.445 19.181231
70.450 18.902609
70.455 18.2523
70.460 18.473055
70.465 18.349085
70.470 18.483791
70.475 18.610027
70.480 18.700516
70.485 18.883778
70.490 19.121857
70.495 19.013813
70.500 19.189169
70.505 19.351294
70.510 19.467133
70.515 19.382322
70.520 19.651445
70.525 19.803461
70.530 19.296658
70.535 18.856201
70.540 19.124811
70.545 19.293951
70.550 19.577618
70.555 19.513523
70.560 19.795645
70.565 20.049694
70.570 20.142551
70.575 19.716558
70.580 19.307062
70.585 19.170061
70.590 19.788361
70.595 19.552917
70.600 19.816729
70.605 19.892504
70.610 20.085245
70.615 20.118841
70.620 20.042364
70.625 19.792959
70.630 20.527864
70.635 20.308971
70.640 20.073383
70.645 20.200081
70.650 20.856421
70.655 20.800318
70.660 20.933155
70.665 20.31086
70.670 20.859968
70.675 21.211634
70.680 20.973614
70.685 20.177658
70.690 19.919807
70.695 19.566908
70.700 19.63208
70.705 18.874615
70.710 18.514246
70.715 18.942125
70.720 19.52281
70.725 19.722692
70.730 19.260149
70.735 19.454638
70.740 19.542175
70.745 19.823029
70.750 19.152859
70.755 19.046457
70.760 19.436752
70.765 19.642447
70.770 19.9445
70.775 20.785549
70.780 20.428436
70.785 20.119808
70.790 19.908466
70.795 19.571609
70.800 19.745836
70.805 19.594254
70.810 19.463352
70.815 19.619568
70.820 19.816065
70.825 20.228537
70.830 20.288635
70.835 20.086996
70.840 19.450838
70.845 19.508629
70.850 19.922573
70.855 20.381754
70.860 20.680973
70.865 21.035204
70.870 21.462357
70.875 21.382164
70.880 21.352646
70.885 21.282347
70.890 20.951248
70.895 20.174858
70.900 20.187649
70.905 20.511606
70.910 20.471405
70.915 20.610098
70.920 20.475853
70.925 20.759409
70.930 20.843466
70.935 20.804571
70.940 20.755468
70.945 20.570631
70.950 21.62924
70.955 21.085905
70.960 20.791767
70.965 20.871519
70.970 20.518869
70.975 20.890144
70.980 20.715355
70.985 20.052744
70.990 20.080336
70.995 19.570414
71.000 19.299417
71.005 19.122704
71.010 18.996111
71.015 18.791588
71.020 18.881392
71.025 19.079613
71.030 19.467865
71.035 19.394655
71.040 18.863501
71.045 18.969624
71.050 18.769545
71.055 18.897926
71.060 18.947222
71.065 19.077841
71.070 19.78665
71.075 19.825163
71.080 19.707748
71.085 19.961372
71.090 19.874559
71.095 20.268503
71.100 20.103109
71.105 19.537596
71.110 19.781206
71.115 19.540102
71.120 19.656796
71.125 19.228264
71.130 19.03429
71.135 19.091499
71.140 19.511906
71.145 19.149181
71.150 19.06254
71.155 18.681808
71.160 18.677383
71.165 18.636141
71.170 18.682936
71.175 18.589441
71.180 18.741463
71.185 19.006599
71.190 19.716867
71.195 19.536777
71.200 19.514532
71.205 19.648829
71.210 20.118868
71.215 20.326221
71.220 20.339001
71.225 20.32728
71.230 20.78047
71.235 21.260714
71.240 20.790411
71.245 20.752748
71.250 20.789755
71.255 20.240553
71.260 19.95359
71.265 20.030472
71.270 19.901541
71.275 19.556917
71.280 19.317301
71.285 19.526531
71.290 20.229496
71.295 20.498985
71.300 19.734037
71.305 19.42256
71.310 19.592024
71.315 19.370016
71.320 18.854366
71.325 18.274561
71.330 17.925396
71.335 18.030014
71.340 17.984148
71.345 18.00959
71.350 18.078678
71.355 18.122143
71.360 18.36026
71.365 18.4135
71.370 18.990963
71.375 19.590588
71.380 19.917181
71.385 20.335632
71.390 20.561211
71.395 21.17498
71.400 20.753292
71.405 20.179613
71.410 20.089331
71.415 20.311621
71.420 19.525429
71.425 19.183702
71.430 18.89407
71.435 19.244675
71.440 19.408741
71.445 18.773497
71.450 18.744942
71.455 19.367758
71.460 19.587299
71.465 19.749559
71.470 20.17988
71.475 20.46876
71.480 20.398968
71.485 20.468119
71.490 19.936485
71.495 19.85416
71.500 20.537968
71.505 19.828129
71.510 19.845814
71.515 19.97275
71.520 19.732323
71.525 20.010584
71.530 19.803869
71.535 19.791151
71.540 20.052813
71.545 20.49464
71.550 20.661646
71.555 20.251192
71.560 20.179819
71.565 20.088377
71.570 19.857454
71.575 19.699106
71.580 19.134811
71.585 18.962765
71.590 19.207806
71.595 19.151882
71.600 18.574875
71.605 18.85075
71.610 18.563986
71.615 18.561411
71.620 18.343042
71.625 18.779694
71.630 18.814037
71.635 19.324291
71.640 19.54538
71.645 19.468491
71.650 19.989079
71.655 20.131203
71.660 19.983931
71.665 20.025988
71.670 19.375296
71.675 19.872303
71.680 20.556295
71.685 20.024853
71.690 20.154045
71.695 20.125168
71.700 20.014093
71.705 19.815865
71.710 19.278549
71.715 19.039812
71.720 19.412935
71.725 19.056833
71.730 18.830967
71.735 19.256475
71.740 19.319237
71.745 19.114489
71.750 18.535683
71.755 18.239618
71.760 18.138809
71.765 18.066669
71.770 17.431797
71.775 17.216505
71.780 17.208721
71.785 17.627981
71.790 17.972603
71.795 18.060047
71.800 18.358837
71.805 19.154909
71.810 19.276445
71.815 19.390406
71.820 18.915777
71.825 19.207672
71.830 19.484304
71.835 19.247023
71.840 18.770527
71.845 18.913256
71.850 18.479889
71.855 18.026588
71.860 17.619247
71.865 18.05587
71.870 17.941013
71.875 18.535908
71.880 18.884497
71.885 19.447493
71.890 20.073315
71.895 19.927965
71.900 19.80312
71.905 20.127468
71.910 20.136929
71.915 19.856934
71.920 19.415787
71.925 19.469021
71.930 19.525911
71.935 19.358841
71.940 18.955196
71.945 18.343138
71.950 18.248917
71.955 18.459936
71.960 18.357351
71.965 18.473907
71.970 18.547308
71.975 18.747911
71.980 18.906839
71.985 19.118059
71.990 19.553556
71.995 19.375694
72.000 18.97456
72.005 18.932396
72.010 18.676771
72.015 18.833563
72.020 18.939226
72.025 18.944408
72.030 18.644724
72.035 18.60112
72.040 18.791229
72.045 19.273216
72.050 19.309387
72.055 19.265039
72.060 19.181419
72.065 19.368423
72.070 19.09454
72.075 18.690212
72.080 18.090557
72.085 17.881977
72.090 17.844225
72.095 17.381557
72.100 17.853176
72.105 18.56209
72.110 19.181974
72.115 19.221128
72.120 19.652252
72.125 19.712828
72.130 20.40156
72.135 20.080469
72.140 19.539377
72.145 19.441044
72.150 19.830042
72.155 19.367956
72.160 19.154415
72.165 18.956959
72.170 18.802496
72.175 18.281284
72.180 17.704889
72.185 17.483837
72.190 18.259146
72.195 18.659348
72.200 18.798759
72.205 19.180357
72.210 19.334188
72.215 19.460283
72.220 19.360323
72.225 18.367022
72.230 17.745647
72.235 17.559177
72.240 17.403103
72.245 17.586283
72.250 17.640217
72.255 17.84306
72.260 18.594061
72.265 18.740376
72.270 18.564861
72.275 18.801825
72.280 18.931978
72.285 19.368099
72.290 18.791994
72.295 18.527912
72.300 18.936964
72.305 18.592976
72.310 18.054724
72.315 17.597
72.320 17.264568
72.325 17.213417
72.330 17.200291
72.335 17.489128
72.340 17.486792
72.345 17.632965
72.350 18.310799
72.355 19.061607
72.360 19.409323
72.365 18.870676
72.370 18.806711
72.375 19.487061
72.380 19.402061
72.385 18.413813
72.390 17.794977
72.395 18.027084
72.400 18.523655
72.405 18.34664
72.410 18.401293
72.415 18.509602
72.420 18.891001
72.425 18.577869
72.430 18.631897
72.435 18.366165
72.440 17.572481
72.445 17.412834
72.450 17.452911
72.455 17.886576
72.460 17.970797
72.465 17.814711
72.470 18.397316
72.475 18.839088
72.480 19.040073
72.485 18.944588
72.490 18.645073
72.495 18.245758
72.500 18.235363
72.505 18.114151
72.510 17.572083
72.515 17.713955
72.520 17.765301
72.525 17.37895
72.530 17.638288
72.535 17.537643
72.540 18.461416
72.545 18.791821
72.550 19.04084
72.555 19.890295
72.560 19.95583
72.565 19.961939
72.570 19.328014
72.575 19.258886
72.580 19.251904
72.585 18.658556
72.590 18.482101
72.595 18.47397
72.600 18.542599
72.605 18.969864
72.610 18.922529
72.615 18.71497
72.620 17.833502
72.625 17.596375
72.630 18.095798
72.635 18.074219
72.640 17.475941
72.645 17.35854
72.650 17.599747
72.655 18.020151
72.660 17.946903
72.665 17.589619
72.670 17.849157
72.675 18.151955
72.680 18.262819
72.685 18.322847
72.690 18.857956
72.695 18.765753
72.700 18.354345
72.705 18.512493
72.710 18.218176
72.715 17.390568
72.720 17.146408
72.725 17.126873
72.730 17.56776
72.735 17.65307
72.740 17.511389
72.745 17.517368
72.750 18.237364
72.755 17.730145
72.760 17.226116
72.765 17.052956
72.770 16.481323
72.775 16.740786
72.780 17.008144
72.785 16.94422
72.790 17.785892
72.795 18.057365
72.800 18.356701
72.805 18.46356
72.810 18.691706
72.815 18.626139
72.820 18.652548
72.825 18.554111
72.830 17.694633
72.835 17.599686
72.840 18.047491
72.845 17.733765
72.850 17.506748
72.855 16.822161
72.860 17.206121
72.865 17.781166
72.870 17.387804
72.875 16.646179
72.880 17.022165
72.885 17.298697
72.890 17.280596
72.895 17.239315
72.900 17.222677
72.905 17.503408
72.910 17.442736
72.915 16.95393
72.920 17.004267
72.925 17.159706
72.930 16.941412
72.935 16.809727
72.940 16.571833
72.945 16.522106
72.950 16.719038
72.955 16.701654
72.960 16.587297
72.965 16.544994
72.970 16.761162
72.975 17.060902
72.980 17.579557
72.985 17.530838
72.990 17.218113
72.995 16.959171
73.000 17.186813
