!@!!GADDS PLOTSO FILE: Chi integration type
!@!!Title/SampleName: map-c3
!@!!Comment: ?
!@!!User: Bruker Instrument Administrator
!@!!Site: University of Illinois Chicago
!@!!Frame: map-c3_01_000.gfrm
!@!!Wavelengths    1.54184   1.54056   1.54439
!@!!Frame angles: 2Theta: 63.000 Omega: 50.000 Phi: 0.000 Chi: 90.000
!@!!Integration range: 2Theta: 53.000 to 73.000  Gamma: -105.000 to -75.000
!@!!Integration method: bin normalized
!@!N
!@!SS
!@!M
!@!L 0.0 0.0 0.0 0.0
!@!XDegrees
!@!YCounts
53.000 6.672452
53.005 6.722049
53.010 7.07456
53.015 7.992078
53.020 8.684906
53.025 8.556144
53.030 8.549298
53.035 8.704129
53.040 8.418374
53.045 7.821064
53.050 7.411378
53.055 7.007316
53.060 7.040486
53.065 6.984357
53.070 7.289664
53.075 7.315661
53.080 7.193942
53.085 6.965891
53.090 7.16024
53.095 7.198094
53.100 7.651346
53.105 7.688182
53.110 7.533726
53.115 7.113433
53.120 6.885396
53.125 6.954297
53.130 7.044818
53.135 6.757953
53.140 6.930813
53.145 7.155876
53.150 7.782356
53.155 8.116819
53.160 8.235747
53.165 8.480826
53.170 8.337337
53.175 8.544611
53.180 8.79623
53.185 8.555934
53.190 8.321993
53.195 8.042678
53.200 7.670395
53.205 7.608739
53.210 7.50213
53.215 7.390988
53.220 7.299001
53.225 7.387618
53.230 7.312289
53.235 7.514963
53.240 7.731132
53.245 7.480171
53.250 7.623717
53.255 7.980587
53.260 7.945504
53.265 8.485398
53.270 8.329704
53.275 7.953969
53.280 8.526363
53.285 8.351238
53.290 8.1197
53.295 8.026526
53.300 7.411258
53.305 7.393337
53.310 7.432511
53.315 7.005344
53.320 6.772283
53.325 6.569747
53.330 6.588881
53.335 6.730963
53.340 7.167279
53.345 7.151593
53.350 7.118881
53.355 7.502207
53.360 7.497584
53.365 7.914828
53.370 7.958215
53.375 7.733569
53.380 8.093637
53.385 8.450554
53.390 8.628285
53.395 8.503797
53.400 8.401145
53.405 8.417996
53.410 8.289349
53.415 8.126457
53.420 7.813793
53.425 8.002773
53.430 8.547564
53.435 8.811359
53.440 8.946043
53.445 9.141659
53.450 9.245758
53.455 9.167151
53.460 9.328509
53.465 8.972385
53.470 9.281314
53.475 9.334593
53.480 9.400226
53.485 9.194688
53.490 9.202444
53.495 9.131203
53.500 9.350082
53.505 8.934609
53.510 8.994284
53.515 8.918611
53.520 9.130246
53.525 9.025951
53.530 8.594399
53.535 8.057668
53.540 7.865184
53.545 7.492605
53.550 7.319237
53.555 7.710016
53.560 7.599392
53.565 7.619075
53.570 8.072285
53.575 8.54705
53.580 8.992318
53.585 9.005205
53.590 8.820902
53.595 9.125752
53.600 9.376754
53.605 9.158101
53.610 8.763098
53.615 8.927212
53.620 9.124238
53.625 8.844565
53.630 8.789392
53.635 8.834438
53.640 8.851638
53.645 8.885242
53.650 8.631683
53.655 8.611868
53.660 8.63281
53.665 8.463031
53.670 8.648613
53.675 8.624115
53.680 8.743316
53.685 8.997268
53.690 8.837866
53.695 8.739594
53.700 8.33896
53.705 8.232579
53.710 7.871061
53.715 7.891143
53.720 7.701269
53.725 8.110227
53.730 8.362658
53.735 8.535939
53.740 8.663134
53.745 8.831685
53.750 8.781229
53.755 8.668887
53.760 8.747372
53.765 8.976956
53.770 9.225363
53.775 9.229594
53.780 9.227844
53.785 9.451965
53.790 9.570291
53.795 9.386106
53.800 9.363757
53.805 9.406041
53.810 9.439887
53.815 8.88833
53.820 8.416304
53.825 8.16422
53.830 8.163668
53.835 7.957797
53.840 7.65036
53.845 7.719162
53.850 7.95547
53.855 7.877549
53.860 7.977683
53.865 8.189807
53.870 8.133419
53.875 8.7137
53.880 9.103471
53.885 9.403823
53.890 9.274125
53.895 8.914937
53.900 8.659453
53.905 8.677481
53.910 7.871402
53.915 7.803732
53.920 8.341999
53.925 8.916723
53.930 9.491634
53.935 9.316041
53.940 9.450564
53.945 9.836133
53.950 9.672056
53.955 9.31878
53.960 8.748946
53.965 8.54732
53.970 8.673747
53.975 8.581629
53.980 8.442412
53.985 8.488907
53.990 8.572155
53.995 8.72043
54.000 8.696008
54.005 8.670056
54.010 8.735754
54.015 9.00554
54.020 9.09734
54.025 9.176216
54.030 9.644479
54.035 9.592737
54.040 9.2672
54.045 8.836812
54.050 9.200309
54.055 9.336806
54.060 9.006783
54.065 8.96481
54.070 9.447212
54.075 9.882169
54.080 9.817416
54.085 9.110353
54.090 9.569049
54.095 9.587735
54.100 9.308
54.105 9.278636
54.110 9.185253
54.115 9.405773
54.120 9.156985
54.125 8.925115
54.130 8.848692
54.135 8.799927
54.140 8.986808
54.145 9.544361
54.150 9.584658
54.155 10.153413
54.160 10.112922
54.165 10.165559
54.170 10.153032
54.175 9.656114
54.180 9.520864
54.185 9.524593
54.190 9.265752
54.195 9.622367
54.200 10.283397
54.205 10.226842
54.210 9.936908
54.215 9.488637
54.220 9.558022
54.225 9.67764
54.230 9.187028
54.235 8.808125
54.240 9.224375
54.245 9.512879
54.250 9.556602
54.255 9.430703
54.260 9.653721
54.265 9.559846
54.270 9.365448
54.275 8.936226
54.280 8.334999
54.285 8.631578
54.290 8.487542
54.295 8.593879
54.300 9.028079
54.305 9.360706
54.310 9.37333
54.315 9.757203
54.320 10.069695
54.325 9.757751
54.330 9.740556
54.335 9.077443
54.340 8.878219
54.345 9.670203
54.350 9.893825
54.355 9.375844
54.360 9.801621
54.365 9.686523
54.370 10.209823
54.375 10.674219
54.380 10.51577
54.385 10.538141
54.390 10.659241
54.395 10.89382
54.400 10.980125
54.405 10.609264
54.410 10.607859
54.415 10.680097
54.420 10.863786
54.425 11.035465
54.430 10.595222
54.435 10.597999
54.440 10.362404
54.445 10.251833
54.450 9.614554
54.455 9.233229
54.460 8.752056
54.465 8.246399
54.470 8.411703
54.475 8.152057
54.480 8.105348
54.485 8.36549
54.490 8.686539
54.495 9.218911
54.500 9.607411
54.505 9.501459
54.510 9.292478
54.515 9.525787
54.520 9.512808
54.525 9.501705
54.530 9.305926
54.535 9.527511
54.540 10.093471
54.545 10.265944
54.550 10.264426
54.555 10.057014
54.560 9.933015
54.565 10.077012
54.570 10.019377
54.575 9.835776
54.580 9.770265
54.585 9.396673
54.590 9.629725
54.595 9.649126
54.600 9.612034
54.605 9.476675
54.610 9.44556
54.615 9.716267
54.620 9.648728
54.625 9.579229
54.630 9.529921
54.635 9.363519
54.640 9.83137
54.645 9.689719
54.650 9.290668
54.655 9.654507
54.660 9.539147
54.665 9.403213
54.670 8.862581
54.675 8.360043
54.680 8.717962
54.685 9.080236
54.690 9.141037
54.695 9.58888
54.700 9.894968
54.705 10.434456
54.710 10.377218
54.715 10.749451
54.720 10.521281
54.725 9.814282
54.730 9.272143
54.735 9.000658
54.740 8.944739
54.745 9.165414
54.750 8.424691
54.755 8.231507
54.760 8.509015
54.765 8.994499
54.770 8.910068
54.775 9.102608
54.780 8.971685
54.785 9.461306
54.790 9.935499
54.795 9.741429
54.800 9.932
54.805 10.084678
54.810 10.168773
54.815 10.441663
54.820 10.339157
54.825 10.475528
54.830 10.115422
54.835 10.20053
54.840 10.069738
54.845 10.109542
54.850 10.111134
54.855 10.15062
54.860 10.52381
54.865 10.914008
54.870 10.923945
54.875 10.988407
54.880 11.120541
54.885 11.142927
54.890 11.024699
54.895 10.796618
54.900 10.786211
54.905 10.77056
54.910 10.705598
54.915 10.29418
54.920 10.8415
54.925 10.932856
54.930 10.791561
54.935 10.839918
54.940 10.754285
54.945 10.839384
54.950 10.556441
54.955 10.06635
54.960 10.368895
54.965 10.410292
54.970 10.408801
54.975 10.206488
54.980 9.811255
54.985 9.703303
54.990 9.218808
54.995 8.968806
55.000 8.825944
55.005 8.881959
55.010 9.322156
55.015 9.450384
55.020 9.395926
55.025 10.145839
55.030 10.264326
55.035 10.466503
55.040 10.469081
55.045 10.642982
55.050 10.789227
55.055 10.605791
55.060 10.192547
55.065 10.003017
55.070 9.925803
55.075 9.52658
55.080 9.246743
55.085 9.222924
55.090 9.338511
55.095 9.159129
55.100 9.1589
55.105 9.17546
55.110 9.44067
55.115 9.705632
55.120 10.123258
55.125 10.543349
55.130 10.90418
55.135 11.105065
55.140 11.168006
55.145 10.840986
55.150 10.51484
55.155 11.103031
55.160 11.138824
55.165 11.184663
55.170 10.972336
55.175 11.070776
55.180 11.686323
55.185 11.748599
55.190 11.093123
55.195 10.452548
55.200 10.194694
55.205 10.18513
55.210 10.227153
55.215 10.202599
55.220 10.252794
55.225 10.297666
55.230 10.727449
55.235 11.21246
55.240 11.361773
55.245 11.423534
55.250 10.975129
55.255 10.650292
55.260 10.668851
55.265 10.581782
55.270 10.582242
55.275 10.585888
55.280 10.35024
55.285 10.804452
55.290 11.208329
55.295 11.219206
55.300 11.403655
55.305 11.101495
55.310 10.928328
55.315 10.820823
55.320 10.737562
55.325 10.531018
55.330 10.73929
55.335 10.618015
55.340 10.193204
55.345 10.002855
55.350 10.157999
55.355 10.220014
55.360 10.975301
55.365 10.92977
55.370 10.85859
55.375 10.970592
55.380 10.779133
55.385 10.676406
55.390 10.329752
55.395 9.577236
55.400 9.296198
55.405 9.378522
55.410 9.758561
55.415 9.918232
55.420 10.031057
55.425 9.833764
55.430 10.066392
55.435 10.409207
55.440 10.201139
55.445 9.885528
55.450 9.674837
55.455 9.418024
55.460 9.829172
55.465 10.284835
55.470 10.179247
55.475 10.554457
55.480 11.137076
55.485 11.880867
55.490 12.351388
55.495 12.361876
55.500 11.870127
55.505 12.307828
55.510 12.431537
55.515 12.129004
55.520 11.385411
55.525 10.665536
55.530 10.370771
55.535 10.823559
55.540 10.425252
55.545 9.515439
55.550 9.763607
55.555 10.293911
55.560 10.858175
55.565 10.865624
55.570 10.092443
55.575 10.397868
55.580 11.147006
55.585 11.214672
55.590 10.883744
55.595 10.704771
55.600 10.832378
55.605 11.148433
55.610 11.025244
55.615 10.612129
55.620 9.951684
55.625 10.317121
55.630 10.596194
55.635 10.295937
55.640 10.301785
55.645 10.345489
55.650 10.7654
55.655 11.139688
55.660 11.031234
55.665 10.822272
55.670 10.756431
55.675 11.173806
55.680 11.41994
55.685 11.45909
55.690 11.369014
55.695 11.284414
55.700 11.781868
55.705 11.810042
55.710 11.609322
55.715 11.929802
55.720 12.024024
55.725 12.062552
55.730 12.18181
55.735 11.803406
55.740 11.801198
55.745 11.602203
55.750 10.961813
55.755 10.74224
55.760 10.393939
55.765 10.433147
55.770 10.87642
55.775 11.103189
55.780 11.062549
55.785 10.874612
55.790 10.978485
55.795 10.938209
55.800 10.458227
55.805 10.262033
55.810 10.11987
55.815 10.351918
55.820 10.614233
55.825 10.931778
55.830 11.117213
55.835 11.310195
55.840 11.411382
55.845 11.609488
55.850 11.641553
55.855 11.370469
55.860 11.528605
55.865 11.863632
55.870 11.984332
55.875 11.682512
55.880 11.518795
55.885 11.866754
55.890 12.196327
55.895 11.812325
55.900 11.869102
55.905 12.133623
55.910 12.177161
55.915 12.125381
55.920 11.662107
55.925 11.223045
55.930 10.947817
55.935 10.65335
55.940 10.201953
55.945 10.248067
55.950 10.356123
55.955 10.273269
55.960 10.968172
55.965 11.19138
55.970 11.149241
55.975 11.308908
55.980 11.337975
55.985 11.376198
55.990 11.136993
55.995 10.440617
56.000 10.472978
56.005 10.745625
56.010 10.716083
56.015 10.650522
56.020 10.729479
56.025 11.273613
56.030 11.585486
56.035 11.458261
56.040 11.205497
56.045 11.054481
56.050 11.326534
56.055 11.398019
56.060 11.43084
56.065 11.646104
56.070 11.790647
56.075 11.834874
56.080 11.610228
56.085 11.231474
56.090 10.92685
56.095 11.201261
56.100 11.210347
56.105 10.931653
56.110 10.759753
56.115 10.504093
56.120 10.825507
56.125 10.746535
56.130 10.299438
56.135 10.409706
56.140 10.478974
56.145 10.822643
56.150 11.061814
56.155 11.268903
56.160 11.494783
56.165 11.250564
56.170 11.081136
56.175 10.90056
56.180 10.851376
56.185 11.108616
56.190 11.145981
56.195 11.254416
56.200 11.5575
56.205 11.497376
56.210 11.538147
56.215 11.567414
56.220 11.55912
56.225 11.490122
56.230 11.554013
56.235 11.838461
56.240 12.341475
56.245 12.405905
56.250 12.284946
56.255 11.844271
56.260 11.660525
56.265 11.498831
56.270 11.224573
56.275 11.122298
56.280 11.03455
56.285 11.046912
56.290 11.2373
56.295 11.340283
56.300 11.34741
56.305 11.083598
56.310 11.374636
56.315 11.812513
56.320 11.836523
56.325 11.828522
56.330 11.710109
56.335 11.696659
56.340 11.826532
56.345 11.548613
56.350 11.36049
56.355 11.621222
56.360 11.940021
56.365 12.12123
56.370 12.083897
56.375 11.393517
56.380 11.036505
56.385 11.411965
56.390 11.643201
56.395 11.295936
56.400 11.34095
56.405 11.117285
56.410 11.658703
56.415 11.862032
56.420 11.72509
56.425 11.437989
56.430 11.679424
56.435 11.519586
56.440 12.117251
56.445 12.306231
56.450 12.501715
56.455 12.629025
56.460 12.565537
56.465 12.093232
56.470 11.88254
56.475 11.839029
56.480 11.575821
56.485 11.009785
56.490 11.165849
56.495 11.388127
56.500 11.440698
56.505 11.53226
56.510 11.026093
56.515 11.021464
56.520 11.013166
56.525 10.679399
56.530 10.679419
56.535 10.99853
56.540 10.998364
56.545 11.223361
56.550 11.280961
56.555 11.371489
56.560 11.739798
56.565 11.946519
56.570 11.454338
56.575 11.906928
56.580 12.921017
56.585 13.237078
56.590 13.542882
56.595 12.832394
56.600 12.271686
56.605 12.452739
56.610 11.828238
56.615 10.992922
56.620 10.811017
56.625 10.350215
56.630 10.747519
56.635 11.05774
56.640 11.309194
56.645 11.217649
56.650 11.17122
56.655 11.075989
56.660 11.305954
56.665 11.123765
56.670 10.802342
56.675 10.792988
56.680 11.210961
56.685 11.529289
56.690 11.722172
56.695 11.559571
56.700 12.088572
56.705 12.56198
56.710 12.769703
56.715 13.085272
56.720 13.338597
56.725 13.481657
56.730 13.647715
56.735 13.792851
56.740 14.332046
56.745 13.849045
56.750 13.397892
56.755 12.588737
56.760 12.472346
56.765 12.316407
56.770 11.937602
56.775 11.848481
56.780 12.140747
56.785 12.260244
56.790 12.923503
56.795 13.37694
56.800 13.638177
56.805 13.318371
56.810 12.919711
56.815 13.246003
56.820 13.116113
56.825 12.537774
56.830 11.932799
56.835 11.804648
56.840 12.082438
56.845 12.135214
56.850 11.966837
56.855 12.343265
56.860 12.590577
56.865 12.574115
56.870 12.467052
56.875 12.238145
56.880 12.025205
56.885 11.651945
56.890 11.564641
56.895 11.856608
56.900 11.969159
56.905 11.914609
56.910 11.682413
56.915 11.829904
56.920 11.789526
56.925 11.982513
56.930 12.110559
56.935 12.248068
56.940 12.317676
56.945 11.997526
56.950 11.713921
56.955 11.585799
56.960 11.288779
56.965 11.189361
56.970 11.139551
56.975 12.134274
56.980 12.602897
56.985 12.620686
56.990 12.73838
56.995 12.977804
57.000 12.917817
57.005 12.71472
57.010 12.66343
57.015 13.508016
57.020 13.712448
57.025 13.82168
57.030 13.438089
57.035 13.147387
57.040 12.826072
57.045 12.116925
57.050 11.447793
57.055 11.314764
57.060 11.488678
57.065 11.764992
57.070 12.175097
57.075 12.890729
57.080 12.770444
57.085 12.796799
57.090 12.727736
57.095 12.311487
57.100 12.324438
57.105 12.199167
57.110 11.634598
57.115 11.56113
57.120 11.388992
57.125 11.483166
57.130 11.43925
57.135 11.619199
57.140 11.851048
57.145 12.276492
57.150 12.365526
57.155 12.385816
57.160 12.08185
57.165 11.88797
57.170 11.523519
57.175 11.443888
57.180 11.437446
57.185 11.738581
57.190 11.92066
57.195 12.743176
57.200 13.612255
57.205 13.898545
57.210 14.065004
57.215 13.905852
57.220 13.482587
57.225 13.509875
57.230 12.999778
57.235 12.556022
57.240 12.368071
57.245 12.212861
57.250 12.170997
57.255 12.358741
57.260 12.265086
57.265 12.161435
57.270 12.152815
57.275 12.081278
57.280 12.006474
57.285 12.38533
57.290 12.269876
57.295 12.320028
57.300 13.041701
57.305 13.28791
57.310 13.421374
57.315 13.494162
57.320 13.463516
57.325 13.39621
57.330 13.501386
57.335 12.887736
57.340 12.600609
57.345 12.191416
57.350 12.167822
57.355 12.144993
57.360 12.144872
57.365 12.182153
57.370 12.197797
57.375 13.009109
57.380 13.4779
57.385 13.25365
57.390 13.623533
57.395 14.053822
57.400 14.01168
57.405 13.63945
57.410 13.100928
57.415 13.012557
57.420 13.464976
57.425 13.435798
57.430 13.335973
57.435 13.379371
57.440 13.344048
57.445 13.305823
57.450 13.174762
57.455 12.766434
57.460 12.660129
57.465 12.871672
57.470 13.129519
57.475 13.273846
57.480 13.410969
57.485 13.194883
57.490 12.632897
57.495 12.789187
57.500 12.290268
57.505 12.005601
57.510 11.863467
57.515 11.917605
57.520 12.203212
57.525 12.43926
57.530 12.000381
57.535 12.356895
57.540 12.544084
57.545 12.559633
57.550 12.541516
57.555 13.020468
57.560 13.155822
57.565 13.542104
57.570 13.637497
57.575 13.482758
57.580 13.852483
57.585 13.525584
57.590 13.154696
57.595 13.130164
57.600 13.149795
57.605 13.463209
57.610 13.781059
57.615 13.469908
57.620 13.649389
57.625 14.284569
57.630 14.221374
57.635 13.719615
57.640 13.314893
57.645 12.898324
57.650 13.047602
57.655 13.135105
57.660 12.824692
57.665 12.980742
57.670 13.460401
57.675 13.387647
57.680 13.450725
57.685 13.119346
57.690 12.819316
57.695 12.954967
57.700 13.090038
57.705 13.10488
57.710 13.197559
57.715 13.475135
57.720 14.236135
57.725 14.827809
57.730 15.033948
57.735 14.953408
57.740 14.638349
57.745 14.684752
57.750 14.706223
57.755 14.456999
57.760 14.021669
57.765 13.867477
57.770 13.742776
57.775 14.418356
57.780 14.80913
57.785 14.923659
57.790 14.865636
57.795 15.040335
57.800 14.969045
57.805 14.956346
57.810 14.475341
57.815 13.973838
57.820 13.795042
57.825 13.78763
57.830 13.637825
57.835 13.396697
57.840 13.150807
57.845 12.869232
57.850 12.950936
57.855 13.132241
57.860 13.416861
57.865 13.851547
57.870 13.754558
57.875 14.529654
57.880 15.278987
57.885 15.133162
57.890 14.792965
57.895 14.310719
57.900 14.164149
57.905 14.079035
57.910 13.164371
57.915 12.645391
57.920 13.180567
57.925 13.333568
57.930 13.216306
57.935 13.202832
57.940 13.663868
57.945 13.879945
57.950 14.137779
57.955 14.311755
57.960 14.334265
57.965 14.363677
57.970 14.459972
57.975 14.513564
57.980 14.723497
57.985 14.751364
57.990 14.400325
57.995 14.443622
58.000 14.396101
58.005 14.373839
58.010 14.460817
58.015 14.680358
58.020 15.009825
58.025 15.239954
58.030 15.453033
58.035 15.371539
58.040 15.339425
58.045 15.168991
58.050 14.897084
58.055 14.853385
58.060 15.269102
58.065 15.227545
58.070 15.457705
58.075 15.544824
58.080 15.586874
58.085 15.582995
58.090 15.302062
58.095 15.089077
58.100 15.611158
58.105 15.334658
58.110 15.217308
58.115 15.313503
58.120 16.051605
58.125 16.205902
58.130 15.726171
58.135 15.171089
58.140 15.537321
58.145 15.890342
58.150 15.570276
58.155 14.417083
58.160 14.322955
58.165 14.592699
58.170 14.608212
58.175 14.854224
58.180 14.638073
58.185 15.0607
58.190 15.675718
58.195 15.727939
58.200 15.624902
58.205 15.954499
58.210 15.821393
58.215 15.557612
58.220 15.113664
58.225 14.529613
58.230 14.505213
58.235 14.609155
58.240 14.339532
58.245 14.1937
58.250 14.678083
58.255 15.18019
58.260 15.26747
58.265 15.66698
58.270 15.953196
58.275 16.230309
58.280 16.135414
58.285 15.538091
58.290 15.338699
58.295 15.553066
58.300 15.325276
58.305 15.095211
58.310 15.193727
58.315 15.701547
58.320 16.19392
58.325 16.201395
58.330 16.521858
58.335 16.910694
58.340 17.192091
58.345 17.14131
58.350 17.254841
58.355 17.408497
58.360 17.583721
58.365 17.124136
58.370 17.079424
58.375 16.901611
58.380 17.152292
58.385 17.123436
58.390 17.387585
58.395 18.042812
58.400 18.400688
58.405 18.408226
58.410 18.422541
58.415 17.615028
58.420 17.123867
58.425 17.244839
58.430 16.98159
58.435 16.95676
58.440 17.151834
58.445 17.649328
58.450 17.950142
58.455 18.351151
58.460 18.587708
58.465 18.768517
58.470 19.298456
58.475 19.22444
58.480 19.624834
58.485 20.861393
58.490 21.652353
58.495 22.469101
58.500 23.188395
58.505 23.444111
58.510 24.065247
58.515 24.420574
58.520 23.685543
58.525 23.356701
58.530 22.757977
58.535 22.964943
58.540 23.450539
58.545 24.214926
58.550 24.63937
58.555 25.778631
58.560 27.224205
58.565 28.297737
58.570 28.501965
58.575 28.696449
58.580 28.978237
58.585 29.316633
58.590 29.13765
58.595 28.824232
58.600 28.153696
58.605 28.794096
58.610 29.041948
58.615 29.100201
58.620 29.661879
58.625 30.41396
58.630 31.071119
58.635 31.715397
58.640 32.366917
58.645 33.142307
58.650 32.804764
58.655 33.071983
58.660 33.401344
58.665 33.700085
58.670 33.916977
58.675 33.636944
58.680 33.219677
58.685 32.991371
58.690 33.209362
58.695 33.922783
58.700 34.263584
58.705 33.847458
58.710 33.977608
58.715 34.632927
58.720 35.591061
58.725 35.1353
58.730 34.938343
58.735 35.146435
58.740 36.179714
58.745 36.046452
58.750 35.342651
58.755 35.074024
58.760 35.433098
58.765 35.096046
58.770 34.01302
58.775 33.327343
58.780 32.858238
58.785 32.56218
58.790 32.017178
58.795 31.316729
58.800 30.185829
58.805 30.523689
58.810 29.918905
58.815 29.63796
58.820 29.452271
58.825 29.355881
58.830 29.28351
58.835 29.682182
58.840 30.062572
58.845 30.131004
58.850 30.368116
58.855 30.448479
58.860 30.422108
58.865 30.557064
58.870 28.55657
58.875 27.016466
58.880 26.602058
58.885 25.450308
58.890 24.677685
58.895 23.944977
58.900 23.103792
58.905 23.089556
58.910 23.045954
58.915 22.107035
58.920 21.3888
58.925 20.903561
58.930 20.39835
58.935 20.366096
58.940 21.085785
58.945 20.63962
58.950 20.502581
58.955 20.500824
58.960 20.946384
58.965 21.270252
58.970 21.316555
58.975 20.58687
58.980 20.307978
58.985 20.556492
58.990 20.714352
58.995 20.062023
59.000 19.74226
59.005 19.341278
59.010 19.056993
59.015 19.017466
59.020 18.434666
59.025 18.135206
59.030 18.252647
59.035 17.856411
59.040 17.768768
59.045 18.02227
59.050 17.900528
59.055 17.96891
59.060 17.480894
59.065 17.149233
59.070 17.01193
59.075 16.711756
59.080 16.474497
59.085 16.533697
59.090 16.482082
59.095 16.073013
59.100 15.954206
59.105 16.090366
59.110 15.664895
59.115 15.169841
59.120 15.090476
59.125 15.164923
59.130 15.501548
59.135 15.093891
59.140 14.757861
59.145 14.843921
59.150 14.847369
59.155 14.686171
59.160 14.688931
59.165 15.062391
59.170 15.581537
59.175 15.830311
59.180 16.006626
59.185 16.03529
59.190 16.15361
59.195 15.885052
59.200 15.638458
59.205 15.312073
59.210 15.253137
59.215 14.856942
59.220 14.204699
59.225 14.279622
59.230 14.283599
59.235 14.299533
59.240 14.424918
59.245 14.059331
59.250 14.229456
59.255 14.58949
59.260 14.411784
59.265 14.375133
59.270 13.810474
59.275 14.059854
59.280 13.84226
59.285 14.116618
59.290 14.116449
59.295 13.81308
59.300 13.685668
59.305 13.741946
59.310 13.267362
59.315 13.647881
59.320 13.516768
59.325 13.586709
59.330 14.025853
59.335 14.097414
59.340 13.985504
59.345 14.13351
59.350 13.894678
59.355 14.240409
59.360 13.938803
59.365 13.901764
59.370 14.186628
59.375 14.097368
59.380 14.377169
59.385 15.025265
59.390 15.04406
59.395 15.199589
59.400 15.538373
59.405 14.937613
59.410 14.702103
59.415 14.558507
59.420 13.441873
59.425 13.162791
59.430 13.110965
59.435 12.691511
59.440 13.40558
59.445 13.761376
59.450 13.551421
59.455 13.555991
59.460 13.83766
59.465 13.800228
59.470 13.552246
59.475 13.637748
59.480 13.502855
59.485 13.550131
59.490 14.150917
59.495 13.964883
59.500 13.725845
59.505 13.97196
59.510 14.076518
59.515 14.159845
59.520 14.164459
59.525 13.629023
59.530 13.293831
59.535 13.339282
59.540 12.891253
59.545 12.340894
59.550 12.204734
59.555 12.359687
59.560 12.9756
59.565 13.282001
59.570 12.874645
59.575 12.963197
59.580 12.917295
59.585 12.939146
59.590 13.038005
59.595 12.602703
59.600 12.641772
59.605 13.02536
59.610 13.635787
59.615 14.166793
59.620 14.024721
59.625 14.063418
59.630 14.395273
59.635 14.542876
59.640 15.340889
59.645 15.167459
59.650 15.411595
59.655 15.801858
59.660 15.517539
59.665 15.280971
59.670 15.223848
59.675 14.836014
59.680 14.96138
59.685 14.7946
59.690 14.624854
59.695 14.57174
59.700 14.634133
59.705 14.595428
59.710 14.132833
59.715 13.691237
59.720 14.15801
59.725 14.137906
59.730 14.39219
59.735 14.592188
59.740 15.43827
59.745 15.674442
59.750 15.648741
59.755 15.270743
59.760 15.467559
59.765 15.549396
59.770 15.080173
59.775 14.219808
59.780 14.580531
59.785 14.391619
59.790 14.170468
59.795 14.424412
59.800 14.974847
59.805 15.515042
59.810 15.468797
59.815 14.842431
59.820 14.8311
59.825 15.41366
59.830 15.289928
59.835 14.822979
59.840 14.793772
59.845 15.268355
59.850 15.389771
59.855 15.171231
59.860 14.641483
59.865 13.888265
59.870 13.405195
59.875 12.871634
59.880 12.387012
59.885 12.849124
59.890 13.012069
59.895 12.947073
59.900 13.546122
59.905 13.970852
59.910 14.677736
59.915 14.669318
59.920 14.533689
59.925 15.041481
59.930 14.892385
59.935 14.638529
59.940 14.294956
59.945 13.881363
59.950 14.332579
59.955 14.858572
59.960 14.830256
59.965 15.083824
59.970 15.128454
59.975 15.212871
59.980 15.155218
59.985 14.620707
59.990 14.393682
59.995 14.246804
60.000 14.283495
60.005 14.578401
60.010 15.033703
60.015 15.541942
60.020 15.750763
60.025 15.344532
60.030 15.116542
60.035 15.024775
60.040 14.650672
60.045 15.014485
60.050 14.64644
60.055 14.282653
60.060 13.997796
60.065 14.002508
60.070 14.287573
60.075 14.539845
60.080 14.083641
60.085 13.718474
60.090 13.833523
60.095 14.2751
60.100 13.976351
60.105 13.885768
60.110 14.034342
60.115 14.066019
60.120 14.422856
60.125 14.85679
60.130 14.88412
60.135 15.034046
60.140 14.830748
60.145 14.29476
60.150 14.191545
60.155 14.545655
60.160 14.224371
60.165 14.448085
60.170 14.652365
60.175 14.594829
60.180 15.130018
60.185 15.238394
60.190 15.230842
60.195 15.311627
60.200 15.422723
60.205 15.455588
60.210 15.602622
60.215 15.361195
60.220 14.554809
60.225 14.401662
60.230 14.068082
60.235 13.82795
60.240 14.117228
60.245 14.422717
60.250 14.68485
60.255 15.455979
60.260 15.432731
60.265 15.260368
60.270 15.216108
60.275 14.647112
60.280 14.261226
60.285 14.055699
60.290 13.606091
60.295 13.542737
60.300 13.736841
60.305 13.707864
60.310 14.085905
60.315 13.958262
60.320 13.595328
60.325 13.86807
60.330 14.335132
60.335 13.994254
60.340 14.23785
60.345 14.275869
60.350 14.660575
60.355 15.009908
60.360 14.891321
60.365 14.975249
60.370 15.570259
60.375 15.068172
60.380 14.487556
60.385 14.134704
60.390 14.012982
60.395 14.437544
60.400 14.166936
60.405 13.724522
60.410 14.093941
60.415 14.326548
60.420 14.953715
60.425 15.231796
60.430 14.285026
60.435 14.205776
60.440 14.12342
60.445 13.794773
60.450 13.874744
60.455 13.160553
60.460 12.799745
60.465 12.863933
60.470 12.893174
60.475 13.343085
60.480 13.514843
60.485 13.653713
60.490 13.929555
60.495 14.343242
60.500 14.793563
60.505 14.700174
60.510 14.924803
60.515 14.808611
60.520 14.346689
60.525 14.244694
60.530 14.21689
60.535 13.955467
60.540 13.508511
60.545 13.507836
60.550 13.972466
60.555 14.216608
60.560 14.236113
60.565 14.600271
60.570 15.180171
60.575 15.551679
60.580 15.356093
60.585 15.116014
60.590 15.040451
60.595 15.283733
60.600 14.847166
60.605 14.503217
60.610 14.033918
60.615 14.399228
60.620 14.751716
60.625 14.766413
60.630 14.583148
60.635 15.093967
60.640 15.843259
60.645 16.540106
60.650 16.812885
60.655 16.375952
60.660 16.647421
60.665 17.142134
60.670 16.774509
60.675 16.042593
60.680 15.526191
60.685 14.859303
60.690 15.172684
60.695 15.462672
60.700 14.978016
60.705 14.885632
60.710 14.52369
60.715 14.383462
60.720 14.210172
60.725 14.104146
60.730 13.685143
60.735 13.602195
60.740 13.941561
60.745 14.292015
60.750 14.970287
60.755 15.355989
60.760 15.107238
60.765 15.453809
60.770 15.677588
60.775 15.446157
60.780 15.557097
60.785 15.052377
60.790 14.85245
60.795 15.015358
60.800 14.830729
60.805 15.020875
60.810 15.06569
60.815 15.239385
60.820 15.376799
60.825 15.72151
60.830 15.786449
60.835 15.631168
60.840 15.091026
60.845 15.524548
60.850 15.091869
60.855 15.24922
60.860 15.148753
60.865 14.840228
60.870 15.180729
60.875 15.289792
60.880 14.570058
60.885 14.42315
60.890 14.758334
60.895 14.756855
60.900 14.973973
60.905 14.647803
60.910 14.879745
60.915 15.102194
60.920 15.433409
60.925 15.249417
60.930 15.806893
60.935 15.673889
60.940 15.520722
60.945 15.85344
60.950 16.444273
60.955 16.201193
60.960 15.18582
60.965 14.24555
60.970 14.407681
60.975 14.659642
60.980 13.886989
60.985 13.606784
60.990 13.932118
60.995 14.945267
61.000 15.367487
61.005 15.54997
61.010 15.241839
61.015 15.499067
61.020 15.626715
61.025 15.861791
61.030 15.261003
61.035 15.074203
61.040 15.072336
61.045 15.833033
61.050 15.982587
61.055 15.687304
61.060 15.099015
61.065 15.362861
61.070 15.555338
61.075 15.251199
61.080 14.371234
61.085 14.182261
61.090 14.320392
61.095 14.467402
61.100 14.401632
61.105 14.173926
61.110 13.849946
61.115 14.237627
61.120 14.507686
61.125 14.543083
61.130 15.113849
61.135 15.548141
61.140 15.412766
61.145 15.44201
61.150 15.219816
61.155 15.199788
61.160 15.320583
61.165 14.338908
61.170 13.384127
61.175 13.495951
61.180 13.663466
61.185 14.084551
61.190 13.770375
61.195 13.723284
61.200 14.641549
61.205 15.507512
61.210 15.819218
61.215 16.094975
61.220 16.05674
61.225 16.384527
61.230 16.391439
61.235 15.905668
61.240 15.697049
61.245 15.776817
61.250 15.846209
61.255 15.598866
61.260 15.204271
61.265 15.499928
61.270 16.225241
61.275 15.923126
61.280 15.542753
61.285 15.004273
61.290 15.226504
61.295 15.679635
61.300 15.873152
61.305 15.641765
61.310 15.799078
61.315 16.173561
61.320 16.364145
61.325 16.340179
61.330 16.25737
61.335 15.709266
61.340 15.42489
61.345 15.8631
61.350 15.786974
61.355 15.645128
61.360 15.467412
61.365 15.344654
61.370 15.659057
61.375 15.458479
61.380 15.023977
61.385 15.523402
61.390 15.810212
61.395 16.006466
61.400 15.467827
61.405 15.208513
61.410 15.631849
61.415 15.474562
61.420 15.261067
61.425 15.307178
61.430 15.602461
61.435 15.93787
61.440 15.917542
61.445 15.34647
61.450 15.162811
61.455 14.536864
61.460 14.028249
61.465 13.909055
61.470 14.080789
61.475 13.852723
61.480 14.03486
61.485 14.143885
61.490 14.827882
61.495 15.151317
61.500 15.070666
61.505 14.676311
61.510 15.243216
61.515 15.74624
61.520 15.698175
61.525 15.777908
61.530 16.018999
61.535 15.992335
61.540 16.29616
61.545 16.258526
61.550 16.253191
61.555 16.521019
61.560 16.787186
61.565 17.21097
61.570 18.011812
61.575 18.381849
61.580 18.272369
61.585 18.322639
61.590 18.185062
61.595 18.08506
61.600 17.228815
61.605 17.136656
61.610 17.123592
61.615 17.301918
61.620 18.003702
61.625 18.334286
61.630 17.468422
61.635 17.259871
61.640 16.740446
61.645 16.513504
61.650 15.881518
61.655 15.448054
61.660 15.370652
61.665 15.991336
61.670 16.124491
61.675 16.203316
61.680 15.870037
61.685 15.9598
61.690 15.204402
61.695 14.798645
61.700 14.340128
61.705 14.22132
61.710 13.907732
61.715 13.897264
61.720 14.049578
61.725 14.228408
61.730 14.349513
61.735 14.656896
61.740 14.567122
61.745 15.044281
61.750 14.94162
61.755 14.684151
61.760 14.777426
61.765 14.726588
61.770 14.915015
61.775 15.00731
61.780 14.906142
61.785 15.400558
61.790 15.449023
61.795 15.915682
61.800 15.837423
61.805 15.920546
61.810 16.521994
61.815 16.716223
61.820 16.89768
61.825 17.645531
61.830 18.075371
61.835 18.556889
61.840 18.483917
61.845 17.906553
61.850 17.64962
61.855 17.438248
61.860 16.790314
61.865 16.167212
61.870 15.66432
61.875 15.587013
61.880 15.933953
61.885 16.310236
61.890 16.158878
61.895 15.690536
61.900 15.519829
61.905 15.366052
61.910 15.582878
61.915 15.196066
61.920 14.513069
61.925 15.102492
61.930 15.578762
61.935 15.779627
61.940 15.843287
61.945 15.950374
61.950 15.949167
61.955 16.248936
61.960 15.731735
61.965 15.734446
61.970 15.918839
61.975 15.881361
61.980 15.579965
61.985 15.463427
61.990 15.317502
61.995 14.820399
62.000 14.454736
62.005 14.286642
62.010 13.906572
62.015 13.211559
62.020 12.957052
62.025 13.233573
62.030 13.608209
62.035 13.833636
62.040 13.90303
62.045 14.353618
62.050 14.746058
62.055 14.750483
62.060 14.443226
62.065 14.653351
62.070 14.572782
62.075 14.321045
62.080 14.48832
62.085 15.081756
62.090 15.757429
62.095 15.833361
62.100 15.727938
62.105 16.111715
62.110 16.040398
62.115 15.933136
62.120 15.972622
62.125 15.795099
62.130 15.911589
62.135 15.657218
62.140 15.451711
62.145 15.696081
62.150 15.561144
62.155 15.6411
62.160 15.53508
62.165 15.850555
62.170 16.689747
62.175 16.923956
62.180 16.782768
62.185 16.798201
62.190 17.102243
62.195 17.659781
62.200 17.538036
62.205 16.413679
62.210 15.969095
62.215 15.88776
62.220 15.633952
62.225 14.920221
62.230 14.650118
62.235 14.466232
62.240 14.628654
62.245 15.122517
62.250 15.646597
62.255 16.311934
62.260 16.462658
62.265 16.503786
62.270 17.092463
62.275 17.455036
62.280 16.823908
62.285 16.6245
62.290 16.14706
62.295 16.438641
62.300 16.056553
62.305 15.455199
62.310 15.428439
62.315 15.740458
62.320 15.231978
62.325 15.110844
62.330 14.649445
62.335 14.63857
62.340 14.723005
62.345 15.038103
62.350 15.369486
62.355 14.76321
62.360 14.233191
62.365 13.888547
62.370 14.192292
62.375 13.861829
62.380 13.826196
62.385 13.832702
62.390 14.923041
62.395 15.544621
62.400 15.681594
62.405 15.657196
62.410 16.152178
62.415 16.14447
62.420 16.02153
62.425 15.623403
62.430 16.050987
62.435 16.580894
62.440 16.195396
62.445 16.567904
62.450 16.411299
62.455 16.824892
62.460 17.287031
62.465 17.134874
62.470 16.726082
62.475 16.922274
62.480 16.612579
62.485 16.405107
62.490 16.14426
62.495 16.044239
62.500 16.421152
62.505 16.486067
62.510 16.771669
62.515 16.428135
62.520 16.383667
62.525 16.123035
62.530 15.770449
62.535 15.414485
62.540 15.867081
62.545 15.50571
62.550 15.837299
62.555 16.020943
62.560 16.23621
62.565 16.412512
62.570 16.712748
62.575 16.147255
62.580 16.06395
62.585 16.565796
62.590 16.527006
62.595 16.772694
62.600 16.58905
62.605 16.327211
62.610 16.432995
62.615 16.632442
62.620 15.70547
62.625 15.843106
62.630 15.821415
62.635 16.109295
62.640 16.100286
62.645 16.132122
62.650 16.005735
62.655 15.745767
62.660 15.952387
62.665 15.744057
62.670 15.27974
62.675 15.321576
62.680 15.13503
62.685 15.071284
62.690 15.387659
62.695 15.553433
62.700 15.32548
62.705 15.793567
62.710 15.847637
62.715 16.042982
62.720 16.299618
62.725 16.856697
62.730 16.48111
62.735 16.899334
62.740 16.87693
62.745 17.535954
62.750 17.505909
62.755 17.738827
62.760 17.438993
62.765 17.627531
62.770 17.731958
62.775 17.603561
62.780 17.064943
62.785 17.541037
62.790 17.252043
62.795 17.122095
62.800 17.298725
62.805 17.065599
62.810 17.144735
62.815 16.533733
62.820 16.455084
62.825 16.856647
62.830 16.874983
62.835 16.356304
62.840 16.526934
62.845 16.353786
62.850 16.709364
62.855 16.367006
62.860 16.017387
62.865 16.202106
62.870 16.548937
62.875 16.730406
62.880 16.285105
62.885 16.321262
62.890 16.590902
62.895 16.546257
62.900 16.275486
62.905 16.049965
62.910 15.924709
62.915 16.424166
62.920 16.035423
62.925 15.585474
62.930 15.08777
62.935 15.020892
62.940 14.391973
62.945 14.194352
62.950 14.221675
62.955 14.769605
62.960 14.808674
62.965 15.013819
62.970 15.176596
62.975 15.550576
62.980 15.147761
62.985 14.832397
62.990 14.853074
62.995 15.779486
63.000 16.29505
63.005 16.289688
63.010 16.306728
63.015 16.920404
63.020 17.162832
63.025 17.095209
63.030 16.033873
63.035 15.739467
63.040 15.868279
63.045 16.092096
63.050 16.459621
63.055 16.396988
63.060 16.044754
63.065 16.37463
63.070 16.411137
63.075 16.198345
63.080 16.467829
63.085 16.019743
63.090 15.977605
63.095 15.879795
63.100 15.920852
63.105 15.56983
63.110 15.004601
63.115 14.539834
63.120 14.34689
63.125 14.300313
63.130 14.578221
63.135 14.742182
63.140 15.503138
63.145 15.884706
63.150 15.460926
63.155 15.488428
63.160 15.811117
63.165 16.040787
63.170 15.919613
63.175 15.656362
63.180 15.540646
63.185 15.961647
63.190 15.649657
63.195 14.95445
63.200 14.941489
63.205 15.153298
63.210 15.195242
63.215 15.472129
63.220 15.410525
63.225 16.167276
63.230 17.065418
63.235 17.488111
63.240 17.158047
63.245 17.071264
63.250 17.007536
63.255 17.192909
63.260 16.911695
63.265 15.859698
63.270 15.455724
63.275 15.331646
63.280 15.055078
63.285 14.573668
63.290 14.231254
63.295 14.304353
63.300 15.22244
63.305 15.391798
63.310 15.999055
63.315 16.71929
63.320 17.230558
63.325 17.695299
63.330 17.738581
63.335 17.457041
63.340 17.035242
63.345 16.485498
63.350 15.690351
63.355 15.623915
63.360 15.699323
63.365 15.610855
63.370 15.694161
63.375 15.923931
63.380 16.265112
63.385 16.912663
63.390 16.565866
63.395 16.240576
63.400 16.153091
63.405 16.424433
63.410 16.225878
63.415 16.139029
63.420 16.409504
63.425 16.745037
63.430 16.800955
63.435 17.123566
63.440 16.673708
63.445 16.588833
63.450 16.604378
63.455 15.793424
63.460 15.560362
63.465 15.53119
63.470 15.668277
63.475 15.916321
63.480 16.360977
63.485 16.513403
63.490 16.64065
63.495 15.931957
63.500 16.068285
63.505 15.725777
63.510 15.774416
63.515 15.454818
63.520 15.527329
63.525 15.361791
63.530 15.929905
63.535 15.890789
63.540 15.878774
63.545 15.881899
63.550 16.054239
63.555 15.779236
63.560 15.910837
63.565 15.621096
63.570 15.747753
63.575 15.971574
63.580 15.543424
63.585 15.515017
63.590 15.632073
63.595 15.967418
63.600 16.303272
63.605 16.355572
63.610 16.413443
63.615 17.607822
63.620 18.163683
63.625 18.735518
63.630 19.252398
63.635 19.592394
63.640 19.786119
63.645 19.770748
63.650 19.096542
63.655 19.02088
63.660 18.654402
63.665 18.099724
63.670 18.07173
63.675 17.576767
63.680 17.213495
63.685 17.107752
63.690 16.646387
63.695 16.765068
63.700 16.551582
63.705 16.539501
63.710 16.867092
63.715 16.896235
63.720 16.808201
63.725 16.209545
63.730 16.417572
63.735 17.26516
63.740 17.035492
63.745 17.391035
63.750 17.693966
63.755 17.87002
63.760 18.344982
63.765 18.540577
63.770 18.694597
63.775 19.471905
63.780 19.607496
63.785 19.455246
63.790 19.221294
63.795 18.738586
63.800 17.906181
63.805 16.912643
63.810 16.41893
63.815 16.552876
63.820 16.793028
63.825 16.64345
63.830 17.13475
63.835 18.246275
63.840 19.233475
63.845 18.98801
63.850 18.299549
63.855 18.017895
63.860 18.152155
63.865 17.822954
63.870 16.88052
63.875 16.286394
63.880 16.239208
63.885 15.88481
63.890 15.595832
63.895 15.595729
63.900 15.721446
63.905 16.494392
63.910 16.953091
63.915 17.20002
63.920 17.858122
63.925 18.74148
63.930 19.400238
63.935 19.314007
63.940 18.817646
63.945 18.679647
63.950 18.751997
63.955 19.049202
63.960 18.619703
63.965 18.439772
63.970 18.100904
63.975 18.22407
63.980 18.316584
63.985 18.499716
63.990 18.416676
63.995 18.460102
64.000 18.921642
64.005 19.362782
64.010 19.810421
64.015 19.984428
64.020 20.196709
64.025 20.059317
64.030 20.289278
64.035 20.701345
64.040 21.028475
64.045 21.449669
64.050 21.796816
64.055 21.630472
64.060 21.711102
64.065 21.77734
64.070 21.894506
64.075 21.671215
64.080 21.261024
64.085 21.886435
64.090 22.438023
64.095 22.741085
64.100 22.776722
64.105 23.346788
64.110 24.362377
64.115 24.859301
64.120 24.873144
64.125 24.727165
64.130 24.809139
64.135 25.074829
64.140 24.449612
64.145 24.224064
64.150 24.414919
64.155 24.33217
64.160 24.127298
64.165 24.352793
64.170 24.068417
64.175 24.480787
64.180 24.400539
64.185 24.34729
64.190 24.259243
64.195 24.656261
64.200 24.52393
64.205 25.097715
64.210 25.229351
64.215 26.030542
64.220 26.125128
64.225 26.972298
64.230 27.440819
64.235 28.396029
64.240 29.058455
64.245 29.509607
64.250 29.179316
64.255 30.100628
64.260 31.393808
64.265 33.069912
64.270 33.834427
64.275 34.171795
64.280 34.619698
64.285 36.076126
64.290 35.917465
64.295 35.697582
64.300 35.172096
64.305 35.815754
64.310 36.465439
64.315 37.02079
64.320 36.846451
64.325 37.821354
64.330 38.613342
64.335 40.018967
64.340 40.066826
64.345 40.29039
64.350 40.791294
64.355 41.273903
64.360 41.629292
64.365 42.31953
64.370 42.37709
64.375 43.606773
64.380 44.361843
64.385 44.242111
64.390 44.701035
64.395 46.710503
64.400 47.386463
64.405 47.819286
64.410 48.425144
64.415 49.165844
64.420 49.780228
64.425 50.16925
64.430 50.175823
64.435 50.510941
64.440 50.159836
64.445 50.513584
64.450 50.377247
64.455 50.523064
64.460 50.32671
64.465 49.530506
64.470 49.365257
64.475 49.252529
64.480 48.481155
64.485 47.74601
64.490 47.50127
64.495 48.292564
64.500 49.136955
64.505 48.877434
64.510 48.781277
64.515 48.458691
64.520 48.767551
64.525 48.902176
64.530 48.02383
64.535 47.500732
64.540 47.065819
64.545 46.22522
64.550 45.872444
64.555 45.222721
64.560 44.760876
64.565 44.167725
64.570 42.935776
64.575 41.710682
64.580 41.470333
64.585 40.9744
64.590 40.370201
64.595 40.068569
64.600 39.737843
64.605 39.828773
64.610 40.304249
64.615 40.457054
64.620 40.189056
64.625 40.130939
64.630 39.585552
64.635 38.707108
64.640 37.672924
64.645 36.836735
64.650 35.719963
64.655 34.976463
64.660 34.18214
64.665 33.831379
64.670 33.605152
64.675 33.723324
64.680 33.304253
64.685 33.367313
64.690 33.150814
64.695 32.880314
64.700 32.836407
64.705 31.586185
64.710 30.690536
64.715 30.374327
64.720 29.829027
64.725 30.160103
64.730 30.316517
64.735 29.967499
64.740 30.262674
64.745 30.163206
64.750 30.075264
64.755 29.69635
64.760 28.850073
64.765 28.40267
64.770 27.880411
64.775 27.606852
64.780 26.759043
64.785 25.982994
64.790 25.820652
64.795 25.705006
64.800 24.871513
64.805 24.425289
64.810 23.796917
64.815 24.025385
64.820 23.774864
64.825 23.307865
64.830 23.282059
64.835 23.583586
64.840 23.755461
64.845 23.474863
64.850 22.499895
64.855 22.207899
64.860 22.249771
64.865 21.865648
64.870 21.30312
64.875 21.482737
64.880 21.781221
64.885 21.975332
64.890 22.786434
64.895 22.805485
64.900 23.180874
64.905 24.223921
64.910 24.255024
64.915 24.186504
64.920 24.726633
64.925 24.777327
64.930 24.311258
64.935 23.833967
64.940 23.580128
64.945 23.804241
64.950 23.581331
64.955 22.760267
64.960 22.239508
64.965 22.511454
64.970 22.757959
64.975 22.570898
64.980 22.486326
64.985 22.285343
64.990 22.887867
64.995 23.422846
65.000 23.855249
65.005 24.783234
65.010 25.650492
65.015 26.123404
65.020 27.880747
65.025 28.444136
65.030 28.678753
65.035 29.028727
65.040 28.437626
65.045 28.137802
65.050 28.42942
65.055 28.565098
65.060 29.449341
65.065 30.281687
65.070 31.006115
65.075 32.276642
65.080 33.146023
65.085 33.118767
65.090 32.752754
65.095 32.813358
65.100 33.266888
65.105 33.140728
65.110 32.567986
65.115 32.538078
65.120 32.452366
65.125 32.7906
65.130 33.275425
65.135 34.366726
65.140 34.728451
65.145 35.218117
65.150 35.732571
65.155 37.038227
65.160 38.476753
65.165 38.079945
65.170 37.851513
65.175 38.275543
65.180 38.544983
65.185 37.980091
65.190 37.55299
65.195 36.789959
65.200 37.891441
65.205 38.592915
65.210 38.909523
65.215 38.536674
65.220 39.362392
65.225 39.633518
65.230 39.911694
65.235 39.210526
65.240 38.123966
65.245 37.941727
65.250 38.180397
65.255 37.645935
65.260 38.192783
65.265 38.467167
65.270 38.30954
65.275 39.2356
65.280 39.74667
65.285 39.862904
65.290 39.968613
65.295 39.918339
65.300 40.664543
65.305 40.628704
65.310 39.88026
65.315 39.611801
65.320 39.882217
65.325 40.137119
65.330 39.723576
65.335 39.433933
65.340 39.347927
65.345 39.776917
65.350 40.102325
65.355 40.001232
65.360 40.906677
65.365 41.056637
65.370 40.19503
65.375 40.750988
65.380 41.128067
65.385 41.492023
65.390 41.132835
65.395 41.092663
65.400 41.788864
65.405 42.120514
65.410 42.112316
65.415 41.250698
65.420 41.019459
65.425 40.70145
65.430 40.651428
65.435 40.106739
65.440 40.477058
65.445 40.016052
65.450 39.783054
65.455 39.548603
65.460 40.010246
65.465 39.745617
65.470 39.457123
65.475 39.543491
65.480 39.786537
65.485 39.613258
65.490 40.268902
65.495 40.394566
65.500 39.94138
65.505 39.204872
65.510 38.292904
65.515 38.15995
65.520 38.297497
65.525 37.503056
65.530 37.444702
65.535 37.573036
65.540 37.873158
65.545 37.973305
65.550 37.550236
65.555 37.238743
65.560 37.077274
65.565 36.505428
65.570 36.379711
65.575 35.575661
65.580 35.992111
65.585 36.221249
65.590 36.089199
65.595 36.016304
65.600 35.653095
65.605 35.518963
65.610 35.745064
65.615 35.104618
65.620 34.836544
65.625 34.932922
65.630 34.626282
65.635 34.659607
65.640 34.915047
65.645 34.69305
65.650 34.138206
65.655 34.303673
65.660 34.07542
65.665 34.005878
65.670 33.73214
65.675 33.199085
65.680 32.635239
65.685 31.878416
65.690 31.512686
65.695 31.153627
65.700 30.937332
65.705 30.945267
65.710 31.045177
65.715 31.425909
65.720 31.479675
65.725 31.802069
65.730 32.250488
65.735 32.348255
65.740 31.973576
65.745 31.668297
65.750 31.907711
65.755 31.697737
65.760 30.565802
65.765 30.084204
65.770 30.044989
65.775 29.894518
65.780 29.45857
65.785 28.312901
65.790 27.56706
65.795 27.595335
65.800 27.182264
65.805 26.565292
65.810 26.100214
65.815 25.344301
65.820 25.171225
65.825 25.674585
65.830 24.759876
65.835 24.265985
65.840 24.529953
65.845 24.695515
65.850 25.033754
65.855 24.627499
65.860 23.958307
65.865 24.498638
65.870 23.707998
65.875 23.247534
65.880 22.925983
65.885 22.960714
65.890 22.775827
65.895 22.795614
65.900 23.114065
65.905 23.484716
65.910 23.566404
65.915 23.550516
65.920 23.327988
65.925 23.751108
65.930 23.542507
65.935 22.926781
65.940 22.488438
65.945 22.087107
65.950 21.822876
65.955 21.116547
65.960 20.401985
65.965 19.804033
65.970 19.454485
65.975 19.439192
65.980 18.907812
65.985 18.994534
65.990 19.138845
65.995 18.941362
66.000 19.445986
66.005 19.432016
66.010 19.663931
66.015 19.925207
66.020 19.196938
66.025 18.778805
66.030 18.701284
66.035 17.869951
66.040 17.695999
66.045 17.293682
66.050 17.686623
66.055 17.742722
66.060 17.609701
66.065 17.250185
66.070 17.583374
66.075 17.626511
66.080 17.121437
66.085 16.923519
66.090 17.405277
66.095 18.154049
66.100 18.535734
66.105 18.255516
66.110 18.874702
66.115 19.196688
66.120 19.447653
66.125 19.629908
66.130 19.534653
66.135 20.007092
66.140 20.617208
66.145 20.153872
66.150 20.079937
66.155 20.012659
66.160 19.919405
66.165 19.764248
66.170 19.338726
66.175 18.905094
66.180 19.918024
66.185 20.192106
66.190 20.187405
66.195 20.197973
66.200 20.197884
66.205 19.822544
66.210 19.651918
66.215 18.722645
66.220 18.356699
66.225 18.14543
66.230 18.167976
66.235 18.401022
66.240 18.345617
66.245 18.153057
66.250 17.963402
66.255 17.700068
66.260 16.875015
66.265 16.62524
66.270 16.387608
66.275 16.692818
66.280 17.075647
66.285 17.212914
66.290 17.461411
66.295 17.97397
66.300 18.307371
66.305 18.498947
66.310 18.371698
66.315 18.584011
66.320 18.520285
66.325 18.348883
66.330 17.975929
66.335 17.089567
66.340 17.297571
66.345 17.505064
66.350 16.920006
66.355 17.080582
66.360 17.39488
66.365 17.678358
66.370 18.295765
66.375 17.594063
66.380 17.439245
66.385 17.487648
66.390 17.369579
66.395 17.30299
66.400 17.327063
66.405 17.44482
66.410 17.047745
66.415 16.371532
66.420 16.600853
66.425 16.481363
66.430 15.987988
66.435 15.485376
66.440 15.159272
66.445 15.346212
66.450 15.451982
66.455 15.143595
66.460 15.512434
66.465 15.789566
66.470 16.259163
66.475 16.209026
66.480 16.831404
66.485 17.191822
66.490 17.754377
66.495 17.244989
66.500 17.359352
66.505 17.435244
66.510 17.492334
66.515 17.553352
66.520 17.459846
66.525 17.191425
66.530 17.66188
66.535 17.775276
66.540 18.143421
66.545 18.46372
66.550 18.290966
66.555 18.050661
66.560 18.54117
66.565 18.843672
66.570 18.842623
66.575 18.570162
66.580 18.205999
66.585 18.491213
66.590 18.537336
66.595 18.479582
66.600 18.078833
66.605 17.543106
66.610 17.232843
66.615 17.291935
66.620 17.167509
66.625 17.225723
66.630 16.765635
66.635 16.551014
66.640 16.985626
66.645 17.433069
66.650 17.71933
66.655 17.736092
66.660 17.266823
66.665 17.403282
66.670 17.530615
66.675 17.417967
66.680 17.802145
66.685 17.460772
66.690 17.771883
66.695 18.711445
66.700 18.579798
66.705 18.734156
66.710 18.562756
66.715 17.805534
66.720 17.586456
66.725 17.48703
66.730 17.640175
66.735 17.873264
66.740 17.596268
66.745 17.680447
66.750 17.902845
66.755 18.120184
66.760 17.687729
66.765 17.022667
66.770 16.877745
66.775 17.432377
66.780 17.537153
66.785 17.074108
66.790 16.684074
66.795 16.682484
66.800 16.990532
66.805 16.961079
66.810 16.62472
66.815 16.690248
66.820 16.773336
66.825 17.033772
66.830 17.751804
66.835 18.270027
66.840 18.882
66.845 19.463516
66.850 19.836142
66.855 19.668673
66.860 20.041676
66.865 19.449081
66.870 18.977192
66.875 18.308168
66.880 18.218952
66.885 17.655924
66.890 17.71258
66.895 16.871992
66.900 16.342142
66.905 16.117096
66.910 16.433321
66.915 16.30172
66.920 16.693928
66.925 17.02194
66.930 17.748068
66.935 18.034319
66.940 18.271252
66.945 17.361227
66.950 16.615141
66.955 16.251724
66.960 16.371931
66.965 16.700546
66.970 17.58593
66.975 17.51762
66.980 17.72253
66.985 17.795748
66.990 17.938459
66.995 17.661932
67.000 16.974869
67.005 16.279379
67.010 16.269077
67.015 16.602993
67.020 16.961792
67.025 16.975515
67.030 16.915499
67.035 16.52453
67.040 16.14024
67.045 16.580442
67.050 17.245407
67.055 17.724205
67.060 17.745659
67.065 17.705654
67.070 18.030039
67.075 18.278763
67.080 17.889017
67.085 17.075193
67.090 17.047182
67.095 16.877808
67.100 16.863094
67.105 17.099873
67.110 17.928654
67.115 17.875998
67.120 17.753256
67.125 17.21825
67.130 17.217392
67.135 17.186281
67.140 16.808161
67.145 16.014154
67.150 16.050463
67.155 16.504135
67.160 16.706379
67.165 16.869532
67.170 17.143724
67.175 17.383369
67.180 17.397884
67.185 17.711487
67.190 17.66651
67.195 18.004366
67.200 18.140507
67.205 18.523302
67.210 18.518354
67.215 18.276318
67.220 17.876526
67.225 17.388819
67.230 17.200155
67.235 16.900591
67.240 16.384094
67.245 16.175234
67.250 15.999431
67.255 16.140596
67.260 16.177347
67.265 15.780777
67.270 16.042379
67.275 16.135431
67.280 16.628521
67.285 16.997383
67.290 17.070791
67.295 17.419962
67.300 17.712427
67.305 17.56702
67.310 18.307858
67.315 18.22028
67.320 17.892759
67.325 17.649143
67.330 17.387957
67.335 16.972893
67.340 16.653028
67.345 16.132063
67.350 16.43782
67.355 16.703899
67.360 16.449457
67.365 16.99029
67.370 17.583342
67.375 18.194571
67.380 18.333622
67.385 17.765751
67.390 17.401844
67.395 17.532911
67.400 17.192387
67.405 16.954462
67.410 16.394651
67.415 16.326927
67.420 16.739309
67.425 16.874254
67.430 17.117542
67.435 16.961487
67.440 17.130157
67.445 17.633469
67.450 18.079683
67.455 18.03195
67.460 17.837362
67.465 17.698343
67.470 17.768126
67.475 17.267456
67.480 16.451216
67.485 16.003281
67.490 15.774233
67.495 16.310112
67.500 16.809891
67.505 17.574535
67.510 17.736263
67.515 17.83127
67.520 18.135477
67.525 18.478554
67.530 18.605352
67.535 18.110262
67.540 17.314379
67.545 17.553099
67.550 17.672743
67.555 17.441389
67.560 17.327282
67.565 17.651981
67.570 17.573812
67.575 17.426077
67.580 17.304739
67.585 17.168482
67.590 17.145931
67.595 16.734955
67.600 16.428699
67.605 16.267735
67.610 16.714872
67.615 17.237085
67.620 17.518961
67.625 17.653868
67.630 17.680029
67.635 17.651947
67.640 17.688908
67.645 17.106581
67.650 16.8909
67.655 17.033222
67.660 17.564026
67.665 17.512157
67.670 17.5709
67.675 18.174429
67.680 19.02647
67.685 19.00211
67.690 18.576803
67.695 18.488058
67.700 18.921463
67.705 18.765825
67.710 18.504778
67.715 18.498709
67.720 18.586147
67.725 18.277622
67.730 17.226311
67.735 16.712469
67.740 17.090363
67.745 16.957016
67.750 16.640266
67.755 16.294554
67.760 16.546335
67.765 17.382381
67.770 17.465708
67.775 17.315401
67.780 17.245546
67.785 17.056011
67.790 17.618587
67.795 17.64113
67.800 17.904707
67.805 17.494446
67.810 17.648638
67.815 17.982466
67.820 18.227123
67.825 18.118923
67.830 18.963142
67.835 18.483465
67.840 18.494457
67.845 18.415228
67.850 18.405132
67.855 18.558056
67.860 18.304285
67.865 18.013737
67.870 18.211197
67.875 18.672215
67.880 18.415022
67.885 18.157555
67.890 17.853636
67.895 17.745537
67.900 17.844254
67.905 17.346445
67.910 16.885424
67.915 16.489059
67.920 16.255564
67.925 15.925773
67.930 15.487909
67.935 15.253922
67.940 15.870209
67.945 16.198614
67.950 16.468861
67.955 16.31522
67.960 16.567011
67.965 17.217241
67.970 17.247532
67.975 17.067368
67.980 17.343901
67.985 17.831635
67.990 18.172237
67.995 18.664839
68.000 18.686609
68.005 18.83042
68.010 18.83095
68.015 18.398951
68.020 18.755615
68.025 18.626268
68.030 18.712021
68.035 18.097385
68.040 17.700592
68.045 17.934879
68.050 18.185122
68.055 18.360939
68.060 18.62875
68.065 18.290329
68.070 19.071033
68.075 19.239653
68.080 19.651855
68.085 19.859949
68.090 19.920509
68.095 20.097288
68.100 19.783728
68.105 19.452692
68.110 19.832642
68.115 19.25149
68.120 18.975657
68.125 18.456345
68.130 18.199898
68.135 18.68717
68.140 19.33757
68.145 19.25008
68.150 19.814571
68.155 20.068399
68.160 20.381912
68.165 20.276947
68.170 20.36577
68.175 20.856485
68.180 21.541294
68.185 22.06712
68.190 22.649689
68.195 22.889736
68.200 22.701834
68.205 22.562571
68.210 21.698843
68.215 21.544693
68.220 21.112764
68.225 20.660135
68.230 20.586584
68.235 20.775497
68.240 21.358162
68.245 22.157223
68.250 22.037689
68.255 22.25647
68.260 22.858906
68.265 23.266865
68.270 23.558241
68.275 23.058559
68.280 23.371553
68.285 23.685923
68.290 22.85607
68.295 22.321568
68.300 22.754139
68.305 23.337412
68.310 23.494015
68.315 23.500448
68.320 23.760904
68.325 24.178848
68.330 25.065763
68.335 25.006153
68.340 24.74935
68.345 24.768091
68.350 24.754875
68.355 25.784796
68.360 26.516979
68.365 25.980467
68.370 25.866577
68.375 26.077568
68.380 26.747335
68.385 27.316883
68.390 27.251307
68.395 27.518471
68.400 27.736183
68.405 28.213329
68.410 28.753113
68.415 28.506033
68.420 28.528112
68.425 29.065344
68.430 29.360641
68.435 29.949139
68.440 30.113741
68.445 29.784912
68.450 30.741594
68.455 31.669779
68.460 31.520077
68.465 31.572048
68.470 31.760605
68.475 32.130219
68.480 32.558037
68.485 32.065823
68.490 32.765903
68.495 33.60033
68.500 34.056808
68.505 34.097641
68.510 34.147812
68.515 34.341675
68.520 34.612709
68.525 33.319855
68.530 32.689163
68.535 32.388439
68.540 32.661945
68.545 33.179642
68.550 32.811214
68.555 33.203098
68.560 33.814865
68.565 34.129913
68.570 34.07753
68.575 34.071762
68.580 33.865566
68.585 35.045437
68.590 34.945274
68.595 35.064472
68.600 35.456772
68.605 35.834148
68.610 35.733982
68.615 35.641205
68.620 35.363262
68.625 34.962112
68.630 34.728115
68.635 35.18774
68.640 35.107403
68.645 35.271858
68.650 35.493141
68.655 35.35078
68.660 36.085098
68.665 35.783478
68.670 35.20118
68.675 35.976467
68.680 35.558994
68.685 35.453037
68.690 35.065079
68.695 35.047592
68.700 35.508801
68.705 35.765606
68.710 35.637104
68.715 36.221092
68.720 36.084259
68.725 35.677807
68.730 35.363205
68.735 35.155052
68.740 34.804409
68.745 34.54607
68.750 33.93972
68.755 33.879322
68.760 34.429787
68.765 34.937355
68.770 34.855869
68.775 34.367226
68.780 34.64241
68.785 34.805794
68.790 35.199036
68.795 35.757618
68.800 35.046631
68.805 35.205418
68.810 35.739933
68.815 35.79903
68.820 36.094765
68.825 35.896278
68.830 36.407146
68.835 36.904312
68.840 36.7355
68.845 35.97612
68.850 35.120735
68.855 34.28624
68.860 33.718739
68.865 32.302505
68.870 30.992905
68.875 30.927336
68.880 30.925488
68.885 30.293297
68.890 30.034397
68.895 29.66016
68.900 29.304947
68.905 29.023172
68.910 28.459808
68.915 28.66758
68.920 29.665386
68.925 29.984009
68.930 30.09581
68.935 30.133793
68.940 30.151686
68.945 30.018299
68.950 29.437742
68.955 28.303913
68.960 28.281895
68.965 28.194622
68.970 28.54072
68.975 28.816154
68.980 28.409506
68.985 28.209471
68.990 28.942234
68.995 29.024252
69.000 29.13265
69.005 29.003424
69.010 28.885881
69.015 29.891111
69.020 29.961805
69.025 29.284653
69.030 28.915279
69.035 28.454903
69.040 27.610281
69.045 26.526962
69.050 25.429359
69.055 25.347115
69.060 25.168804
69.065 24.634285
69.070 23.985718
69.075 23.707142
69.080 23.922489
69.085 23.961679
69.090 23.441263
69.095 22.884939
69.100 22.917198
69.105 22.925589
69.110 22.893906
69.115 22.490835
69.120 22.794506
69.125 23.036568
69.130 23.508169
69.135 23.425722
69.140 23.495358
69.145 23.758472
69.150 23.836929
69.155 23.149595
69.160 22.939335
69.165 22.729744
69.170 22.463894
69.175 22.44215
69.180 22.102627
69.185 22.378817
69.190 22.614344
69.195 22.345697
69.200 22.166628
69.205 21.780996
69.210 21.519724
69.215 21.64559
69.220 21.075108
69.225 21.22156
69.230 21.104136
69.235 20.887712
69.240 20.829941
69.245 20.321098
69.250 19.793833
69.255 19.551186
69.260 19.468365
69.265 19.519445
69.270 19.740597
69.275 19.811983
69.280 20.544003
69.285 21.068531
69.290 21.289873
69.295 20.746391
69.300 20.41596
69.305 19.946747
69.310 19.555317
69.315 19.036074
69.320 18.617985
69.325 18.320463
69.330 18.238766
69.335 18.044746
69.340 18.20726
69.345 18.697226
69.350 18.026434
69.355 17.570448
69.360 18.163206
69.365 18.264395
69.370 18.699705
69.375 19.214104
69.380 19.122198
69.385 19.236591
69.390 19.466219
69.395 19.056744
69.400 19.234787
69.405 18.721531
69.410 18.108616
69.415 18.08046
69.420 18.884436
69.425 18.894114
69.430 19.318497
69.435 19.395052
69.440 19.919849
69.445 20.047396
69.450 19.638645
69.455 18.492243
69.460 18.1549
69.465 17.500999
69.470 17.199596
69.475 16.905937
69.480 17.073484
69.485 16.900944
69.490 16.770254
69.495 16.976851
69.500 17.092524
69.505 17.456808
69.510 17.363159
69.515 17.504303
69.520 17.970898
69.525 18.736084
69.530 19.592304
69.535 19.958813
69.540 20.032654
69.545 20.033476
69.550 19.709005
69.555 19.813108
69.560 19.223303
69.565 18.30813
69.570 18.404238
69.575 18.690403
69.580 18.510992
69.585 19.042168
69.590 19.333126
69.595 19.531887
69.600 19.621397
69.605 19.369097
69.610 19.4303
69.615 19.433386
69.620 18.855682
69.625 18.597834
69.630 18.418074
69.635 18.71525
69.640 18.731192
69.645 18.449654
69.650 18.247017
69.655 17.40309
69.660 17.315334
69.665 17.059835
69.670 16.727505
69.675 16.520887
69.680 16.700369
69.685 17.074572
69.690 17.624895
69.695 17.63166
69.700 17.697308
69.705 18.015467
69.710 17.920782
69.715 18.073874
69.720 18.379595
69.725 18.28195
69.730 18.689592
69.735 19.098686
69.740 18.898643
69.745 18.648466
69.750 18.592413
69.755 18.348267
69.760 18.612217
69.765 18.004242
69.770 17.418879
69.775 16.952532
69.780 16.732666
69.785 16.49542
69.790 16.408901
69.795 16.410542
69.800 16.644428
69.805 17.012293
69.810 17.528534
69.815 17.701649
69.820 18.254681
69.825 18.668951
69.830 18.826044
69.835 19.325584
69.840 18.651453
69.845 19.367971
69.850 19.329908
69.855 18.685436
69.860 18.743841
69.865 18.949385
69.870 19.307844
69.875 19.287161
69.880 18.871595
69.885 19.060726
69.890 19.399046
69.895 19.193977
69.900 18.653999
69.905 18.206345
69.910 18.688051
69.915 18.756029
69.920 18.288185
69.925 18.345846
69.930 18.082687
69.935 18.027405
69.940 18.267189
69.945 18.159132
69.950 18.073065
69.955 18.272474
69.960 17.941128
69.965 18.588289
69.970 18.760059
69.975 18.690161
69.980 18.591516
69.985 18.605581
69.990 18.628941
69.995 18.307348
70.000 17.81274
70.005 17.600243
70.010 16.904373
70.015 17.121098
70.020 16.664316
70.025 16.922426
70.030 17.38769
70.035 17.235914
70.040 16.924242
70.045 17.201868
70.050 17.051472
70.055 17.057278
70.060 16.866598
70.065 16.378567
70.070 16.673374
70.075 16.845612
70.080 16.676283
70.085 16.855654
70.090 17.30312
70.095 17.30537
70.100 17.541164
70.105 17.56341
70.110 17.805025
70.115 17.842594
70.120 18.161703
70.125 18.275
70.130 18.264511
70.135 18.565035
70.140 18.955448
70.145 19.283266
70.150 19.561228
70.155 18.953472
70.160 18.913286
70.165 19.332647
70.170 18.933777
70.175 18.745651
70.180 17.967825
70.185 17.754499
70.190 17.975489
70.195 17.362156
70.200 16.989838
70.205 17.697941
70.210 17.465631
70.215 18.052252
70.220 17.826473
70.225 17.704227
70.230 17.853687
70.235 17.597443
70.240 17.475506
70.245 17.274242
70.250 16.844513
70.255 17.190849
70.260 17.422096
70.265 17.194834
70.270 16.954292
70.275 16.234209
70.280 16.400808
70.285 16.650892
70.290 16.144293
70.295 16.001081
70.300 16.475538
70.305 17.383944
70.310 18.131842
70.315 18.140162
70.320 17.708563
70.325 17.473888
70.330 17.135134
70.335 17.263157
70.340 17.178288
70.345 17.237242
70.350 16.867538
70.355 17.15579
70.360 17.532084
70.365 17.680809
70.370 17.158464
70.375 16.499918
70.380 16.155025
70.385 16.713205
70.390 17.182844
70.395 17.57432
70.400 17.776941
70.405 17.615494
70.410 17.197355
70.415 17.657553
70.420 17.99654
70.425 17.960197
70.430 17.519335
70.435 17.346783
70.440 17.944656
70.445 18.498596
70.450 18.55847
70.455 17.914782
70.460 17.58058
70.465 17.439434
70.470 17.616663
70.475 17.737759
70.480 17.560629
70.485 17.79623
70.490 17.522268
70.495 17.957523
70.500 18.044971
70.505 17.547766
70.510 16.814495
70.515 16.542763
70.520 16.489004
70.525 16.707193
70.530 16.880592
70.535 17.26914
70.540 17.371954
70.545 18.231138
70.550 18.368015
70.555 17.914885
70.560 18.208139
70.565 17.899008
70.570 17.332476
70.575 17.364071
70.580 16.62936
70.585 16.571651
70.590 16.659662
70.595 16.261549
70.600 16.397318
70.605 17.011751
70.610 17.310091
70.615 17.661077
70.620 17.791857
70.625 18.077423
70.630 17.76841
70.635 17.195122
70.640 16.969908
70.645 16.785225
70.650 16.849396
70.655 16.81325
70.660 17.102121
70.665 17.293261
70.670 17.635975
70.675 17.466064
70.680 17.122189
70.685 16.719463
70.690 16.708479
70.695 16.910233
70.700 16.73881
70.705 16.258965
70.710 16.551218
70.715 16.968422
70.720 17.131247
70.725 17.093857
70.730 17.632545
70.735 18.479063
70.740 18.605116
70.745 18.702614
70.750 18.520887
70.755 18.641035
70.760 18.294361
70.765 17.984638
70.770 17.789421
70.775 17.618071
70.780 17.418926
70.785 17.528429
70.790 17.798927
70.795 17.643711
70.800 17.296272
70.805 17.330164
70.810 17.317446
70.815 17.563442
70.820 18.146696
70.825 17.933401
70.830 17.707769
70.835 17.345837
70.840 17.650225
70.845 18.075991
70.850 17.883518
70.855 17.33522
70.860 18.086185
70.865 18.331652
70.870 17.819443
70.875 17.448442
70.880 17.212265
70.885 17.121164
70.890 17.024036
70.895 16.495897
70.900 16.549694
70.905 17.140455
70.910 17.358624
70.915 17.066696
70.920 16.477026
70.925 16.370565
70.930 16.590473
70.935 17.00729
70.940 16.565825
70.945 16.381798
70.950 16.715174
70.955 17.327057
70.960 17.266861
70.965 17.049351
70.970 17.149353
70.975 17.40609
70.980 17.802734
70.985 18.349115
70.990 18.270695
70.995 18.245737
71.000 17.863903
71.005 17.75358
71.010 17.37146
71.015 16.845133
71.020 16.274155
71.025 16.414549
71.030 16.683254
71.035 16.746489
71.040 17.308033
71.045 17.542177
71.050 18.050735
71.055 18.773312
71.060 18.797398
71.065 18.718237
71.070 18.552214
71.075 18.084743
71.080 18.359018
71.085 18.287333
71.090 17.769375
71.095 17.440054
71.100 17.260685
71.105 17.205538
71.110 16.962782
71.115 16.513906
71.120 16.517221
71.125 16.150005
71.130 16.463854
71.135 16.519844
71.140 16.533358
71.145 16.602125
71.150 16.671984
71.155 16.936636
71.160 17.371935
71.165 17.27426
71.170 17.461607
71.175 17.432272
71.180 17.29203
71.185 17.028223
71.190 16.336548
71.195 15.579671
71.200 15.222287
71.205 15.670423
71.210 16.258848
71.215 16.459511
71.220 16.746258
71.225 17.167139
71.230 18.0963
71.235 17.63068
71.240 17.342087
71.245 17.31238
71.250 17.323229
71.255 16.888905
71.260 16.3269
71.265 16.859787
71.270 17.699533
71.275 17.323944
71.280 16.908747
71.285 17.625771
71.290 18.307024
71.295 18.19906
71.300 17.44614
71.305 17.2384
71.310 17.468842
71.315 17.840183
71.320 17.709421
71.325 17.896896
71.330 18.730648
71.335 19.039949
71.340 18.883944
71.345 18.78286
71.350 18.159569
71.355 18.072186
71.360 17.755497
71.365 17.346592
71.370 17.419052
71.375 17.372221
71.380 17.636747
71.385 17.70981
71.390 17.668537
71.395 17.926445
71.400 18.047915
71.405 18.452875
71.410 18.665724
71.415 18.382
71.420 18.000986
71.425 17.611376
71.430 17.577637
71.435 17.074572
71.440 16.547451
71.445 16.24568
71.450 16.495712
71.455 16.919407
71.460 16.879873
71.465 16.547672
71.470 17.217009
71.475 17.586052
71.480 17.563524
71.485 17.500826
71.490 17.308935
71.495 17.862423
71.500 17.564245
71.505 16.607922
71.510 16.614925
71.515 16.882069
71.520 16.683567
71.525 16.486221
71.530 15.941647
71.535 15.958261
71.540 16.079067
71.545 15.808166
71.550 15.844259
71.555 16.01664
71.560 16.503288
71.565 17.167959
71.570 17.647278
71.575 18.161945
71.580 18.212149
71.585 18.266827
71.590 18.095613
71.595 17.550255
71.600 17.643583
71.605 17.764088
71.610 17.564913
71.615 17.536291
71.620 17.428801
71.625 17.170815
71.630 17.2903
71.635 17.463762
71.640 17.607161
71.645 17.500204
71.650 17.658159
71.655 17.701952
71.660 17.743593
71.665 17.41993
71.670 17.132828
71.675 17.131737
71.680 17.006493
71.685 16.665482
71.690 16.800615
71.695 17.078497
71.700 17.173256
71.705 16.869905
71.710 16.567108
71.715 16.310999
71.720 16.416222
71.725 16.015562
71.730 16.161526
71.735 16.096672
71.740 16.251047
71.745 16.600946
71.750 17.351234
71.755 17.735699
71.760 17.844387
71.765 18.02537
71.770 18.449335
71.775 18.529093
71.780 18.406534
71.785 17.913301
71.790 17.453728
71.795 17.644402
71.800 17.279335
71.805 17.085825
71.810 17.7321
71.815 17.897598
71.820 17.988279
71.825 18.223959
71.830 17.973452
71.835 18.182281
71.840 17.982962
71.845 17.842041
71.850 18.180326
71.855 19.047871
71.860 19.200024
71.865 19.670557
71.870 19.706945
71.875 19.516371
71.880 18.885431
71.885 18.282246
71.890 17.851013
71.895 17.936552
71.900 17.918642
71.905 17.902355
71.910 18.374779
71.915 18.255964
71.920 18.279276
71.925 18.264185
71.930 18.06698
71.935 17.432404
71.940 17.757057
71.945 17.98325
71.950 18.52256
71.955 18.70896
71.960 18.909765
71.965 19.279953
71.970 19.538391
71.975 18.981667
71.980 18.338436
71.985 18.370434
71.990 18.186016
71.995 17.722706
72.000 17.586699
72.005 17.317509
72.010 17.567953
72.015 17.400957
72.020 17.1672
72.025 16.607046
72.030 16.870029
72.035 16.84227
72.040 16.644505
72.045 16.764641
72.050 17.210596
72.055 17.590153
72.060 17.6973
72.065 17.861904
72.070 17.693926
72.075 17.616417
72.080 16.715891
72.085 16.306673
72.090 16.272999
72.095 16.123333
72.100 16.10803
72.105 16.47257
72.110 16.861858
72.115 17.071775
72.120 17.180286
72.125 17.304905
72.130 17.368767
72.135 17.829144
72.140 17.830162
72.145 17.730799
72.150 17.655024
72.155 17.373367
72.160 17.180407
72.165 17.066656
72.170 16.451962
72.175 16.651228
72.180 16.548208
72.185 16.3242
72.190 16.51816
72.195 16.542696
72.200 16.475157
72.205 16.442692
72.210 16.002546
72.215 16.309105
72.220 16.512486
72.225 16.155283
72.230 16.451845
72.235 16.438366
72.240 17.005985
72.245 17.246305
72.250 17.27734
72.255 17.65671
72.260 17.641739
72.265 17.590038
72.270 17.579666
72.275 17.312796
72.280 17.271671
72.285 16.76828
72.290 16.899597
72.295 17.482168
72.300 17.821703
72.305 17.983925
72.310 18.533434
72.315 18.830133
72.320 19.48069
72.325 19.471104
72.330 19.42753
72.335 19.090658
72.340 18.803751
72.345 18.856215
72.350 18.455704
72.355 18.121496
72.360 17.421211
72.365 16.741142
72.370 16.653587
72.375 16.608999
72.380 16.394321
72.385 16.860231
72.390 17.033363
72.395 17.049038
72.400 17.651243
72.405 18.205454
72.410 18.103033
72.415 17.959322
72.420 17.263342
72.425 16.753481
72.430 16.947561
72.435 16.791853
72.440 16.286581
72.445 16.421167
72.450 16.453444
72.455 17.594515
72.460 18.47242
72.465 18.290159
72.470 17.616253
72.475 17.476097
72.480 17.456541
72.485 17.141508
72.490 16.105711
72.495 15.584861
72.500 15.126069
72.505 15.357733
72.510 16.014124
72.515 16.291927
72.520 16.797094
72.525 17.357515
72.530 17.252249
72.535 17.955297
72.540 17.718531
72.545 17.336412
72.550 17.266661
72.555 16.858448
72.560 17.051346
72.565 17.435434
72.570 16.917521
72.575 17.02738
72.580 16.826519
72.585 17.557934
72.590 17.981071
72.595 18.063061
72.600 18.336725
72.605 18.463591
72.610 18.684221
72.615 18.304647
72.620 17.552645
72.625 16.758867
72.630 16.388996
72.635 15.778337
72.640 16.510405
72.645 16.211367
72.650 16.156397
72.655 16.202307
72.660 16.156422
72.665 16.433273
72.670 16.088833
72.675 15.575199
72.680 15.598914
72.685 15.595233
72.690 16.079123
72.695 16.522377
72.700 16.40062
72.705 16.347742
72.710 16.244381
72.715 16.1758
72.720 16.296486
72.725 15.962342
72.730 15.849208
72.735 15.772751
72.740 16.213261
72.745 16.549128
72.750 16.688541
72.755 16.86278
72.760 16.909033
72.765 17.422255
72.770 17.481089
72.775 17.31986
72.780 16.745022
72.785 17.333685
72.790 16.978268
72.795 16.25868
72.800 15.972359
72.805 16.092918
72.810 16.298397
72.815 16.603062
72.820 15.903265
72.825 16.00536
72.830 16.385933
72.835 16.38607
72.840 15.998726
72.845 15.615006
72.850 14.959912
72.855 15.485318
72.860 15.890716
72.865 15.846395
72.870 15.628919
72.875 15.769736
72.880 16.019814
72.885 16.25264
72.890 15.531911
72.895 15.598872
72.900 15.797422
72.905 15.9747
72.910 15.985176
72.915 15.957322
72.920 16.228762
72.925 16.0128
72.930 15.69247
72.935 15.716858
72.940 15.574304
72.945 16.011858
72.950 16.091921
72.955 16.134735
72.960 16.858215
72.965 16.433514
72.970 16.612366
72.975 16.813124
72.980 16.909269
72.985 16.553791
72.990 16.337809
72.995 16.136786
73.000 15.979582
