!@!!GADDS PLOTSO FILE: Chi integration type
!@!!Title/SampleName: map-f5
!@!!Comment: ?
!@!!User: Bruker Instrument Administrator
!@!!Site: University of Illinois Chicago
!@!!Frame: map-f5_01_000.gfrm
!@!!Wavelengths    1.54184   1.54056   1.54439
!@!!Frame angles: 2Theta: 63.000 Omega: 50.000 Phi: 0.000 Chi: 90.000
!@!!Integration range: 2Theta: 53.000 to 73.000  Gamma: -105.000 to -75.000
!@!!Integration method: bin normalized
!@!N
!@!SS
!@!M
!@!L 0.0 0.0 0.0 0.0
!@!XDegrees
!@!YCounts
53.000 4.873092
53.005 4.262865
53.010 4.203337
53.015 4.379978
53.020 4.370346
53.025 4.691444
53.030 5.011434
53.035 5.162393
53.040 5.274546
53.045 5.255338
53.050 4.979888
53.055 4.749221
53.060 4.399177
53.065 4.353095
53.070 4.439189
53.075 4.496639
53.080 4.305091
53.085 4.798533
53.090 5.101707
53.095 5.33182
53.100 5.271359
53.105 5.191698
53.110 5.333147
53.115 5.582261
53.120 5.206448
53.125 5.28552
53.130 5.130508
53.135 4.908149
53.140 4.733345
53.145 4.249995
53.150 4.068341
53.155 3.930085
53.160 3.760888
53.165 3.542739
53.170 3.457966
53.175 3.406258
53.180 3.622646
53.185 3.762119
53.190 3.81923
53.195 3.85572
53.200 4.168515
53.205 4.500786
53.210 4.783312
53.215 4.480346
53.220 4.315004
53.225 4.601415
53.230 4.58455
53.235 4.48752
53.240 4.159739
53.245 4.107511
53.250 4.33383
53.255 4.506463
53.260 4.981158
53.265 5.534028
53.270 5.63247
53.275 5.565867
53.280 5.464772
53.285 5.502311
53.290 5.12014
53.295 4.705497
53.300 4.271194
53.305 4.504657
53.310 4.702352
53.315 4.928796
53.320 5.033912
53.325 5.477853
53.330 5.91907
53.335 5.860691
53.340 5.958881
53.345 6.270367
53.350 6.283858
53.355 6.05427
53.360 5.785806
53.365 5.878609
53.370 6.156801
53.375 6.045629
53.380 5.632491
53.385 5.495023
53.390 5.360516
53.395 4.972518
53.400 4.828293
53.405 4.516462
53.410 4.46351
53.415 4.521877
53.420 4.613007
53.425 4.612123
53.430 4.590271
53.435 4.577975
53.440 4.594863
53.445 4.587634
53.450 4.613518
53.455 4.587339
53.460 4.547849
53.465 4.564562
53.470 4.637452
53.475 4.840681
53.480 4.785596
53.485 4.945363
53.490 5.286326
53.495 5.348269
53.500 5.367576
53.505 5.303578
53.510 5.306128
53.515 5.382329
53.520 5.752324
53.525 5.65997
53.530 5.703094
53.535 5.685625
53.540 5.563588
53.545 5.182166
53.550 5.028686
53.555 4.880927
53.560 4.953978
53.565 5.003197
53.570 5.192563
53.575 5.819321
53.580 6.266227
53.585 6.041987
53.590 6.255682
53.595 6.186508
53.600 5.809045
53.605 5.571193
53.610 5.403494
53.615 5.16272
53.620 5.077088
53.625 4.592595
53.630 4.957435
53.635 5.30272
53.640 4.986013
53.645 4.996522
53.650 5.600795
53.655 5.756519
53.660 5.538625
53.665 5.269606
53.670 5.16766
53.675 5.273627
53.680 4.889413
53.685 4.312385
53.690 4.519438
53.695 4.405545
53.700 4.274297
53.705 4.1507
53.710 4.229925
53.715 4.878143
53.720 5.320535
53.725 5.683525
53.730 6.261639
53.735 6.454788
53.740 6.446122
53.745 6.325295
53.750 5.952233
53.755 5.774218
53.760 5.288022
53.765 5.024641
53.770 5.379741
53.775 5.390636
53.780 5.165199
53.785 5.086604
53.790 4.996189
53.795 5.168731
53.800 5.059453
53.805 4.881489
53.810 4.902842
53.815 5.10792
53.820 5.185592
53.825 5.305469
53.830 5.089134
53.835 5.053752
53.840 4.97222
53.845 5.214814
53.850 5.141333
53.855 4.992136
53.860 5.103435
53.865 5.110635
53.870 5.139513
53.875 5.240501
53.880 5.010979
53.885 5.030682
53.890 5.277208
53.895 5.366529
53.900 5.770219
53.905 5.997537
53.910 5.898143
53.915 5.979377
53.920 5.992856
53.925 5.908284
53.930 5.946484
53.935 5.914619
53.940 5.722977
53.945 5.915175
53.950 6.305045
53.955 6.393
53.960 6.333751
53.965 5.915982
53.970 5.571669
53.975 5.737037
53.980 5.699611
53.985 5.284636
53.990 5.056076
53.995 4.993962
54.000 5.014441
54.005 4.680017
54.010 4.431623
54.015 4.464971
54.020 4.410492
54.025 4.204394
54.030 3.935984
54.035 4.07774
54.040 4.428015
54.045 4.37703
54.050 4.257794
54.055 4.320099
54.060 4.647322
54.065 5.104259
54.070 5.288301
54.075 4.855846
54.080 4.992343
54.085 5.250978
54.090 5.228959
54.095 4.995604
54.100 4.981216
54.105 5.185491
54.110 5.757798
54.115 5.654023
54.120 5.245862
54.125 5.232008
54.130 5.439626
54.135 5.543668
54.140 5.473997
54.145 5.332537
54.150 5.077114
54.155 5.381614
54.160 5.562938
54.165 5.415712
54.170 5.090537
54.175 4.734004
54.180 5.01324
54.185 5.292069
54.190 5.103004
54.195 5.291559
54.200 5.508952
54.205 5.627363
54.210 5.961406
54.215 6.046322
54.220 6.233289
54.225 6.155991
54.230 5.769975
54.235 5.785227
54.240 6.025183
54.245 5.568575
54.250 4.897209
54.255 4.768462
54.260 4.927091
54.265 5.082906
54.270 5.045009
54.275 4.900945
54.280 5.104581
54.285 5.565283
54.290 6.092468
54.295 6.430713
54.300 6.647447
54.305 7.156644
54.310 7.256559
54.315 7.39651
54.320 7.197538
54.325 6.428794
54.330 6.557595
54.335 6.303709
54.340 6.165467
54.345 6.174957
54.350 6.173796
54.355 6.206746
54.360 6.171101
54.365 5.724516
54.370 5.5234
54.375 5.515492
54.380 5.406034
54.385 5.207944
54.390 5.547693
54.395 5.75719
54.400 5.746584
54.405 5.522769
54.410 5.487213
54.415 5.290346
54.420 5.299338
54.425 4.92969
54.430 5.092628
54.435 5.05619
54.440 5.135309
54.445 5.049469
54.450 5.203866
54.455 5.435849
54.460 5.750624
54.465 5.654739
54.470 5.825683
54.475 5.812848
54.480 5.831751
54.485 5.917559
54.490 5.645136
54.495 5.705527
54.500 5.942482
54.505 5.949452
54.510 6.009995
54.515 5.872861
54.520 5.876357
54.525 5.768726
54.530 5.617865
54.535 5.413533
54.540 5.065037
54.545 5.651307
54.550 5.802186
54.555 6.000209
54.560 6.298403
54.565 6.356095
54.570 6.570796
54.575 6.779916
54.580 6.258206
54.585 6.302558
54.590 6.046146
54.595 5.918819
54.600 6.10653
54.605 6.303129
54.610 6.551795
54.615 6.669269
54.620 6.362533
54.625 6.332652
54.630 6.094626
54.635 5.662537
54.640 5.635082
54.645 5.344757
54.650 5.509979
54.655 5.681923
54.660 5.677219
54.665 5.749645
54.670 5.77171
54.675 5.629206
54.680 5.642732
54.685 5.535558
54.690 5.898221
54.695 6.074697
54.700 5.974973
54.705 6.240252
54.710 5.821293
54.715 5.689723
54.720 5.460706
54.725 5.286119
54.730 5.243477
54.735 4.967018
54.740 4.729437
54.745 5.026149
54.750 5.146456
54.755 5.101729
54.760 5.221934
54.765 5.533358
54.770 6.024737
54.775 6.058868
54.780 5.993828
54.785 6.182485
54.790 6.248559
54.795 5.947877
54.800 5.486962
54.805 5.685851
54.810 6.055004
54.815 5.907207
54.820 5.672436
54.825 5.59831
54.830 5.685554
54.835 5.930085
54.840 5.411142
54.845 5.140061
54.850 5.537139
54.855 6.034982
54.860 6.278296
54.865 6.334485
54.870 6.474867
54.875 6.69697
54.880 6.860093
54.885 6.820375
54.890 6.219403
54.895 6.219102
54.900 6.185199
54.905 5.953552
54.910 5.859149
54.915 6.020445
54.920 6.050206
54.925 6.178908
54.930 6.118901
54.935 5.953472
54.940 6.190673
54.945 6.241588
54.950 5.959353
54.955 5.852294
54.960 5.874179
54.965 5.895535
54.970 5.851702
54.975 5.735345
54.980 5.46514
54.985 5.795274
54.990 5.955485
54.995 6.115681
55.000 6.279932
55.005 6.061032
55.010 5.957568
55.015 5.996731
55.020 6.100421
55.025 6.135967
55.030 6.204016
55.035 6.300692
55.040 6.704711
55.045 7.029529
55.050 7.057082
55.055 6.803458
55.060 6.442579
55.065 6.549414
55.070 6.567622
55.075 6.365251
55.080 6.079216
55.085 6.205449
55.090 6.285132
55.095 6.426741
55.100 6.184744
55.105 6.190806
55.110 6.404644
55.115 6.7845
55.120 7.063695
55.125 7.207139
55.130 7.511804
55.135 7.416703
55.140 7.500088
55.145 7.693595
55.150 7.996392
55.155 7.553268
55.160 7.470067
55.165 7.352394
55.170 7.386863
55.175 7.24754
55.180 6.871549
55.185 6.570934
55.190 6.252296
55.195 6.024557
55.200 5.870237
55.205 6.035174
55.210 6.44664
55.215 6.540987
55.220 6.516725
55.225 6.511072
55.230 6.600815
55.235 6.582776
55.240 6.280255
55.245 6.03726
55.250 5.783867
55.255 5.808591
55.260 5.662521
55.265 5.411208
55.270 5.27336
55.275 5.258269
55.280 5.171292
55.285 5.430252
55.290 5.947287
55.295 6.500532
55.300 6.647278
55.305 6.674427
55.310 6.608695
55.315 6.502437
55.320 6.251255
55.325 5.819273
55.330 5.829001
55.335 6.254103
55.340 6.709386
55.345 7.192914
55.350 7.432711
55.355 7.495742
55.360 7.7811
55.365 7.747249
55.370 7.697458
55.375 7.890098
55.380 7.687763
55.385 7.584233
55.390 7.797874
55.395 7.698784
55.400 7.853132
55.405 7.718452
55.410 7.246067
55.415 7.158638
55.420 6.923316
55.425 6.439045
55.430 6.392282
55.435 6.120965
55.440 6.375574
55.445 6.574062
55.450 6.74545
55.455 7.202299
55.460 7.94352
55.465 8.471408
55.470 8.769462
55.475 8.615851
55.480 8.51608
55.485 8.573945
55.490 8.247488
55.495 7.610583
55.500 7.041839
55.505 6.695613
55.510 6.702819
55.515 6.563429
55.520 6.559555
55.525 6.287746
55.530 6.625164
55.535 6.33822
55.540 6.448441
55.545 6.245191
55.550 6.447681
55.555 6.545935
55.560 6.649435
55.565 7.167819
55.570 7.73374
55.575 7.70861
55.580 7.888326
55.585 7.832602
55.590 8.168957
55.595 7.93621
55.600 7.154109
55.605 6.836491
55.610 6.872759
55.615 6.824868
55.620 6.647666
55.625 6.33478
55.630 6.446844
55.635 6.632105
55.640 6.197125
55.645 6.046441
55.650 5.906155
55.655 5.927794
55.660 5.869564
55.665 5.702408
55.670 6.048267
55.675 6.335868
55.680 6.25376
55.685 6.620434
55.690 6.678038
55.695 6.595079
55.700 7.020098
55.705 7.450389
55.710 7.613286
55.715 7.706515
55.720 7.242763
55.725 7.377995
55.730 7.739269
55.735 7.715843
55.740 7.395278
55.745 7.38564
55.750 7.240818
55.755 7.210204
55.760 6.932582
55.765 6.862598
55.770 6.643695
55.775 6.308915
55.780 6.759197
55.785 7.29977
55.790 7.557274
55.795 7.652997
55.800 7.212513
55.805 6.842488
55.810 6.578524
55.815 6.328171
55.820 6.519645
55.825 6.850301
55.830 7.132337
55.835 7.835772
55.840 8.738356
55.845 9.020896
55.850 9.034092
55.855 8.64331
55.860 8.180291
55.865 8.069743
55.870 7.782717
55.875 7.356792
55.880 7.156964
55.885 6.934134
55.890 6.788235
55.895 7.136434
55.900 7.002956
55.905 6.781877
55.910 6.990293
55.915 6.982216
55.920 7.025481
55.925 7.282238
55.930 7.230021
55.935 7.728381
55.940 8.398773
55.945 8.697188
55.950 9.036086
55.955 9.025144
55.960 8.90868
55.965 8.665557
55.970 8.165499
55.975 7.656411
55.980 7.295597
55.985 7.086515
55.990 6.878586
55.995 6.937467
56.000 7.123189
56.005 6.874182
56.010 6.591586
56.015 6.320293
56.020 6.186858
56.025 6.092884
56.030 5.74866
56.035 5.327929
56.040 5.227474
56.045 5.504387
56.050 5.787228
56.055 6.118364
56.060 6.237562
56.065 6.333929
56.070 6.571156
56.075 6.546399
56.080 6.323335
56.085 6.314261
56.090 6.161218
56.095 6.215568
56.100 6.343859
56.105 6.440458
56.110 6.777609
56.115 6.828648
56.120 6.871328
56.125 6.660685
56.130 6.585306
56.135 6.575881
56.140 6.813678
56.145 6.967355
56.150 7.513784
56.155 7.866958
56.160 7.711968
56.165 7.716214
56.170 7.594568
56.175 7.382479
56.180 6.908405
56.185 6.344421
56.190 6.241016
56.195 6.587477
56.200 6.705228
56.205 6.654895
56.210 6.877557
56.215 7.065456
56.220 7.098294
56.225 7.001033
56.230 7.078479
56.235 7.427464
56.240 8.002103
56.245 8.051613
56.250 7.75206
56.255 7.687387
56.260 7.911709
56.265 8.019081
56.270 7.736465
56.275 7.393119
56.280 7.333661
56.285 7.567611
56.290 7.737133
56.295 7.733459
56.300 7.689699
56.305 7.705765
56.310 7.74781
56.315 7.937015
56.320 8.071343
56.325 7.911684
56.330 7.72288
56.335 7.865304
56.340 7.805712
56.345 7.519713
56.350 7.334098
56.355 7.16757
56.360 7.332285
56.365 7.098998
56.370 6.938618
56.375 7.061763
56.380 7.382678
56.385 7.791214
56.390 7.680441
56.395 7.483332
56.400 7.403535
56.405 7.058322
56.410 6.859962
56.415 6.617774
56.420 6.782396
56.425 7.122791
56.430 7.527952
56.435 8.159904
56.440 8.071316
56.445 8.025036
56.450 8.078058
56.455 7.374141
56.460 7.286208
56.465 6.823685
56.470 6.397268
56.475 6.445369
56.480 6.635042
56.485 6.858997
56.490 7.337574
56.495 7.766467
56.500 8.218977
56.505 8.835108
56.510 8.884326
56.515 8.591235
56.520 8.588325
56.525 8.576217
56.530 8.100924
56.535 7.985452
56.540 7.792367
56.545 7.854122
56.550 7.898791
56.555 7.680808
56.560 7.626259
56.565 7.73788
56.570 7.820082
56.575 7.891611
56.580 8.183132
56.585 8.416558
56.590 9.133117
56.595 9.210974
56.600 9.339772
56.605 9.061287
56.610 9.101368
56.615 8.939626
56.620 8.988659
56.625 8.833167
56.630 8.777264
56.635 8.890156
56.640 9.210526
56.645 9.026155
56.650 8.820024
56.655 8.687016
56.660 8.281585
56.665 8.075397
56.670 8.00695
56.675 7.842158
56.680 7.976419
56.685 8.003824
56.690 8.208516
56.695 8.201309
56.700 8.474809
56.705 8.005687
56.710 7.985919
56.715 7.975142
56.720 7.821698
56.725 7.614308
56.730 7.755728
56.735 7.785186
56.740 8.069247
56.745 8.227061
56.750 8.249868
56.755 8.54245
56.760 8.678555
56.765 8.284387
56.770 8.138402
56.775 8.266829
56.780 8.447086
56.785 8.332524
56.790 8.263673
56.795 8.024845
56.800 8.458952
56.805 8.666429
56.810 8.917008
56.815 8.694897
56.820 8.574793
56.825 8.696711
56.830 9.062663
56.835 9.119934
56.840 8.689969
56.845 8.684161
56.850 9.071462
56.855 9.309251
56.860 8.965909
56.865 8.960095
56.870 8.928852
56.875 8.899846
56.880 8.204877
56.885 8.006593
56.890 7.86219
56.895 7.768608
56.900 7.388315
56.905 7.436223
56.910 7.752337
56.915 8.245881
56.920 8.121423
56.925 8.335627
56.930 8.984424
56.935 9.390011
56.940 9.695132
56.945 9.64081
56.950 9.47087
56.955 9.577854
56.960 9.388747
56.965 9.169499
56.970 8.790073
56.975 8.46254
56.980 8.350267
56.985 8.6913
56.990 8.643376
56.995 8.314241
57.000 8.340732
57.005 8.630536
57.010 8.958656
57.015 8.97625
57.020 8.467058
57.025 8.581438
57.030 8.764277
57.035 8.596214
57.040 8.301011
57.045 7.790253
57.050 7.937757
57.055 8.144425
57.060 8.159252
57.065 8.336014
57.070 8.126678
57.075 8.392213
57.080 8.82076
57.085 9.051798
57.090 8.995488
57.095 8.599089
57.100 8.677223
57.105 8.658378
57.110 8.532168
57.115 8.226993
57.120 7.978888
57.125 7.982938
57.130 8.407359
57.135 8.220689
57.140 8.25234
57.145 7.723361
57.150 7.543709
57.155 7.632958
57.160 7.712759
57.165 7.504226
57.170 7.612562
57.175 7.57773
57.180 7.953868
57.185 8.023723
57.190 7.945948
57.195 7.908642
57.200 7.920203
57.205 8.270097
57.210 8.870682
57.215 8.728531
57.220 8.856246
57.225 8.744874
57.230 8.429877
57.235 8.325382
57.240 7.753273
57.245 7.406808
57.250 7.702507
57.255 7.57092
57.260 7.64754
57.265 7.703914
57.270 7.683874
57.275 7.464963
57.280 7.36005
57.285 7.484449
57.290 7.423367
57.295 7.702367
57.300 7.933005
57.305 8.209209
57.310 8.493245
57.315 8.749565
57.320 8.590008
57.325 8.870841
57.330 8.945007
57.335 9.230042
57.340 9.155613
57.345 9.24806
57.350 9.327647
57.355 9.701985
57.360 9.90602
57.365 9.805717
57.370 9.488113
57.375 9.601931
57.380 9.988259
57.385 10.360914
57.390 9.863164
57.395 9.66019
57.400 9.993637
57.405 10.29286
57.410 10.629971
57.415 10.204799
57.420 9.841241
57.425 10.113083
57.430 9.839574
57.435 9.395706
57.440 9.35021
57.445 9.114349
57.450 9.015163
57.455 9.40135
57.460 9.726317
57.465 9.802834
57.470 9.706616
57.475 9.276086
57.480 9.280765
57.485 9.490614
57.490 9.052855
57.495 8.731136
57.500 8.526171
57.505 8.441468
57.510 8.41635
57.515 8.488596
57.520 8.411951
57.525 8.295978
57.530 8.365915
57.535 8.708894
57.540 8.648275
57.545 8.715405
57.550 8.759943
57.555 8.611612
57.560 8.903227
57.565 9.447456
57.570 9.58112
57.575 9.538386
57.580 9.485323
57.585 9.237232
57.590 9.245062
57.595 8.722829
57.600 8.381389
57.605 8.382674
57.610 8.794143
57.615 8.990435
57.620 8.952868
57.625 9.017094
57.630 8.825445
57.635 8.622742
57.640 8.630725
57.645 8.509082
57.650 8.35403
57.655 8.029829
57.660 8.024204
57.665 8.485493
57.670 8.898859
57.675 9.107749
57.680 9.238413
57.685 9.350824
57.690 9.774911
57.695 9.628893
57.700 9.600985
57.705 9.854811
57.710 9.781495
57.715 9.621172
57.720 9.88607
57.725 10.161225
57.730 10.335473
57.735 10.263732
57.740 9.428806
57.745 9.099363
57.750 9.191412
57.755 9.066359
57.760 9.042231
57.765 8.907892
57.770 8.724134
57.775 9.065462
57.780 9.338786
57.785 9.57859
57.790 9.57246
57.795 9.398372
57.800 9.754285
57.805 9.99222
57.810 10.218449
57.815 10.516996
57.820 10.31185
57.825 10.284683
57.830 10.543624
57.835 10.490451
57.840 10.320888
57.845 10.017403
57.850 10.023139
57.855 10.426782
57.860 10.724037
57.865 11.012433
57.870 11.181048
57.875 11.536124
57.880 11.395948
57.885 11.283696
57.890 10.754527
57.895 10.218413
57.900 9.478354
57.905 9.039272
57.910 8.799407
57.915 9.135479
57.920 9.151614
57.925 9.061155
57.930 9.075417
57.935 9.46347
57.940 9.703796
57.945 9.949188
57.950 10.045919
57.955 10.236063
57.960 10.704338
57.965 10.960109
57.970 10.574462
57.975 10.090351
57.980 9.867457
57.985 9.739048
57.990 9.63226
57.995 9.519081
58.000 9.799606
58.005 10.019897
58.010 10.055068
58.015 10.432503
58.020 10.393335
58.025 10.037723
58.030 10.121449
58.035 9.860388
58.040 10.225443
58.045 10.487184
58.050 10.337715
58.055 10.759943
58.060 11.059159
58.065 11.192435
58.070 11.684862
58.075 11.806312
58.080 11.651231
58.085 11.600565
58.090 11.039337
58.095 10.98049
58.100 10.786346
58.105 10.334232
58.110 10.063856
58.115 9.95798
58.120 9.754587
58.125 10.126917
58.130 10.304763
58.135 10.2257
58.140 10.325835
58.145 9.985907
58.150 10.267301
58.155 10.853965
58.160 10.580387
58.165 10.679411
58.170 10.381707
58.175 10.469141
58.180 10.90335
58.185 10.800197
58.190 10.528394
58.195 10.363173
58.200 10.261044
58.205 10.56078
58.210 10.412874
58.215 10.69796
58.220 10.969837
58.225 10.928242
58.230 11.243734
58.235 11.07057
58.240 10.928312
58.245 11.00421
58.250 10.668137
58.255 10.487857
58.260 10.566768
58.265 10.856159
58.270 11.281547
58.275 11.366096
58.280 11.741426
58.285 11.678375
58.290 11.562757
58.295 11.45337
58.300 11.467864
58.305 11.39978
58.310 11.79776
58.315 11.27769
58.320 11.429833
58.325 11.216029
58.330 10.938414
58.335 11.311872
58.340 11.511191
58.345 11.096033
58.350 11.851461
58.355 12.197825
58.360 12.275326
58.365 12.440838
58.370 12.218108
58.375 11.724881
58.380 11.349871
58.385 10.561346
58.390 10.707803
58.395 11.57731
58.400 11.841388
58.405 11.613689
58.410 12.055879
58.415 12.691993
58.420 13.79802
58.425 13.835146
58.430 13.376321
58.435 13.27922
58.440 13.224885
58.445 13.075367
58.450 12.869239
58.455 12.877969
58.460 12.938792
58.465 13.333033
58.470 13.939635
58.475 14.238263
58.480 14.634685
58.485 15.042075
58.490 14.807947
58.495 14.816034
58.500 14.987649
58.505 14.842302
58.510 15.262815
58.515 15.360615
58.520 15.289497
58.525 15.951324
58.530 15.985993
58.535 15.987085
58.540 16.458353
58.545 17.0753
58.550 17.725643
58.555 18.126654
58.560 18.090675
58.565 18.590019
58.570 19.009348
58.575 19.198151
58.580 18.640102
58.585 17.999226
58.590 18.113916
58.595 18.57472
58.600 18.834616
58.605 18.805092
58.610 18.274288
58.615 18.773401
58.620 19.777784
58.625 19.912497
58.630 19.677439
58.635 19.360689
58.640 19.525335
58.645 20.080278
58.650 20.112576
58.655 19.708555
58.660 19.760008
58.665 20.330439
58.670 20.750246
58.675 20.581522
58.680 20.930529
58.685 21.075327
58.690 21.562889
58.695 21.744341
58.700 21.457001
58.705 21.06864
58.710 21.049694
58.715 20.644091
58.720 20.660902
58.725 20.591707
58.730 20.79118
58.735 21.143354
58.740 22.401525
58.745 22.987932
58.750 23.488937
58.755 23.65324
58.760 23.652145
58.765 23.254684
58.770 23.65324
58.775 23.203289
58.780 22.644846
58.785 22.363905
58.790 22.38159
58.795 22.161489
58.800 22.419172
58.805 22.096403
58.810 21.91317
58.815 21.337591
58.820 21.138372
58.825 21.138494
58.830 21.210146
58.835 20.453915
58.840 19.732841
58.845 19.456621
58.850 20.188763
58.855 19.99436
58.860 19.11272
58.865 18.343437
58.870 17.855282
58.875 17.486809
58.880 17.117882
58.885 16.56212
58.890 16.276733
58.895 16.241968
58.900 16.68096
58.905 16.275967
58.910 15.941265
58.915 16.073458
58.920 16.070606
58.925 16.000484
58.930 15.877121
58.935 15.756229
58.940 15.720469
58.945 15.660852
58.950 15.290133
58.955 14.647614
58.960 14.019523
58.965 14.063967
58.970 13.924489
58.975 13.683648
58.980 13.708673
58.985 13.398059
58.990 13.352723
58.995 13.301551
59.000 13.41643
59.005 13.633422
59.010 13.596654
59.015 12.824872
59.020 12.470188
59.025 12.484335
59.030 12.789486
59.035 12.308434
59.040 11.857581
59.045 11.465191
59.050 11.634129
59.055 11.755574
59.060 11.905129
59.065 11.799668
59.070 11.386377
59.075 11.305107
59.080 11.697895
59.085 11.421759
59.090 11.843341
59.095 11.799889
59.100 11.888078
59.105 11.939643
59.110 11.770868
59.115 11.404121
59.120 11.483173
59.125 11.251428
59.130 11.023842
59.135 10.939005
59.140 11.196243
59.145 11.535212
59.150 11.636267
59.155 11.497154
59.160 11.124179
59.165 10.855535
59.170 10.650719
59.175 10.539065
59.180 10.483025
59.185 10.446085
59.190 10.704778
59.195 10.750823
59.200 10.796701
59.205 10.85282
59.210 10.97432
59.215 10.845324
59.220 11.085937
59.225 11.031828
59.230 11.098906
59.235 11.50744
59.240 11.457457
59.245 11.457618
59.250 11.633542
59.255 11.736955
59.260 11.639453
59.265 11.631405
59.270 11.113688
59.275 10.986335
59.280 10.592486
59.285 9.755634
59.290 9.591081
59.295 9.889657
59.300 9.939692
59.305 10.068988
59.310 10.204348
59.315 10.316771
59.320 11.039249
59.325 11.194554
59.330 11.192532
59.335 11.123773
59.340 10.91814
59.345 10.804321
59.350 10.920842
59.355 10.571661
59.360 10.129126
59.365 9.773045
59.370 9.554274
59.375 9.516252
59.380 9.557293
59.385 9.890557
59.390 10.381227
59.395 10.628133
59.400 10.928074
59.405 11.521391
59.410 11.791055
59.415 11.418633
59.420 10.935567
59.425 10.701371
59.430 10.454015
59.435 10.254111
59.440 10.108568
59.445 9.878637
59.450 10.126045
59.455 10.278138
59.460 10.305853
59.465 10.466408
59.470 10.223929
59.475 10.408112
59.480 10.583474
59.485 10.785671
59.490 11.121613
59.495 11.198599
59.500 11.328973
59.505 10.975129
59.510 10.666904
59.515 10.519413
59.520 10.198699
59.525 10.147091
59.530 10.285019
59.535 10.480515
59.540 10.853533
59.545 10.990953
59.550 11.302549
59.555 11.344242
59.560 10.885579
59.565 10.520087
59.570 10.7637
59.575 10.910522
59.580 10.623436
59.585 10.479621
59.590 10.719131
59.595 11.015364
59.600 11.767797
59.605 11.75415
59.610 11.679127
59.615 11.996843
59.620 12.144374
59.625 12.418018
59.630 12.571203
59.635 11.72278
59.640 11.759551
59.645 11.49145
59.650 11.266299
59.655 10.833767
59.660 10.8543
59.665 10.706206
59.670 11.147219
59.675 11.059712
59.680 11.099368
59.685 10.787679
59.690 11.087412
59.695 11.048959
59.700 10.953624
59.705 10.421423
59.710 10.366411
59.715 10.602295
59.720 10.850747
59.725 10.828852
59.730 10.482056
59.735 10.734003
59.740 11.256377
59.745 11.547371
59.750 11.835551
59.755 12.107265
59.760 11.888397
59.765 11.781006
59.770 11.290738
59.775 10.914561
59.780 11.188715
59.785 11.049501
59.790 10.924828
59.795 10.778966
59.800 10.641801
59.805 10.454059
59.810 10.560911
59.815 10.203032
59.820 10.261069
59.825 10.549922
59.830 10.852153
59.835 10.706395
59.840 11.032776
59.845 11.074751
59.850 10.7399
59.855 10.396176
59.860 10.220741
59.865 10.225665
59.870 10.516617
59.875 10.23116
59.880 10.171802
59.885 10.89859
59.890 11.158597
59.895 10.810549
59.900 10.424928
59.905 10.687326
59.910 11.077829
59.915 10.314194
59.920 9.811809
59.925 9.51026
59.930 9.997068
59.935 10.233205
59.940 9.465104
59.945 9.199543
59.950 9.705078
59.955 9.730766
59.960 10.008796
59.965 10.141067
59.970 10.55257
59.975 11.059863
59.980 11.68963
59.985 12.000069
59.990 11.947771
59.995 11.807204
60.000 11.416148
60.005 10.992622
60.010 11.161594
60.015 11.246333
60.020 11.270701
60.025 11.421953
60.030 11.625768
60.035 12.058958
60.040 12.442753
60.045 12.033361
60.050 11.276805
60.055 11.22351
60.060 11.138787
60.065 10.702346
60.070 10.380486
60.075 10.468097
60.080 10.466781
60.085 10.742977
60.090 10.561016
60.095 10.827905
60.100 11.223592
60.105 11.245979
60.110 10.855438
60.115 10.869667
60.120 10.893633
60.125 10.832472
60.130 10.322011
60.135 9.924206
60.140 9.902187
60.145 10.212773
60.150 10.15565
60.155 10.162367
60.160 9.926621
60.165 10.030445
60.170 10.385893
60.175 10.267331
60.180 10.246138
60.185 10.266664
60.190 10.293419
60.195 10.282966
60.200 10.60718
60.205 10.594288
60.210 10.566259
60.215 10.319652
60.220 10.101784
60.225 10.158893
60.230 10.180665
60.235 10.098595
60.240 10.327133
60.245 10.497542
60.250 10.895896
60.255 11.033443
60.260 11.397002
60.265 11.90753
60.270 11.88562
60.275 11.744895
60.280 11.857728
60.285 11.753173
60.290 12.119021
60.295 11.523858
60.300 10.78368
60.305 10.767915
60.310 10.866195
60.315 10.992332
60.320 10.952065
60.325 10.732665
60.330 11.425608
60.335 11.770416
60.340 11.737075
60.345 11.505101
60.350 11.598526
60.355 11.860672
60.360 11.747553
60.365 11.640675
60.370 11.708859
60.375 11.595018
60.380 11.932078
60.385 11.724567
60.390 11.208731
60.395 11.253931
60.400 11.012978
60.405 10.777347
60.410 11.2197
60.415 11.218476
60.420 11.340226
60.425 11.808509
60.430 11.835304
60.435 11.835605
60.440 11.757668
60.445 11.068042
60.450 10.827286
60.455 10.889665
60.460 10.682241
60.465 10.595798
60.470 10.96876
60.475 11.145237
60.480 11.270069
60.485 11.303843
60.490 11.242292
60.495 11.096579
60.500 11.071262
60.505 11.031277
60.510 11.367049
60.515 11.532735
60.520 11.08075
60.525 11.070127
60.530 11.450578
60.535 11.669798
60.540 11.840086
60.545 11.538313
60.550 11.70403
60.555 12.162614
60.560 11.747007
60.565 11.794913
60.570 11.065909
60.575 10.726176
60.580 10.928684
60.585 10.815609
60.590 10.969712
60.595 11.244448
60.600 11.209008
60.605 11.200709
60.610 10.925148
60.615 10.886371
60.620 11.012269
60.625 10.789062
60.630 10.374723
60.635 10.434173
60.640 10.403818
60.645 10.802637
60.650 10.94156
60.655 10.743648
60.660 10.697089
60.665 11.195539
60.670 11.383034
60.675 11.96504
60.680 11.570642
60.685 11.791059
60.690 11.755707
60.695 11.605742
60.700 11.414061
60.705 11.070269
60.710 10.844743
60.715 11.540299
60.720 11.708841
60.725 11.542128
60.730 11.717179
60.735 11.525554
60.740 11.584677
60.745 11.758661
60.750 11.396887
60.755 11.024035
60.760 11.287347
60.765 11.459835
60.770 11.504316
60.775 11.475008
60.780 11.336884
60.785 11.099538
60.790 10.889061
60.795 10.882287
60.800 10.86242
60.805 10.792163
60.810 10.591327
60.815 10.711267
60.820 10.837286
60.825 11.138015
60.830 10.778117
60.835 10.922328
60.840 11.102844
60.845 12.039979
60.850 12.108989
60.855 12.4151
60.860 12.053188
60.865 12.155923
60.870 12.389162
60.875 12.614022
60.880 11.730027
60.885 11.461591
60.890 11.253318
60.895 11.69201
60.900 11.614494
60.905 10.924923
60.910 10.828875
60.915 11.15736
60.920 10.977283
60.925 11.109305
60.930 11.140694
60.935 11.788145
60.940 12.127844
60.945 11.95976
60.950 11.72651
60.955 11.967937
60.960 11.905003
60.965 12.076874
60.970 11.914892
60.975 11.792762
60.980 11.382581
60.985 11.446011
60.990 11.632502
60.995 11.467486
61.000 11.181399
61.005 10.969323
61.010 11.513482
61.015 11.975943
61.020 12.146104
61.025 12.17902
61.030 11.969712
61.035 11.562963
61.040 11.469467
61.045 11.060225
61.050 10.936328
61.055 10.937222
61.060 11.124244
61.065 11.330336
61.070 11.617031
61.075 11.752964
61.080 11.723966
61.085 11.604445
61.090 11.495495
61.095 11.797146
61.100 11.996711
61.105 11.885112
61.110 11.616834
61.115 11.617286
61.120 12.097039
61.125 11.800142
61.130 11.185127
61.135 10.938931
61.140 11.01027
61.145 10.950519
61.150 10.385479
61.155 10.061782
61.160 10.682838
61.165 10.773016
61.170 10.580177
61.175 10.471313
61.180 10.780623
61.185 11.127524
61.190 10.96523
61.195 10.445163
61.200 10.526485
61.205 11.1805
61.210 11.450475
61.215 11.537535
61.220 11.656105
61.225 12.37044
61.230 13.065293
61.235 13.456374
61.240 13.201145
61.245 12.971503
61.250 12.869669
61.255 13.106576
61.260 12.466907
61.265 11.823674
61.270 11.325797
61.275 11.46726
61.280 11.737418
61.285 12.139972
61.290 12.477461
61.295 12.81591
61.300 12.716604
61.305 12.680083
61.310 12.803242
61.315 12.553651
61.320 12.132562
61.325 11.891541
61.330 11.986728
61.335 12.552377
61.340 12.791372
61.345 12.910578
61.350 13.14683
61.355 13.711516
61.360 13.547308
61.365 13.28261
61.370 12.888477
61.375 12.412357
61.380 12.265735
61.385 12.338137
61.390 12.269668
61.395 12.541004
61.400 12.756213
61.405 12.719334
61.410 13.177702
61.415 13.349019
61.420 13.033337
61.425 12.282657
61.430 11.925867
61.435 11.859167
61.440 12.057973
61.445 11.772653
61.450 11.675533
61.455 11.845174
61.460 11.968412
61.465 12.311564
61.470 12.01717
61.475 11.731557
61.480 11.616803
61.485 11.380594
61.490 11.684665
61.495 11.796906
61.500 11.648181
61.505 11.770442
61.510 12.267106
61.515 12.919077
61.520 13.176823
61.525 13.144654
61.530 13.354349
61.535 13.499386
61.540 13.769597
61.545 13.320403
61.550 13.108997
61.555 13.111348
61.560 12.81637
61.565 12.646756
61.570 12.631584
61.575 12.913182
61.580 13.141087
61.585 13.209318
61.590 13.448054
61.595 13.966182
61.600 14.128149
61.605 13.975523
61.610 13.707911
61.615 13.543209
61.620 13.436212
61.625 12.983134
61.630 12.630458
61.635 12.191265
61.640 12.193353
61.645 12.385176
61.650 12.475649
61.655 12.290085
61.660 12.192378
61.665 11.900558
61.670 11.908092
61.675 11.868616
61.680 11.975596
61.685 11.551821
61.690 10.875358
61.695 10.961746
61.700 11.180058
61.705 11.462543
61.710 11.786307
61.715 11.751731
61.720 12.164692
61.725 12.989313
61.730 12.977772
61.735 13.018258
61.740 13.106555
61.745 12.731715
61.750 12.166167
61.755 11.826757
61.760 11.89059
61.765 12.362842
61.770 12.567403
61.775 12.519279
61.780 12.919555
61.785 13.163717
61.790 13.391643
61.795 12.979811
61.800 13.188185
61.805 13.329414
61.810 13.172454
61.815 13.023858
61.820 13.118286
61.825 13.394367
61.830 13.147531
61.835 12.265166
61.840 11.956949
61.845 12.121488
61.850 11.763273
61.855 11.738674
61.860 12.046047
61.865 12.701938
61.870 12.696876
61.875 12.736405
61.880 12.934139
61.885 13.399019
61.890 13.541663
61.895 13.608841
61.900 13.927864
61.905 14.573908
61.910 14.746509
61.915 14.677605
61.920 14.723246
61.925 14.480749
61.930 14.044663
61.935 13.995888
61.940 13.695882
61.945 13.529646
61.950 13.054407
61.955 12.840111
61.960 12.86643
61.965 12.755914
61.970 12.336992
61.975 12.481934
61.980 12.165049
61.985 12.750126
61.990 12.642638
61.995 12.638477
62.000 12.495495
62.005 12.368937
62.010 12.299797
62.015 12.764382
62.020 12.617044
62.025 12.461767
62.030 11.941025
62.035 11.559702
62.040 11.458858
62.045 11.06801
62.050 11.131595
62.055 10.989849
62.060 11.48207
62.065 11.887478
62.070 12.049002
62.075 12.12882
62.080 12.431519
62.085 12.350101
62.090 12.360082
62.095 12.792687
62.100 13.515841
62.105 13.480718
62.110 13.232602
62.115 13.014959
62.120 12.730867
62.125 12.099605
62.130 11.502394
62.135 11.843434
62.140 12.388434
62.145 12.53788
62.150 12.553891
62.155 12.758654
62.160 12.973851
62.165 12.697109
62.170 11.966676
62.175 11.869398
62.180 12.036439
62.185 11.756112
62.190 12.458063
62.195 12.720962
62.200 12.621544
62.205 12.415148
62.210 12.951896
62.215 13.219693
62.220 13.037314
62.225 12.559586
62.230 12.599494
62.235 12.525806
62.240 12.560813
62.245 11.98076
62.250 12.124051
62.255 12.630682
62.260 12.221138
62.265 12.475375
62.270 12.573343
62.275 12.626966
62.280 12.563872
62.285 11.869449
62.290 11.422219
62.295 11.376909
62.300 10.892658
62.305 10.602679
62.310 10.01792
62.315 10.207494
62.320 10.695749
62.325 11.259727
62.330 11.683194
62.335 11.784189
62.340 11.900992
62.345 12.268493
62.350 12.092134
62.355 12.256702
62.360 11.984018
62.365 11.996959
62.370 12.516734
62.375 12.768379
62.380 12.964948
62.385 13.045915
62.390 12.750946
62.395 13.075474
62.400 13.037031
62.405 13.236871
62.410 13.561916
62.415 13.682021
62.420 13.638722
62.425 13.526593
62.430 13.271213
62.435 13.057235
62.440 12.607388
62.445 12.040087
62.450 11.727538
62.455 12.063718
62.460 12.89956
62.465 13.522528
62.470 13.834069
62.475 14.442572
62.480 14.992875
62.485 15.272267
62.490 14.921414
62.495 14.459286
62.500 13.805367
62.505 13.45605
62.510 13.385908
62.515 13.073137
62.520 13.027098
62.525 13.177641
62.530 13.457745
62.535 13.773153
62.540 13.43251
62.545 13.489229
62.550 13.693604
62.555 13.670474
62.560 13.1589
62.565 13.181403
62.570 12.979859
62.575 12.974208
62.580 12.802127
62.585 12.537402
62.590 12.601525
62.595 12.899936
62.600 12.643547
62.605 12.983617
62.610 12.775757
62.615 12.388329
62.620 12.584395
62.625 12.680046
62.630 12.727637
62.635 12.414832
62.640 12.019085
62.645 12.300865
62.650 12.42596
62.655 12.097083
62.660 12.018435
62.665 12.040348
62.670 12.68
62.675 13.096864
62.680 13.593586
62.685 14.312794
62.690 14.671577
62.695 14.473872
62.700 13.752815
62.705 13.109762
62.710 12.998174
62.715 12.781294
62.720 12.780251
62.725 12.623528
62.730 13.097419
62.735 13.720131
62.740 13.870223
62.745 13.761447
62.750 13.219004
62.755 13.030793
62.760 13.439311
62.765 13.088542
62.770 12.629367
62.775 12.547634
62.780 12.680837
62.785 12.670932
62.790 12.777204
62.795 12.765824
62.800 12.844497
62.805 13.192845
62.810 12.916247
62.815 12.634819
62.820 12.989676
62.825 12.749466
62.830 12.508567
62.835 13.031625
62.840 13.122994
62.845 13.864672
62.850 14.255173
62.855 13.826909
62.860 13.822151
62.865 13.34514
62.870 12.85915
62.875 12.461863
62.880 12.094844
62.885 11.929286
62.890 11.84112
62.895 11.932621
62.900 12.546844
62.905 12.650566
62.910 12.731815
62.915 12.821624
62.920 12.93239
62.925 12.676843
62.930 12.36644
62.935 11.662675
62.940 11.438607
62.945 11.346327
62.950 10.939871
62.955 10.988859
62.960 11.344576
62.965 11.81784
62.970 12.505696
62.975 12.986834
62.980 13.534327
62.985 14.089468
62.990 14.318792
62.995 14.61136
63.000 15.108116
63.005 15.422041
63.010 15.175837
63.015 14.387259
63.020 14.023236
63.025 13.749174
63.030 13.24117
63.035 12.733932
63.040 12.178292
63.045 12.551478
63.050 13.014134
63.055 13.109166
63.060 13.414918
63.065 13.520165
63.070 13.376149
63.075 13.445088
63.080 13.569576
63.085 13.526078
63.090 13.554616
63.095 13.723294
63.100 13.644764
63.105 13.512559
63.110 13.897828
63.115 13.889223
63.120 13.955026
63.125 13.715874
63.130 13.915217
63.135 14.575418
63.140 15.029747
63.145 15.245151
63.150 15.015815
63.155 14.890315
63.160 14.849132
63.165 14.417994
63.170 14.053991
63.175 13.565073
63.180 12.713714
63.185 12.563364
63.190 12.723243
63.195 12.910668
63.200 13.039702
63.205 13.098677
63.210 13.240878
63.215 13.192682
63.220 13.032613
63.225 12.989415
63.230 13.350589
63.235 13.226147
63.240 13.247113
63.245 13.238317
63.250 13.445485
63.255 14.08726
63.260 14.293952
63.265 13.612431
63.270 13.414011
63.275 13.217044
63.280 13.038152
63.285 12.975101
63.290 12.588408
63.295 12.603899
63.300 12.997255
63.305 13.076604
63.310 13.252792
63.315 13.623581
63.320 14.188636
63.325 14.684911
63.330 14.573119
63.335 14.616048
63.340 14.491503
63.345 14.311614
63.350 14.737182
63.355 14.424664
63.360 14.246105
63.365 14.008689
63.370 13.670035
63.375 13.86325
63.380 13.953374
63.385 13.564535
63.390 13.873928
63.395 14.165936
63.400 14.417979
63.405 14.628397
63.410 14.483752
63.415 14.100191
63.420 13.892727
63.425 13.506361
63.430 13.244331
63.435 13.148863
63.440 13.105755
63.445 13.034138
63.450 13.226149
63.455 13.131667
63.460 12.719369
63.465 12.633507
63.470 12.84136
63.475 13.069168
63.480 13.572177
63.485 13.836849
63.490 13.466831
63.495 13.334228
63.500 13.477944
63.505 13.270699
63.510 13.023616
63.515 13.158398
63.520 13.139838
63.525 13.636271
63.530 13.753369
63.535 13.419852
63.540 13.654996
63.545 13.688063
63.550 13.1296
63.555 13.33846
63.560 13.533205
63.565 14.11413
63.570 14.225675
63.575 13.884427
63.580 14.078807
63.585 14.661302
63.590 14.288632
63.595 13.692304
63.600 13.56896
63.605 13.215316
63.610 13.365406
63.615 13.131999
63.620 13.008965
63.625 13.424973
63.630 13.772006
63.635 13.562086
63.640 14.016303
63.645 14.246127
63.650 14.674245
63.655 14.16645
63.660 14.409986
63.665 14.449118
63.670 14.486558
63.675 14.507583
63.680 14.543255
63.685 14.759448
63.690 15.502221
63.695 14.952061
63.700 14.684906
63.705 14.815717
63.710 14.470615
63.715 14.065932
63.720 13.599674
63.725 13.421202
63.730 13.2631
63.735 13.542634
63.740 13.4365
63.745 13.575343
63.750 14.039916
63.755 14.366578
63.760 13.934852
63.765 14.416822
63.770 14.384777
63.775 14.438881
63.780 14.610539
63.785 14.131891
63.790 13.817888
63.795 14.17256
63.800 14.01878
63.805 14.06708
63.810 14.110272
63.815 13.957116
63.820 14.08864
63.825 13.983845
63.830 13.907577
63.835 14.307348
63.840 14.406965
63.845 14.374634
63.850 14.515939
63.855 14.64891
63.860 15.088348
63.865 16.052513
63.870 16.3904
63.875 15.881234
63.880 15.41826
63.885 15.095192
63.890 15.034626
63.895 14.824364
63.900 14.611081
63.905 14.460708
63.910 14.881845
63.915 15.602288
63.920 15.822351
63.925 15.763615
63.930 15.556482
63.935 15.094997
63.940 14.708638
63.945 15.203357
63.950 15.294554
63.955 16.051191
63.960 16.482746
63.965 16.753057
63.970 16.73274
63.975 17.004122
63.980 17.365387
63.985 17.286827
63.990 16.380152
63.995 15.973571
64.000 15.890082
64.005 16.103449
64.010 16.490467
64.015 16.580797
64.020 16.818243
64.025 17.699953
64.030 18.245901
64.035 18.769491
64.040 18.794735
64.045 18.511143
64.050 18.803419
64.055 18.557173
64.060 18.254723
64.065 18.205282
64.070 18.152784
64.075 18.267044
64.080 18.565132
64.085 17.833939
64.090 18.056852
64.095 17.947001
64.100 17.248821
64.105 16.498636
64.110 16.58293
64.115 16.840643
64.120 17.36154
64.125 17.967863
64.130 18.353315
64.135 18.914364
64.140 19.626686
64.145 19.554546
64.150 19.250195
64.155 18.90884
64.160 18.186148
64.165 18.083176
64.170 18.35257
64.175 18.413277
64.180 18.685999
64.185 19.124689
64.190 19.843945
64.195 20.270195
64.200 20.944693
64.205 21.121845
64.210 21.906094
64.215 22.264055
64.220 22.502363
64.225 23.402046
64.230 24.851856
64.235 25.177732
64.240 25.257725
64.245 25.046379
64.250 25.691145
64.255 26.682352
64.260 26.71957
64.265 26.239092
64.270 26.996494
64.275 27.849749
64.280 28.650953
64.285 29.090452
64.290 30.47525
64.295 31.523933
64.300 32.001858
64.305 32.290501
64.310 31.933668
64.315 32.099327
64.320 31.875278
64.325 31.331789
64.330 30.491716
64.335 30.190283
64.340 30.440006
64.345 32.285748
64.350 32.995533
64.355 33.053123
64.360 33.797077
64.365 34.569866
64.370 35.917377
64.375 36.333466
64.380 35.695347
64.385 36.148212
64.390 36.62785
64.395 36.772072
64.400 38.221031
64.405 37.616817
64.410 37.211456
64.415 37.116421
64.420 37.210236
64.425 37.323162
64.430 36.977161
64.435 36.000313
64.440 36.422462
64.445 36.956532
64.450 36.52475
64.455 37.179871
64.460 37.615028
64.465 38.601711
64.470 39.183926
64.475 38.880829
64.480 40.007732
64.485 40.437168
64.490 39.696495
64.495 39.422157
64.500 39.72438
64.505 40.063789
64.510 39.733837
64.515 38.257504
64.520 37.724663
64.525 37.257797
64.530 36.954544
64.535 35.696457
64.540 35.500389
64.545 35.415276
64.550 35.633945
64.555 35.707626
64.560 35.414051
64.565 35.153454
64.570 35.587437
64.575 34.592735
64.580 34.404613
64.585 33.882896
64.590 33.303009
64.595 32.783661
64.600 32.475384
64.605 31.567274
64.610 31.714947
64.615 31.374464
64.620 30.916542
64.625 30.588535
64.630 30.087816
64.635 29.393576
64.640 29.072674
64.645 28.634842
64.650 28.206842
64.655 28.153357
64.660 28.509712
64.665 28.690594
64.670 28.035721
64.675 27.928738
64.680 27.228708
64.685 26.745806
64.690 25.641352
64.695 25.095358
64.700 24.360826
64.705 23.704853
64.710 23.261772
64.715 23.629807
64.720 24.024969
64.725 24.222126
64.730 23.785307
64.735 24.142366
64.740 24.421715
64.745 23.493717
64.750 22.524593
64.755 21.571205
64.760 21.607794
64.765 21.874426
64.770 22.002251
64.775 21.509813
64.780 21.398872
64.785 21.302341
64.790 21.783047
64.795 21.903517
64.800 21.440531
64.805 20.819893
64.810 20.525476
64.815 20.69182
64.820 20.534128
64.825 19.61997
64.830 19.053316
64.835 19.170256
64.840 19.339993
64.845 18.99843
64.850 18.629299
64.855 19.019417
64.860 19.512859
64.865 19.23444
64.870 19.135778
64.875 19.354652
64.880 19.669966
64.885 19.750574
64.890 19.426178
64.895 19.471159
64.900 19.571112
64.905 19.89521
64.910 19.545746
64.915 19.448362
64.920 19.037672
64.925 19.252707
64.930 19.367338
64.935 19.110338
64.940 18.961605
64.945 19.185665
64.950 18.989237
64.955 18.984423
64.960 19.057375
64.965 18.906052
64.970 19.36216
64.975 19.230309
64.980 19.130877
64.985 19.583351
64.990 20.269329
64.995 20.639509
65.000 20.562708
65.005 20.760889
65.010 20.925938
65.015 21.707304
65.020 22.106014
65.025 22.303646
65.030 22.412764
65.035 22.695045
65.040 22.645651
65.045 22.591438
65.050 22.412706
65.055 23.357296
65.060 23.613358
65.065 23.802576
65.070 24.177536
65.075 24.22229
65.080 24.941866
65.085 25.632998
65.090 25.472843
65.095 25.625799
65.100 26.070194
65.105 26.37244
65.110 26.634218
65.115 27.132591
65.120 27.078678
65.125 27.603224
65.130 28.208117
65.135 28.754679
65.140 28.836079
65.145 29.293602
65.150 29.341776
65.155 29.513969
65.160 29.728727
65.165 29.379688
65.170 29.103724
65.175 29.482939
65.180 29.316767
65.185 29.720568
65.190 29.930803
65.195 30.173334
65.200 30.443624
65.205 30.789583
65.210 30.849304
65.215 30.337461
65.220 29.515923
65.225 29.427782
65.230 29.784145
65.235 29.734549
65.240 29.599722
65.245 29.118879
65.250 29.258924
65.255 29.259537
65.260 28.806011
65.265 27.255217
65.270 26.517517
65.275 26.7526
65.280 27.613394
65.285 27.960491
65.290 28.131203
65.295 28.808918
65.300 30.595366
65.305 31.269817
65.310 31.219416
65.315 31.892189
65.320 32.535244
65.325 32.29306
65.330 31.960039
65.335 30.589527
65.340 30.55669
65.345 30.914351
65.350 30.741661
65.355 30.237244
65.360 30.491095
65.365 30.089651
65.370 30.978941
65.375 31.022837
65.380 29.831818
65.385 29.317539
65.390 29.503344
65.395 29.390745
65.400 29.685019
65.405 30.018702
65.410 30.359406
65.415 30.705738
65.420 30.728456
65.425 31.107807
65.430 31.546984
65.435 30.921402
65.440 30.357672
65.445 30.708672
65.450 30.848766
65.455 30.64872
65.460 30.967861
65.465 31.400871
65.470 31.891781
65.475 31.355364
65.480 31.123709
65.485 31.449366
65.490 31.327091
65.495 31.233109
65.500 30.755571
65.505 31.102955
65.510 31.50724
65.515 31.512014
65.520 31.360561
65.525 31.259815
65.530 31.568193
65.535 31.343607
65.540 31.404854
65.545 31.543388
65.550 31.197683
65.555 31.225433
65.560 31.083691
65.565 30.688934
65.570 30.737633
65.575 30.381227
65.580 29.458748
65.585 29.224989
65.590 28.536676
65.595 28.925106
65.600 28.728376
65.605 28.364355
65.610 28.228544
65.615 28.518091
65.620 28.50515
65.625 28.476879
65.630 27.636578
65.635 27.906317
65.640 28.651031
65.645 28.924576
65.650 29.400663
65.655 30.113672
65.660 30.767191
65.665 30.95001
65.670 29.609451
65.675 28.886339
65.680 27.890121
65.685 27.126654
65.690 26.421303
65.695 25.828579
65.700 25.469034
65.705 25.785589
65.710 25.791327
65.715 25.909153
65.720 25.928993
65.725 25.998783
65.730 26.130287
65.735 26.660963
65.740 27.072882
65.745 27.072342
65.750 27.869051
65.755 28.460363
65.760 28.189804
65.765 27.845251
65.770 27.462284
65.775 27.515003
65.780 27.493883
65.785 26.972382
65.790 26.303415
65.795 26.268267
65.800 26.077139
65.805 25.584562
65.810 24.73208
65.815 24.389912
65.820 24.296083
65.825 24.540922
65.830 24.535912
65.835 24.434395
65.840 24.203375
65.845 24.078503
65.850 23.860266
65.855 23.257683
65.860 22.316141
65.865 21.738483
65.870 21.618719
65.875 21.692209
65.880 22.067165
65.885 21.884703
65.890 21.461506
65.895 21.184071
65.900 20.8424
65.905 20.404085
65.910 20.486073
65.915 20.222593
65.920 19.86886
65.925 19.785633
65.930 19.972595
65.935 19.955662
65.940 20.034737
65.945 19.683659
65.950 19.51672
65.955 20.030069
65.960 20.089577
65.965 19.590261
65.970 19.838718
65.975 19.524071
65.980 19.659702
65.985 19.882851
65.990 19.257046
65.995 18.746578
66.000 19.668154
66.005 19.728371
66.010 19.945349
66.015 19.845444
66.020 19.387924
66.025 19.750996
66.030 20.224203
66.035 19.399456
66.040 18.833157
66.045 18.098053
66.050 17.533552
66.055 17.033234
66.060 16.41658
66.065 15.920953
66.070 15.96607
66.075 15.831055
66.080 16.101351
66.085 16.401449
66.090 16.887394
66.095 16.934725
66.100 16.898815
66.105 17.573994
66.110 17.594738
66.115 17.694653
66.120 17.599413
66.125 17.251921
66.130 17.494978
66.135 16.974602
66.140 16.284597
66.145 16.489912
66.150 16.542469
66.155 16.479259
66.160 16.177486
66.165 16.048281
66.170 16.164951
66.175 16.33502
66.180 16.033892
66.185 15.868424
66.190 16.201233
66.195 16.350836
66.200 16.040751
66.205 16.255903
66.210 16.568598
66.215 16.412292
66.220 16.449711
66.225 16.539238
66.230 16.691063
66.235 16.699303
66.240 16.210049
66.245 15.949887
66.250 16.195959
66.255 15.696925
66.260 14.924289
66.265 14.951242
66.270 14.655718
66.275 14.663665
66.280 14.478618
66.285 14.621497
66.290 15.402031
66.295 16.045662
66.300 16.378918
66.305 16.966009
66.310 17.067738
66.315 16.953648
66.320 16.487137
66.325 16.567869
66.330 15.973005
66.335 15.68857
66.340 16.154287
66.345 15.961102
66.350 15.775901
66.355 16.079853
66.360 15.868696
66.365 15.934901
66.370 15.834782
66.375 15.242813
66.380 15.389246
66.385 15.647061
66.390 15.419245
66.395 15.157029
66.400 15.390468
66.405 15.298851
66.410 15.808232
66.415 15.728331
66.420 15.325026
66.425 15.630679
66.430 15.477281
66.435 15.437997
66.440 15.554878
66.445 14.803619
66.450 14.506065
66.455 14.765275
66.460 14.776681
66.465 14.78145
66.470 14.785295
66.475 14.94771
66.480 15.914474
66.485 16.614269
66.490 16.766384
66.495 16.352673
66.500 16.210316
66.505 16.150269
66.510 15.895226
66.515 15.242299
66.520 14.75778
66.525 14.813725
66.530 15.433107
66.535 16.425875
66.540 16.729912
66.545 17.151653
66.550 17.375257
66.555 17.470829
66.560 17.148304
66.565 16.608812
66.570 16.062382
66.575 16.070452
66.580 15.57817
66.585 15.112736
66.590 15.149552
66.595 15.177676
66.600 15.447641
66.605 15.416605
66.610 14.804837
66.615 15.31783
66.620 16.126022
66.625 16.533255
66.630 16.87368
66.635 16.732622
66.640 16.919168
66.645 17.304384
66.650 17.361805
66.655 16.940245
66.660 16.765261
66.665 16.881224
66.670 17.033405
66.675 16.408043
66.680 16.278002
66.685 15.744943
66.690 15.327672
66.695 15.079219
66.700 14.494834
66.705 14.48705
66.710 15.012132
66.715 14.969131
66.720 15.273821
66.725 16.050362
66.730 16.903984
66.735 17.494883
66.740 17.759935
66.745 17.664648
66.750 17.141582
66.755 16.952679
66.760 16.554234
66.765 16.151073
66.770 15.314699
66.775 14.865292
66.780 15.693124
66.785 16.409742
66.790 16.192013
66.795 16.119305
66.800 16.093784
66.805 16.128288
66.810 16.17054
66.815 15.319476
66.820 15.004639
66.825 15.25492
66.830 15.522015
66.835 15.27947
66.840 15.28403
66.845 15.318404
66.850 15.681012
66.855 15.73651
66.860 15.705747
66.865 15.344458
66.870 15.5779
66.875 15.91409
66.880 15.965469
66.885 16.079613
66.890 15.964544
66.895 15.663872
66.900 15.332561
66.905 15.117329
66.910 14.783992
66.915 14.345979
66.920 14.154792
66.925 14.234554
66.930 14.782316
66.935 15.109687
66.940 15.309752
66.945 15.426185
66.950 15.296435
66.955 15.234333
66.960 15.359739
66.965 15.283666
66.970 15.036386
66.975 14.502037
66.980 14.711197
66.985 14.902886
66.990 14.998343
66.995 14.420322
67.000 14.374556
67.005 14.521535
67.010 14.702541
67.015 14.88065
67.020 14.595754
67.025 14.628769
67.030 15.228912
67.035 15.958944
67.040 16.21998
67.045 15.957107
67.050 15.768874
67.055 15.767005
67.060 15.818913
67.065 15.373307
67.070 14.298262
67.075 13.752971
67.080 13.844838
67.085 14.404396
67.090 14.329527
67.095 13.90702
67.100 13.945004
67.105 14.276342
67.110 14.902109
67.115 14.867806
67.120 14.38909
67.125 14.366163
67.130 14.166767
67.135 13.931917
67.140 14.178226
67.145 14.255989
67.150 14.102115
67.155 14.43768
67.160 14.756238
67.165 14.957783
67.170 14.355621
67.175 13.665681
67.180 13.327283
67.185 13.309405
67.190 12.681716
67.195 12.217826
67.200 12.501238
67.205 13.446494
67.210 13.766207
67.215 13.579411
67.220 13.657094
67.225 13.92557
67.230 14.04641
67.235 13.906174
67.240 13.56969
67.245 13.717049
67.250 13.751658
67.255 13.898253
67.260 13.520604
67.265 13.920246
67.270 14.325078
67.275 14.150697
67.280 13.99184
67.285 14.763968
67.290 15.255852
67.295 15.705768
67.300 15.345789
67.305 14.705804
67.310 15.044561
67.315 15.306383
67.320 14.723176
67.325 14.715291
67.330 14.823956
67.335 15.383013
67.340 15.834513
67.345 15.760989
67.350 15.86924
67.355 15.80216
67.360 15.628165
67.365 15.845287
67.370 15.597151
67.375 15.839639
67.380 16.146332
67.385 16.390251
67.390 16.892237
67.395 16.542984
67.400 15.938799
67.405 15.674029
67.410 15.795694
67.415 15.546315
67.420 15.139885
67.425 14.8554
67.430 14.878924
67.435 15.513529
67.440 15.533545
67.445 15.071596
67.450 14.790092
67.455 14.399121
67.460 14.34901
67.465 14.771527
67.470 14.21843
67.475 14.316014
67.480 14.708491
67.485 14.597743
67.490 14.7927
67.495 15.414724
67.500 15.337337
67.505 15.727806
67.510 15.753594
67.515 15.791386
67.520 16.568033
67.525 16.887508
67.530 16.476627
67.535 16.186907
67.540 15.893939
67.545 15.69286
67.550 14.966816
67.555 14.386898
67.560 13.926012
67.565 14.190573
67.570 14.637579
67.575 14.433636
67.580 14.435851
67.585 15.187916
67.590 15.346642
67.595 15.12086
67.600 14.632565
67.605 14.792377
67.610 15.179095
67.615 15.543534
67.620 16.094656
67.625 17.109861
67.630 17.651222
67.635 18.131548
67.640 17.862202
67.645 17.654984
67.650 17.436438
67.655 16.497345
67.660 15.147562
67.665 14.997992
67.670 15.126565
67.675 15.880949
67.680 16.503843
67.685 16.734207
67.690 17.108717
67.695 18.098301
67.700 18.601471
67.705 18.699699
67.710 18.293896
67.715 17.704376
67.720 18.089638
67.725 18.215998
67.730 17.759439
67.735 17.127962
67.740 16.465925
67.745 16.460964
67.750 16.570761
67.755 16.143414
67.760 16.007385
67.765 16.107283
67.770 16.301025
67.775 16.459969
67.780 16.225723
67.785 15.801877
67.790 15.891968
67.795 15.868048
67.800 15.387756
67.805 15.139723
67.810 15.071616
67.815 15.414593
67.820 15.406829
67.825 15.203441
67.830 15.608571
67.835 16.043819
67.840 16.136257
67.845 16.050608
67.850 16.08839
67.855 16.494699
67.860 16.043226
67.865 15.641913
67.870 15.299564
67.875 15.346031
67.880 15.208668
67.885 15.265848
67.890 14.934052
67.895 15.0442
67.900 15.427205
67.905 15.511793
67.910 15.420623
67.915 15.284543
67.920 14.8101
67.925 14.694973
67.930 14.472214
67.935 14.804255
67.940 15.025496
67.945 15.423938
67.950 15.485506
67.955 15.761522
67.960 16.118992
67.965 16.212845
67.970 16.183863
67.975 16.33511
67.980 16.29368
67.985 16.652782
67.990 16.745285
67.995 17.301397
68.000 16.916836
68.005 16.448107
68.010 16.06719
68.015 16.286137
68.020 16.442453
68.025 16.329519
68.030 16.522942
68.035 16.599003
68.040 15.840909
68.045 15.621999
68.050 15.24813
68.055 15.264539
68.060 15.388843
68.065 15.286631
68.070 15.921181
68.075 16.793875
68.080 17.089787
68.085 17.652273
68.090 17.695827
68.095 17.484335
68.100 17.102209
68.105 17.359003
68.110 17.210445
68.115 17.141941
68.120 17.483416
68.125 17.207521
68.130 17.347879
68.135 17.4076
68.140 17.42909
68.145 18.165075
68.150 18.093187
68.155 17.385321
68.160 17.194168
68.165 17.10124
68.170 17.233583
68.175 17.316885
68.180 16.708668
68.185 16.912794
68.190 17.220612
68.195 17.813898
68.200 17.837494
68.205 17.942163
68.210 17.988306
68.215 17.987055
68.220 18.061348
68.225 17.832287
68.230 17.893381
68.235 18.365879
68.240 18.630871
68.245 18.905222
68.250 18.494366
68.255 18.519474
68.260 18.654091
68.265 18.277582
68.270 18.090412
68.275 18.417919
68.280 18.995735
68.285 19.396891
68.290 19.41036
68.295 19.716942
68.300 20.285208
68.305 20.668493
68.310 20.025978
68.315 20.015478
68.320 20.892736
68.325 21.660767
68.330 22.103054
68.335 22.243382
68.340 22.105442
68.345 22.959969
68.350 23.644192
68.355 24.03161
68.360 23.884205
68.365 23.37446
68.370 23.184494
68.375 23.247429
68.380 22.756077
68.385 21.788891
68.390 21.195866
68.395 21.343946
68.400 22.320862
68.405 23.06987
68.410 23.68191
68.415 24.713192
68.420 25.826193
68.425 26.43141
68.430 26.532839
68.435 26.148806
68.440 25.664717
68.445 25.762911
68.450 26.16798
68.455 26.092243
68.460 25.652449
68.465 26.184849
68.470 25.971382
68.475 26.083578
68.480 25.709595
68.485 25.523146
68.490 26.00238
68.495 26.512539
68.500 26.685507
68.505 26.925323
68.510 27.347504
68.515 27.239605
68.520 27.294054
68.525 27.416676
68.530 26.894518
68.535 26.59687
68.540 27.066828
68.545 27.511696
68.550 27.947983
68.555 28.170773
68.560 27.531792
68.565 28.25004
68.570 28.483181
68.575 28.511293
68.580 28.075951
68.585 27.821852
68.590 28.342991
68.595 28.1141
68.600 27.797007
68.605 28.532581
68.610 28.68515
68.615 29.646835
68.620 29.425961
68.625 29.579544
68.630 30.203098
68.635 30.443237
68.640 30.035744
68.645 29.522446
68.650 29.940191
68.655 30.394651
68.660 29.291502
68.665 28.79932
68.670 28.518057
68.675 28.567549
68.680 28.733379
68.685 27.803263
68.690 27.658306
68.695 28.342976
68.700 28.946213
68.705 28.581442
68.710 28.255781
68.715 28.094648
68.720 28.519299
68.725 29.001696
68.730 28.761278
68.735 28.752283
68.740 29.031832
68.745 28.605911
68.750 28.34157
68.755 27.760923
68.760 26.994473
68.765 26.831553
68.770 26.938925
68.775 26.631052
68.780 26.565468
68.785 25.969702
68.790 25.877678
68.795 25.469778
68.800 25.953579
68.805 26.391603
68.810 26.67111
68.815 26.834105
68.820 28.196529
68.825 29.308365
68.830 30.414585
68.835 30.67543
68.840 30.964771
68.845 31.805647
68.850 31.985853
68.855 31.040247
68.860 30.203583
68.865 29.518789
68.870 28.859911
68.875 28.276125
68.880 26.869633
68.885 26.955883
68.890 27.230993
68.895 26.682226
68.900 26.421667
68.905 26.623438
68.910 26.678677
68.915 27.499384
68.920 27.130865
68.925 27.141876
68.930 27.368273
68.935 27.308908
68.940 27.502403
68.945 26.966713
68.950 26.370392
68.955 25.929178
68.960 25.275694
68.965 24.839611
68.970 24.537842
68.975 24.403959
68.980 24.370525
68.985 24.268692
68.990 24.943274
68.995 25.125141
69.000 26.160763
69.005 26.349691
69.010 26.510572
69.015 26.487
69.020 26.93767
69.025 26.703159
69.030 26.226927
69.035 25.055523
69.040 24.213194
69.045 23.743917
69.050 23.251917
69.055 22.488165
69.060 22.325134
69.065 22.903727
69.070 23.648088
69.075 22.818565
69.080 22.505819
69.085 22.428684
69.090 22.964373
69.095 23.225584
69.100 22.989952
69.105 22.608805
69.110 23.371183
69.115 24.420109
69.120 24.234919
69.125 23.311792
69.130 22.865881
69.135 22.188923
69.140 21.543308
69.145 21.213835
69.150 20.075182
69.155 19.637566
69.160 19.922009
69.165 20.109606
69.170 20.833761
69.175 20.978422
69.180 21.444166
69.185 22.187567
69.190 22.178375
69.195 21.946316
69.200 21.41157
69.205 20.912739
69.210 20.355808
69.215 19.499027
69.220 18.620089
69.225 18.881063
69.230 18.90589
69.235 18.476696
69.240 18.006708
69.245 17.712254
69.250 17.950315
69.255 18.380657
69.260 17.935476
69.265 17.833328
69.270 17.987591
69.275 18.670681
69.280 19.042694
69.285 18.502863
69.290 17.85672
69.295 17.484598
69.300 17.285191
69.305 17.704638
69.310 17.316551
69.315 16.713316
69.320 16.741709
69.325 16.920412
69.330 17.039131
69.335 17.01173
69.340 16.731792
69.345 17.024343
69.350 17.865768
69.355 18.526775
69.360 18.924612
69.365 19.231638
69.370 19.508854
69.375 18.918676
69.380 18.350573
69.385 17.591869
69.390 17.367205
69.395 17.128309
69.400 17.026361
69.405 16.901581
69.410 17.499393
69.415 17.597052
69.420 17.772161
69.425 17.472137
69.430 17.288498
69.435 17.302324
69.440 17.387928
69.445 17.134863
69.450 16.29468
69.455 15.950672
69.460 16.131157
69.465 16.105572
69.470 15.64634
69.475 15.14433
69.480 15.420277
69.485 15.655993
69.490 16.098581
69.495 16.50318
69.500 16.886211
69.505 17.220215
69.510 17.420982
69.515 17.415119
69.520 17.969557
69.525 17.931387
69.530 17.550844
69.535 17.501875
69.540 17.392611
69.545 17.63109
69.550 17.240629
69.555 16.446991
69.560 16.076187
69.565 15.714103
69.570 15.796597
69.575 16.312975
69.580 16.217812
69.585 16.920942
69.590 17.740902
69.595 17.427921
69.600 17.476725
69.605 17.1154
69.610 16.633827
69.615 16.665138
69.620 16.18924
69.625 16.127123
69.630 16.064409
69.635 16.00787
69.640 16.306435
69.645 16.360575
69.650 16.838327
69.655 16.639795
69.660 16.332399
69.665 16.505196
69.670 16.436623
69.675 15.948107
69.680 15.930334
69.685 16.306803
69.690 16.62579
69.695 16.843044
69.700 16.548395
69.705 16.994345
69.710 17.11772
69.715 16.553339
69.720 15.742692
69.725 15.64895
69.730 16.130262
69.735 16.713835
69.740 16.464407
69.745 16.873449
69.750 17.266027
69.755 17.386637
69.760 17.347261
69.765 16.434883
69.770 15.999711
69.775 16.196438
69.780 16.088459
69.785 15.919201
69.790 15.672204
69.795 15.687886
69.800 16.302055
69.805 16.309015
69.810 16.360527
69.815 16.277748
69.820 15.934007
69.825 16.247173
69.830 16.3986
69.835 16.056765
69.840 15.966466
69.845 15.762204
69.850 16.046724
69.855 15.98912
69.860 15.891099
69.865 16.043367
69.870 16.375381
69.875 16.29319
69.880 16.435184
69.885 16.26244
69.890 16.397139
69.895 16.445812
69.900 16.254696
69.905 16.089439
69.910 15.866621
69.915 15.664011
69.920 16.071672
69.925 16.36655
69.930 16.435549
69.935 16.160143
69.940 16.168419
69.945 16.103056
69.950 15.982752
69.955 15.970949
69.960 15.610169
69.965 14.937459
69.970 14.820379
69.975 14.797603
69.980 15.029108
69.985 14.97111
69.990 14.457791
69.995 14.70629
70.000 14.951231
70.005 14.869392
70.010 14.840285
70.015 14.738436
70.020 14.810846
70.025 15.550623
70.030 15.468114
70.035 15.242119
70.040 15.682993
70.045 15.543945
70.050 15.492349
70.055 15.259485
70.060 14.735136
70.065 15.259428
70.070 15.844678
70.075 15.698745
70.080 15.879457
70.085 16.230185
70.090 16.391695
70.095 16.636938
70.100 16.399115
70.105 16.400482
70.110 16.675543
70.115 17.310921
70.120 17.011364
70.125 16.958864
70.130 16.913118
70.135 16.415585
70.140 16.405645
70.145 16.597713
70.150 16.117407
70.155 15.765463
70.160 15.773146
70.165 15.215315
70.170 15.67105
70.175 15.286317
70.180 14.839749
70.185 15.017476
70.190 15.424278
70.195 16.205467
70.200 16.547487
70.205 16.78631
70.210 16.813421
70.215 16.697832
70.220 16.708313
70.225 16.411898
70.230 15.577253
70.235 15.346765
70.240 14.749362
70.245 15.087281
70.250 15.232758
70.255 15.578882
70.260 15.506034
70.265 15.923641
70.270 16.000322
70.275 16.060575
70.280 15.535067
70.285 15.542208
70.290 15.552847
70.295 15.850574
70.300 16.06426
70.305 16.329109
70.310 16.062595
70.315 16.968727
70.320 17.038843
70.325 16.650394
70.330 16.223974
70.335 15.943245
70.340 16.444975
70.345 17.059191
70.350 16.377464
70.355 16.154299
70.360 16.452774
70.365 16.698145
70.370 16.971561
70.375 16.531172
70.380 15.652846
70.385 16.117563
70.390 16.053215
70.395 16.130915
70.400 15.94494
70.405 15.683918
70.410 15.426824
70.415 15.812108
70.420 15.953948
70.425 16.410742
70.430 16.052422
70.435 15.881405
70.440 15.917318
70.445 16.467619
70.450 16.20668
70.455 16.076422
70.460 16.099808
70.465 16.397261
70.470 16.478439
70.475 17.043423
70.480 17.409832
70.485 16.981113
70.490 17.087999
70.495 16.763269
70.500 16.787025
70.505 16.648064
70.510 15.760374
70.515 15.465413
70.520 15.34968
70.525 14.697691
70.530 14.469818
70.535 14.347553
70.540 14.219927
70.545 15.315345
70.550 15.578689
70.555 15.764381
70.560 15.915306
70.565 16.091202
70.570 16.221729
70.575 16.018034
70.580 15.491961
70.585 15.386255
70.590 15.339441
70.595 15.003075
70.600 15.082493
70.605 14.995321
70.610 14.498504
70.615 14.146354
70.620 14.516963
70.625 14.314386
70.630 14.22539
70.635 14.036462
70.640 14.033699
70.645 14.298402
70.650 14.242297
70.655 13.931155
70.660 14.537814
70.665 14.849667
70.670 14.737759
70.675 15.301446
70.680 15.913835
70.685 16.380507
70.690 16.46822
70.695 16.031139
70.700 16.257305
70.705 16.362381
70.710 15.834367
70.715 15.629801
70.720 15.653766
70.725 15.893391
70.730 15.998325
70.735 15.982742
70.740 15.587873
70.745 15.517154
70.750 15.481706
70.755 15.236278
70.760 15.625653
70.765 15.539535
70.770 15.836797
70.775 16.415266
70.780 16.838404
70.785 16.75421
70.790 16.427313
70.795 15.771958
70.800 15.744971
70.805 15.296746
70.810 15.045166
70.815 14.806564
70.820 14.964294
70.825 16.076385
70.830 16.4513
70.835 16.544874
70.840 16.837082
70.845 17.176498
70.850 17.153749
70.855 16.425102
70.860 15.344019
70.865 15.383041
70.870 15.374063
70.875 15.320169
70.880 15.07838
70.885 15.036018
70.890 15.49855
70.895 15.48097
70.900 15.546533
70.905 15.14572
70.910 14.654247
70.915 14.309646
70.920 14.318975
70.925 13.855478
70.930 13.396818
70.935 13.441074
70.940 13.906566
70.945 14.39642
70.950 14.586474
70.955 14.428465
70.960 15.119836
70.965 15.660295
70.970 15.447097
70.975 15.834803
70.980 15.711897
70.985 15.432773
70.990 15.415413
70.995 15.360262
71.000 15.599738
71.005 16.095299
71.010 16.035891
71.015 16.714514
71.020 17.442064
71.025 17.630108
71.030 17.407949
71.035 17.136292
71.040 16.790773
71.045 16.453415
71.050 16.446699
71.055 15.869176
71.060 15.630707
71.065 15.46139
71.070 15.092187
71.075 14.682836
71.080 14.848106
71.085 15.191685
71.090 15.660898
71.095 16.050602
71.100 16.429857
71.105 16.981108
71.110 16.897655
71.115 16.523596
71.120 15.950036
71.125 15.934903
71.130 15.599019
71.135 15.539232
71.140 15.356767
71.145 15.264511
71.150 14.901749
71.155 15.013585
71.160 14.830683
71.165 15.442654
71.170 15.500109
71.175 15.855789
71.180 16.358923
71.185 16.770647
71.190 16.844881
71.195 16.524866
71.200 16.36767
71.205 17.052843
71.210 16.965998
71.215 16.723156
71.220 16.673552
71.225 16.581139
71.230 16.956308
71.235 16.456186
71.240 15.359684
71.245 14.932782
71.250 14.709839
71.255 14.850358
71.260 14.582143
71.265 14.224895
71.270 14.347706
71.275 14.945852
71.280 15.501164
71.285 15.389384
71.290 15.70965
71.295 16.155006
71.300 16.082527
71.305 16.101261
71.310 15.857717
71.315 15.769894
71.320 15.851973
71.325 15.683894
71.330 16.469202
71.335 16.739183
71.340 16.404676
71.345 16.187298
71.350 16.078251
71.355 16.109724
71.360 15.560555
71.365 15.234985
71.370 15.161251
71.375 15.399794
71.380 14.817806
71.385 14.608388
71.390 14.403191
71.395 14.410409
71.400 14.679663
71.405 14.72509
71.410 15.447982
71.415 16.274687
71.420 16.239622
71.425 16.538218
71.430 16.114986
71.435 15.303733
71.440 14.857789
71.445 14.67293
71.450 14.607314
71.455 14.731515
71.460 14.708589
71.465 14.857114
71.470 15.10456
71.475 15.497831
71.480 15.446736
71.485 16.010857
71.490 16.268942
71.495 16.013821
71.500 15.965775
71.505 16.129913
71.510 15.464437
71.515 15.256306
71.520 14.530344
71.525 14.436056
71.530 14.670527
71.535 14.90403
71.540 14.974703
71.545 15.14887
71.550 14.889235
71.555 15.710479
71.560 16.159369
71.565 16.289543
71.570 16.800884
71.575 16.282343
71.580 16.232979
71.585 15.972023
71.590 15.047836
71.595 14.482391
71.600 14.867312
71.605 15.104136
71.610 15.434373
71.615 15.836073
71.620 16.30311
71.625 16.523027
71.630 16.854237
71.635 16.456701
71.640 16.321093
71.645 16.353893
71.650 16.4828
71.655 16.545134
71.660 16.536547
71.665 16.188828
71.670 16.236841
71.675 16.325644
71.680 16.393559
71.685 16.101282
71.690 16.11512
71.695 16.326107
71.700 16.131979
71.705 15.959228
71.710 15.465941
71.715 15.616962
71.720 15.731313
71.725 15.828313
71.730 15.758156
71.735 15.252385
71.740 15.357336
71.745 15.787923
71.750 15.48021
71.755 15.559242
71.760 15.24859
71.765 15.531588
71.770 15.679399
71.775 14.956441
71.780 15.256752
71.785 15.481354
71.790 15.119605
71.795 14.985046
71.800 14.538017
71.805 14.730999
71.810 15.000492
71.815 14.604335
71.820 15.0486
71.825 14.830225
71.830 15.066332
71.835 15.510336
71.840 15.880358
71.845 16.211374
71.850 16.096996
71.855 16.074783
71.860 16.240625
71.865 15.899133
71.870 16.085739
71.875 16.607836
71.880 16.769503
71.885 16.900549
71.890 16.724766
71.895 16.624815
71.900 16.571365
71.905 16.309275
71.910 15.806141
71.915 15.911808
71.920 15.251066
71.925 15.350622
71.930 15.895247
71.935 15.78034
71.940 15.728129
71.945 15.166003
71.950 14.680409
71.955 14.737984
71.960 14.41829
71.965 14.288883
71.970 14.119612
71.975 13.90493
71.980 13.938719
71.985 14.054745
71.990 14.239547
71.995 14.533213
72.000 14.519135
72.005 15.239336
72.010 15.951738
72.015 16.850046
72.020 17.361917
72.025 17.496735
72.030 17.186853
72.035 16.550884
72.040 16.084576
72.045 15.217025
72.050 15.022187
72.055 15.19875
72.060 15.672581
72.065 15.574227
72.070 15.868139
72.075 16.296265
72.080 16.979391
72.085 17.205557
72.090 16.630825
72.095 16.318729
72.100 17.059755
72.105 16.637646
72.110 16.036121
72.115 15.498896
72.120 15.691337
72.125 15.367408
72.130 15.206315
72.135 14.680324
72.140 14.957549
72.145 14.976975
72.150 14.717953
72.155 14.482775
72.160 15.2384
72.165 15.726292
72.170 15.946947
72.175 15.814667
72.180 15.99906
72.185 15.519851
72.190 15.200827
72.195 15.225938
72.200 14.842216
72.205 14.773859
72.210 14.886652
72.215 14.906105
72.220 15.061925
72.225 14.816333
72.230 14.632186
72.235 15.154714
72.240 15.14815
72.245 15.483684
72.250 16.273773
72.255 16.560987
72.260 16.560564
72.265 16.44669
72.270 16.05307
72.275 16.685865
72.280 16.523798
72.285 15.882366
72.290 15.898442
72.295 15.709969
72.300 15.719879
72.305 15.675332
72.310 14.970958
72.315 14.697681
72.320 14.388799
72.325 14.451522
72.330 14.385476
72.335 14.503552
72.340 14.514099
72.345 14.587008
72.350 14.823445
72.355 15.001879
72.360 14.810764
72.365 14.833494
72.370 14.542533
72.375 14.588291
72.380 15.413515
72.385 15.624445
72.390 15.320478
72.395 15.9699
72.400 16.399729
72.405 16.088144
72.410 15.772937
72.415 14.782372
72.420 15.032285
72.425 15.27517
72.430 15.241487
72.435 15.222059
72.440 15.353089
72.445 15.886086
72.450 15.85313
72.455 15.475452
72.460 15.500443
72.465 15.26909
72.470 15.280121
72.475 14.931293
72.480 14.752031
72.485 15.258625
72.490 15.312157
72.495 14.613521
72.500 14.695988
72.505 14.953253
72.510 15.27936
72.515 15.272133
72.520 14.955811
72.525 15.069226
72.530 15.490002
72.535 15.673925
72.540 15.586125
72.545 15.656272
72.550 15.88473
72.555 15.453851
72.560 15.73659
72.565 15.363237
72.570 14.937252
72.575 14.597525
72.580 14.467726
72.585 14.688693
72.590 14.64994
72.595 14.629737
72.600 15.108597
72.605 15.770135
72.610 15.498972
72.615 15.567628
72.620 15.812451
72.625 15.9106
72.630 15.828119
72.635 15.511908
72.640 15.34025
72.645 15.502202
72.650 15.142752
72.655 15.26265
72.660 15.021525
72.665 14.820487
72.670 14.522608
72.675 14.686927
72.680 14.703233
72.685 14.546044
72.690 14.497431
72.695 14.627281
72.700 14.751696
72.705 14.7583
72.710 15.000961
72.715 15.291562
72.720 15.472799
72.725 15.658019
72.730 15.608944
72.735 15.990436
72.740 15.962315
72.745 15.654836
72.750 15.532606
72.755 15.520732
72.760 15.681857
72.765 15.922057
72.770 15.804004
72.775 16.026655
72.780 15.856239
72.785 16.167576
72.790 15.486035
72.795 15.332624
72.800 16.394228
72.805 16.239737
72.810 16.089684
72.815 15.572809
72.820 14.95572
72.825 14.851289
72.830 14.690947
72.835 14.252868
72.840 14.255358
72.845 14.614802
72.850 15.206803
72.855 16.011189
72.860 15.979734
72.865 15.380782
72.870 15.52949
72.875 15.956808
72.880 16.08563
72.885 15.409784
72.890 15.543724
72.895 15.945982
72.900 15.86149
72.905 15.618645
72.910 14.992603
72.915 14.826749
72.920 14.704293
72.925 14.31935
72.930 14.436147
72.935 14.231734
72.940 13.773629
72.945 13.864505
72.950 13.873031
72.955 13.845587
72.960 13.802155
72.965 13.486556
72.970 14.046057
72.975 14.539538
72.980 15.193439
72.985 15.515603
72.990 15.600244
72.995 16.055618
73.000 16.282787
