!@!!GADDS PLOTSO FILE: Chi integration type
!@!!Title/SampleName: map-102
!@!!Comment: ?
!@!!User: Bruker Instrument Administrator
!@!!Site: University of Illinois Chicago
!@!!Frame: map-102_01_000.gfrm
!@!!Wavelengths    1.54184   1.54056   1.54439
!@!!Frame angles: 2Theta: 63.000 Omega: 50.000 Phi: 0.000 Chi: 90.000
!@!!Integration range: 2Theta: 53.000 to 73.000  Gamma: -105.000 to -75.000
!@!!Integration method: bin normalized
!@!N
!@!SS
!@!M
!@!L 0.0 0.0 0.0 0.0
!@!XDegrees
!@!YCounts
53.000 9.509629
53.005 10.015754
53.010 10.095419
53.015 9.660522
53.020 9.344361
53.025 9.465487
53.030 9.491864
53.035 9.605462
53.040 9.547851
53.045 9.395218
53.050 9.554783
53.055 10.138479
53.060 10.566463
53.065 10.495197
53.070 10.228563
53.075 9.801687
53.080 9.804628
53.085 9.758356
53.090 9.597583
53.095 9.380026
53.100 9.342096
53.105 9.558751
53.110 10.041578
53.115 10.466175
53.120 10.786139
53.125 10.664558
53.130 11.341268
53.135 11.911304
53.140 11.724425
53.145 11.757752
53.150 11.19981
53.155 11.047846
53.160 10.932758
53.165 10.337172
53.170 9.97814
53.175 10.212326
53.180 10.436403
53.185 10.661896
53.190 10.551201
53.195 10.620023
53.200 10.710281
53.205 10.866855
53.210 10.711206
53.215 10.35619
53.220 10.179533
53.225 10.009357
53.230 9.414555
53.235 9.089116
53.240 9.280804
53.245 8.693303
53.250 8.458534
53.255 8.329783
53.260 8.754951
53.265 9.373308
53.270 9.274779
53.275 8.879516
53.280 9.54864
53.285 9.812086
53.290 9.880809
53.295 10.385761
53.300 10.378201
53.305 10.637876
53.310 10.954861
53.315 11.07539
53.320 11.797314
53.325 11.54771
53.330 10.918973
53.335 11.194467
53.340 11.358871
53.345 11.511827
53.350 11.386004
53.355 11.38168
53.360 11.730542
53.365 11.6211
53.370 11.258216
53.375 10.758092
53.380 10.405418
53.385 10.234343
53.390 9.881054
53.395 9.522223
53.400 9.522824
53.405 9.582794
53.410 9.948603
53.415 9.90459
53.420 9.917182
53.425 10.030421
53.430 10.34744
53.435 10.33855
53.440 10.131687
53.445 10.03582
53.450 10.153627
53.455 9.841849
53.460 9.758327
53.465 10.020409
53.470 10.201577
53.475 10.354137
53.480 10.58826
53.485 10.716788
53.490 11.019324
53.495 10.95674
53.500 10.727149
53.505 10.863793
53.510 10.708356
53.515 10.382204
53.520 10.316449
53.525 10.63036
53.530 10.420015
53.535 10.465578
53.540 10.256606
53.545 9.927968
53.550 9.583916
53.555 9.003539
53.560 8.981772
53.565 9.314433
53.570 9.654229
53.575 10.023733
53.580 11.070795
53.585 11.313853
53.590 11.99143
53.595 12.17417
53.600 11.904606
53.605 11.548455
53.610 11.139857
53.615 10.492954
53.620 10.638021
53.625 10.10027
53.630 9.827687
53.635 9.524173
53.640 9.672603
53.645 10.011621
53.650 10.644353
53.655 10.705227
53.660 10.538699
53.665 10.778287
53.670 10.818762
53.675 10.657931
53.680 10.069049
53.685 9.755568
53.690 9.575806
53.695 9.910265
53.700 10.181859
53.705 10.296408
53.710 10.260848
53.715 10.57508
53.720 10.871305
53.725 10.896843
53.730 10.852081
53.735 11.31034
53.740 11.815107
53.745 12.141532
53.750 11.764804
53.755 11.891207
53.760 12.163714
53.765 11.842028
53.770 11.013144
53.775 10.414294
53.780 10.438823
53.785 10.468588
53.790 10.091914
53.795 10.409409
53.800 10.456712
53.805 11.034711
53.810 11.078633
53.815 10.950262
53.820 10.850996
53.825 10.791225
53.830 10.109706
53.835 9.929564
53.840 9.59678
53.845 9.411367
53.850 9.381501
53.855 9.136473
53.860 9.420427
53.865 10.320303
53.870 10.528296
53.875 10.924604
53.880 11.485673
53.885 12.087484
53.890 12.464764
53.895 12.146355
53.900 11.505022
53.905 11.495655
53.910 11.057333
53.915 10.927024
53.920 10.833728
53.925 10.99369
53.930 11.407497
53.935 11.26516
53.940 11.132513
53.945 11.327179
53.950 10.89364
53.955 10.630989
53.960 10.77321
53.965 10.681902
53.970 10.381251
53.975 10.301353
53.980 9.804837
53.985 9.540223
53.990 9.475514
53.995 9.249702
54.000 9.044895
54.005 9.700123
54.010 9.364166
54.015 9.346304
54.020 9.684589
54.025 9.93071
54.030 9.906783
54.035 9.814708
54.040 9.948184
54.045 10.522842
54.050 10.931008
54.055 11.000359
54.060 10.2925
54.065 10.407459
54.070 10.855853
54.075 11.123718
54.080 11.211253
54.085 11.204278
54.090 11.197549
54.095 11.355118
54.100 11.579774
54.105 11.17992
54.110 11.204982
54.115 11.218312
54.120 11.290646
54.125 11.259092
54.130 12.038968
54.135 11.662648
54.140 11.541679
54.145 11.351687
54.150 10.925999
54.155 11.012802
54.160 10.921899
54.165 10.693839
54.170 10.701804
54.175 10.545381
54.180 10.720359
54.185 10.938633
54.190 10.680414
54.195 10.148528
54.200 9.426586
54.205 9.77023
54.210 10.011382
54.215 10.415323
54.220 10.733643
54.225 10.884525
54.230 11.259944
54.235 11.692937
54.240 12.184755
54.245 12.286886
54.250 11.988183
54.255 12.000857
54.260 12.079524
54.265 12.156577
54.270 12.131945
54.275 11.700643
54.280 11.30245
54.285 11.256906
54.290 11.435288
54.295 11.690652
54.300 12.311749
54.305 12.510107
54.310 12.696493
54.315 12.449496
54.320 12.03775
54.325 12.241687
54.330 12.629447
54.335 12.406067
54.340 12.049455
54.345 11.905502
54.350 12.028769
54.355 12.073616
54.360 11.695709
54.365 11.019887
54.370 10.485639
54.375 10.392527
54.380 10.213126
54.385 10.16155
54.390 10.413977
54.395 10.7073
54.400 11.117589
54.405 11.587208
54.410 11.984693
54.415 12.274864
54.420 12.05502
54.425 11.769416
54.430 11.183164
54.435 11.31317
54.440 11.124978
54.445 11.205784
54.450 11.224319
54.455 11.319149
54.460 11.420918
54.465 11.478425
54.470 11.457395
54.475 11.112227
54.480 10.656533
54.485 11.10975
54.490 11.473092
54.495 11.4573
54.500 11.396611
54.505 11.459108
54.510 11.324389
54.515 11.126504
54.520 10.585582
54.525 10.488124
54.530 10.731435
54.535 10.831585
54.540 10.98299
54.545 11.933187
54.550 12.626068
54.555 12.848849
54.560 12.7456
54.565 12.49999
54.570 12.502229
54.575 12.453834
54.580 11.964323
54.585 11.527858
54.590 11.697144
54.595 12.036843
54.600 11.644481
54.605 11.344892
54.610 10.881104
54.615 10.976549
54.620 11.736675
54.625 11.381572
54.630 11.376481
54.635 11.840275
54.640 12.103251
54.645 12.312026
54.650 12.19849
54.655 12.098984
54.660 12.307775
54.665 12.445657
54.670 12.036927
54.675 11.983176
54.680 12.236946
54.685 12.061934
54.690 12.010719
54.695 11.460874
54.700 11.358435
54.705 11.605895
54.710 11.693838
54.715 11.557167
54.720 11.204601
54.725 11.40112
54.730 11.623836
54.735 11.654343
54.740 11.531158
54.745 11.322734
54.750 11.367807
54.755 11.556255
54.760 11.534295
54.765 11.524121
54.770 11.63848
54.775 11.136219
54.780 11.106015
54.785 10.35643
54.790 9.52767
54.795 9.575046
54.800 9.85246
54.805 10.315929
54.810 11.032048
54.815 11.317788
54.820 12.114258
54.825 12.503152
54.830 12.329953
54.835 11.97823
54.840 11.344947
54.845 11.271749
54.850 11.152107
54.855 11.154037
54.860 11.145249
54.865 11.06057
54.870 11.176533
54.875 11.023407
54.880 10.820398
54.885 11.22823
54.890 11.1254
54.895 11.613755
54.900 12.027117
54.905 12.065578
54.910 12.673447
54.915 13.337905
54.920 13.567887
54.925 13.426711
54.930 12.859805
54.935 12.811069
54.940 12.852618
54.945 12.325947
54.950 12.509852
54.955 12.220538
54.960 12.746183
54.965 12.975194
54.970 12.751813
54.975 13.042561
54.980 12.674168
54.985 12.374434
54.990 12.371257
54.995 11.734529
55.000 11.275831
55.005 11.043718
55.010 11.506613
55.015 11.611724
55.020 11.487547
55.025 11.430532
55.030 11.917038
55.035 12.232419
55.040 12.082537
55.045 11.582786
55.050 11.684817
55.055 11.934941
55.060 12.344165
55.065 12.623213
55.070 12.76273
55.075 13.070647
55.080 12.989792
55.085 12.78678
55.090 12.645182
55.095 12.000356
55.100 12.077065
55.105 12.022223
55.110 11.906858
55.115 11.986149
55.120 11.966193
55.125 12.091842
55.130 11.908132
55.135 12.46927
55.140 12.858222
55.145 13.005208
55.150 13.052005
55.155 12.944504
55.160 12.819612
55.165 13.081626
55.170 12.456555
55.175 11.91043
55.180 11.595426
55.185 11.861176
55.190 12.92485
55.195 13.176019
55.200 13.362967
55.205 13.414666
55.210 13.567135
55.215 13.826602
55.220 13.461086
55.225 13.181632
55.230 12.825785
55.235 12.305116
55.240 12.124975
55.245 11.831445
55.250 12.088257
55.255 11.786085
55.260 11.384924
55.265 11.58394
55.270 11.806194
55.275 11.861405
55.280 11.702268
55.285 11.406614
55.290 10.895036
55.295 10.670346
55.300 10.221909
55.305 9.953443
55.310 9.804727
55.315 9.876428
55.320 10.52864
55.325 11.362958
55.330 12.080932
55.335 12.939472
55.340 13.086364
55.345 13.405513
55.350 13.266439
55.355 12.612069
55.360 12.294588
55.365 11.835197
55.370 11.079972
55.375 11.554113
55.380 11.429656
55.385 11.665468
55.390 11.836166
55.395 11.921535
55.400 11.948292
55.405 12.422151
55.410 12.63276
55.415 12.66326
55.420 12.34998
55.425 11.861993
55.430 11.84582
55.435 12.096726
55.440 12.097755
55.445 12.100965
55.450 12.429498
55.455 12.876732
55.460 13.235268
55.465 12.830439
55.470 12.451213
55.475 11.89087
55.480 11.776109
55.485 11.412296
55.490 11.683652
55.495 12.216645
55.500 12.331741
55.505 12.837562
55.510 12.908052
55.515 12.7984
55.520 13.064179
55.525 12.419801
55.530 12.040936
55.535 12.069093
55.540 11.659969
55.545 11.647002
55.550 11.653419
55.555 11.704208
55.560 12.521641
55.565 12.888925
55.570 12.306182
55.575 12.365461
55.580 12.588844
55.585 12.661656
55.590 12.211888
55.595 12.072805
55.600 11.993244
55.605 12.01167
55.610 11.726334
55.615 11.786162
55.620 12.002018
55.625 11.86982
55.630 11.261766
55.635 11.246572
55.640 11.859479
55.645 12.498689
55.650 12.564176
55.655 12.818651
55.660 12.741313
55.665 12.742634
55.670 12.53043
55.675 11.88751
55.680 11.744807
55.685 11.815604
55.690 11.589955
55.695 11.682326
55.700 11.851261
55.705 12.125281
55.710 12.372852
55.715 12.386014
55.720 12.454941
55.725 12.646081
55.730 13.130425
55.735 13.473672
55.740 13.824129
55.745 13.924773
55.750 13.624836
55.755 13.430332
55.760 12.989662
55.765 12.224438
55.770 11.841635
55.775 11.678294
55.780 11.600286
55.785 11.071092
55.790 10.929088
55.795 10.924739
55.800 11.32597
55.805 11.403239
55.810 11.433331
55.815 11.969561
55.820 12.301219
55.825 12.900911
55.830 13.253801
55.835 13.364321
55.840 13.259812
55.845 12.909829
55.850 12.568657
55.855 12.504241
55.860 12.319344
55.865 12.724175
55.870 12.822878
55.875 12.784787
55.880 13.09373
55.885 13.110418
55.890 13.030466
55.895 12.747718
55.900 12.389845
55.905 12.229425
55.910 12.650481
55.915 12.302152
55.920 13.024393
55.925 13.539922
55.930 13.36549
55.935 13.266607
55.940 13.535099
55.945 13.938801
55.950 14.232035
55.955 13.827581
55.960 13.818005
55.965 13.916036
55.970 14.032613
55.975 14.183423
55.980 13.541981
55.985 13.414451
55.990 13.47503
55.995 13.242842
56.000 13.457886
56.005 13.257771
56.010 12.893698
56.015 13.323194
56.020 13.032263
56.025 12.887673
56.030 13.251297
56.035 13.444692
56.040 13.333163
56.045 13.202953
56.050 12.493815
56.055 12.361178
56.060 12.606796
56.065 12.183233
56.070 11.785951
56.075 12.202229
56.080 12.40807
56.085 12.602365
56.090 12.844383
56.095 12.547585
56.100 12.349861
56.105 12.253409
56.110 11.869059
56.115 12.23309
56.120 12.449223
56.125 12.414167
56.130 12.357598
56.135 12.427737
56.140 12.618237
56.145 12.466516
56.150 12.797327
56.155 13.277368
56.160 13.33754
56.165 13.670525
56.170 13.993784
56.175 13.918941
56.180 14.163132
56.185 14.146788
56.190 13.839617
56.195 13.378517
56.200 13.106292
56.205 12.871172
56.210 12.852645
56.215 13.169252
56.220 13.260132
56.225 13.421447
56.230 14.191699
56.235 14.094377
56.240 14.022857
56.245 13.93735
56.250 13.22782
56.255 12.738867
56.260 12.3995
56.265 12.493397
56.270 12.904199
56.275 13.392432
56.280 13.271336
56.285 13.687652
56.290 14.195381
56.295 14.10871
56.300 13.972153
56.305 14.054142
56.310 13.55717
56.315 13.66027
56.320 13.522079
56.325 13.416376
56.330 13.110683
56.335 13.30691
56.340 13.650718
56.345 14.166864
56.350 13.984344
56.355 13.756026
56.360 13.7311
56.365 14.08103
56.370 14.01337
56.375 13.415085
56.380 13.585204
56.385 14.204988
56.390 14.860069
56.395 15.065557
56.400 14.646117
56.405 14.965164
56.410 15.161467
56.415 15.19874
56.420 14.643132
56.425 14.757751
56.430 14.668406
56.435 14.607072
56.440 14.038655
56.445 14.235843
56.450 14.241802
56.455 14.121099
56.460 13.883245
56.465 13.935806
56.470 13.913095
56.475 14.3097
56.480 14.009198
56.485 13.857978
56.490 13.887803
56.495 13.623415
56.500 13.631781
56.505 13.399128
56.510 13.112748
56.515 12.827224
56.520 13.147577
56.525 13.308475
56.530 13.416402
56.535 13.201622
56.540 13.483435
56.545 13.284987
56.550 13.203241
56.555 13.061707
56.560 13.166558
56.565 13.159562
56.570 13.473082
56.575 13.223761
56.580 13.70537
56.585 13.917002
56.590 13.485874
56.595 13.344017
56.600 13.243727
56.605 13.196144
56.610 13.307326
56.615 12.98931
56.620 12.611568
56.625 12.848912
56.630 12.616958
56.635 12.674178
56.640 12.40033
56.645 12.599112
56.650 12.894742
56.655 13.108551
56.660 13.734711
56.665 14.351171
56.670 14.298835
56.675 14.488032
56.680 14.225977
56.685 14.471697
56.690 14.92725
56.695 14.281375
56.700 14.097757
56.705 14.270047
56.710 14.013649
56.715 14.436673
56.720 14.56264
56.725 14.517829
56.730 15.269288
56.735 15.851871
56.740 16.284817
56.745 16.511034
56.750 16.192329
56.755 15.506069
56.760 14.774379
56.765 13.972656
56.770 13.830085
56.775 14.187239
56.780 14.269735
56.785 14.170655
56.790 14.382192
56.795 14.188508
56.800 14.252461
56.805 14.339437
56.810 14.050135
56.815 13.792859
56.820 13.721609
56.825 14.190979
56.830 14.605872
56.835 14.368042
56.840 14.223985
56.845 14.272665
56.850 14.583363
56.855 14.299763
56.860 14.129682
56.865 14.687171
56.870 15.432989
56.875 15.143354
56.880 15.173572
56.885 15.485323
56.890 15.724043
56.895 15.402201
56.900 14.654195
56.905 14.279991
56.910 14.23257
56.915 13.987516
56.920 13.880206
56.925 14.18549
56.930 14.714435
56.935 15.0647
56.940 14.700252
56.945 14.376758
56.950 14.507559
56.955 14.566582
56.960 14.154524
56.965 13.892269
56.970 13.694328
56.975 14.199279
56.980 14.773759
56.985 15.190625
56.990 15.193324
56.995 15.470102
57.000 15.404571
57.005 15.125063
57.010 14.869699
57.015 14.784201
57.020 14.379151
57.025 14.502635
57.030 14.186883
57.035 14.324942
57.040 14.584051
57.045 14.421017
57.050 14.548583
57.055 14.699534
57.060 14.931729
57.065 14.958062
57.070 15.111147
57.075 15.298326
57.080 15.078974
57.085 14.342231
57.090 14.266234
57.095 14.236758
57.100 14.354117
57.105 14.205337
57.110 13.788963
57.115 14.011425
57.120 14.128559
57.125 13.678939
57.130 13.942954
57.135 13.822802
57.140 13.811041
57.145 14.568582
57.150 14.862205
57.155 15.115892
57.160 15.276803
57.165 15.195201
57.170 15.401384
57.175 15.744143
57.180 15.549474
57.185 15.338593
57.190 15.69741
57.195 15.148646
57.200 14.623198
57.205 14.285636
57.210 14.298276
57.215 14.916172
57.220 14.966096
57.225 14.786805
57.230 15.239029
57.235 15.623918
57.240 16.028002
57.245 15.261719
57.250 14.865968
57.255 14.894823
57.260 14.746271
57.265 14.421036
57.270 14.584527
57.275 14.367929
57.280 14.145168
57.285 13.421708
57.290 13.147242
57.295 13.303757
57.300 13.588519
57.305 13.587656
57.310 14.002543
57.315 14.902402
57.320 15.659012
57.325 16.060663
57.330 16.522751
57.335 16.786446
57.340 16.546677
57.345 15.895362
57.350 15.266021
57.355 14.722144
57.360 14.257826
57.365 14.283649
57.370 14.194054
57.375 14.319536
57.380 14.793741
57.385 15.127628
57.390 15.928823
57.395 15.934738
57.400 15.438113
57.405 15.41685
57.410 15.18534
57.415 14.847243
57.420 14.833937
57.425 14.41721
57.430 14.206786
57.435 13.983527
57.440 13.929428
57.445 13.99293
57.450 13.81101
57.455 13.618937
57.460 13.607984
57.465 14.008585
57.470 14.216325
57.475 14.05549
57.480 14.364939
57.485 14.809453
57.490 14.910911
57.495 14.307827
57.500 14.420994
57.505 14.794033
57.510 14.947269
57.515 15.084514
57.520 14.41533
57.525 14.100551
57.530 14.640349
57.535 14.722635
57.540 14.908388
57.545 14.77396
57.550 14.788929
57.555 15.580687
57.560 16.124121
57.565 16.191048
57.570 15.99407
57.575 15.252707
57.580 15.410338
57.585 15.28775
57.590 14.888028
57.595 14.580349
57.600 14.931763
57.605 14.982201
57.610 15.074831
57.615 15.182146
57.620 15.389486
57.625 15.583307
57.630 15.956664
57.635 15.235576
57.640 15.000227
57.645 15.478317
57.650 16.026855
57.655 16.138586
57.660 15.703381
57.665 14.858895
57.670 15.042088
57.675 14.578013
57.680 13.89165
57.685 13.325039
57.690 13.352742
57.695 13.837376
57.700 14.063893
57.705 13.618866
57.710 14.140285
57.715 14.367993
57.720 14.24955
57.725 14.331381
57.730 14.44728
57.735 15.097884
57.740 15.960162
57.745 16.075563
57.750 16.080688
57.755 16.306644
57.760 16.053629
57.765 15.887343
57.770 15.129377
57.775 14.96489
57.780 15.310379
57.785 15.143877
57.790 14.570447
57.795 14.376972
57.800 14.146437
57.805 14.379121
57.810 14.0815
57.815 13.605485
57.820 13.655082
57.825 14.533875
57.830 14.985345
57.835 15.163067
57.840 14.723141
57.845 14.555068
57.850 14.432844
57.855 14.273088
57.860 13.942036
57.865 14.242206
57.870 14.605587
57.875 15.027845
57.880 15.289026
57.885 15.577463
57.890 15.615529
57.895 15.50926
57.900 15.395913
57.905 15.451667
57.910 15.65773
57.915 15.662085
57.920 15.704459
57.925 15.684537
57.930 15.68938
57.935 15.476095
57.940 15.089068
57.945 14.572003
57.950 14.505013
57.955 14.626181
57.960 15.034712
57.965 15.066878
57.970 15.847494
57.975 16.280165
57.980 16.856642
57.985 16.960859
57.990 16.8785
57.995 16.424006
58.000 16.180502
58.005 15.680056
58.010 16.273533
58.015 16.358425
58.020 16.057779
58.025 15.828327
58.030 16.462133
58.035 16.278254
58.040 15.972281
58.045 15.440915
58.050 15.674918
58.055 15.697035
58.060 15.60903
58.065 15.31939
58.070 15.83135
58.075 15.657776
58.080 15.330636
58.085 15.26849
58.090 15.886276
58.095 16.426781
58.100 16.939287
58.105 17.412291
58.110 18.284698
58.115 18.786503
58.120 18.757757
58.125 17.982067
58.130 18.068228
58.135 17.446743
58.140 16.789431
58.145 16.089024
58.150 15.91543
58.155 16.356434
58.160 17.009075
58.165 16.695553
58.170 16.776676
58.175 16.567465
58.180 16.431522
58.185 16.922308
58.190 16.160744
58.195 16.208572
58.200 15.890644
58.205 16.213333
58.210 16.72706
58.215 16.975346
58.220 17.147856
58.225 17.546608
58.230 17.744471
58.235 18.27401
58.240 18.598688
58.245 19.223701
58.250 19.543501
58.255 19.634443
58.260 19.90756
58.265 19.718159
58.270 19.388845
58.275 19.371862
58.280 18.987289
58.285 18.841911
58.290 18.334272
58.295 18.088835
58.300 18.36492
58.305 18.515993
58.310 18.126143
58.315 18.2985
58.320 17.831665
58.325 17.766684
58.330 17.746794
58.335 17.990898
58.340 17.516577
58.345 17.162252
58.350 16.977266
58.355 17.0546
58.360 17.989399
58.365 18.434496
58.370 18.467396
58.375 18.901804
58.380 19.525053
58.385 19.992876
58.390 19.940508
58.395 19.45937
58.400 19.35647
58.405 19.683594
58.410 19.999708
58.415 19.6616
58.420 19.502079
58.425 19.952147
58.430 19.894949
58.435 19.653343
58.440 19.278065
58.445 19.034534
58.450 19.581861
58.455 19.581749
58.460 19.968491
58.465 20.533653
58.470 20.909468
58.475 20.720901
58.480 20.770723
58.485 20.282036
58.490 19.949831
58.495 19.550823
58.500 19.37401
58.505 19.380163
58.510 19.300203
58.515 19.379637
58.520 19.727261
58.525 20.084839
58.530 20.362511
58.535 19.873121
58.540 19.598763
58.545 19.41189
58.550 19.399879
58.555 19.82403
58.560 19.868702
58.565 19.615349
58.570 20.040777
58.575 20.388012
58.580 20.271906
58.585 19.8372
58.590 18.7948
58.595 18.587404
58.600 18.773962
58.605 18.545248
58.610 18.797035
58.615 18.902542
58.620 19.118628
58.625 19.589149
58.630 20.103733
58.635 19.625826
58.640 19.192516
58.645 18.780512
58.650 19.002426
58.655 19.323755
58.660 19.653879
58.665 19.83939
58.670 19.79775
58.675 20.070696
58.680 20.898857
58.685 21.121859
58.690 21.587862
58.695 21.745258
58.700 21.589108
58.705 21.671295
58.710 21.457897
58.715 21.300991
58.720 20.965219
58.725 20.350842
58.730 20.274849
58.735 20.199451
58.740 20.4907
58.745 20.830074
58.750 20.960915
58.755 21.528511
58.760 21.522675
58.765 21.213306
58.770 21.522579
58.775 21.329964
58.780 21.195625
58.785 20.823229
58.790 20.309036
58.795 20.274874
58.800 20.315495
58.805 20.471714
58.810 20.347012
58.815 20.303865
58.820 20.365128
58.825 20.861467
58.830 21.582794
58.835 21.603092
58.840 21.29277
58.845 21.042278
58.850 20.817186
58.855 20.688356
58.860 19.804913
58.865 19.465666
58.870 19.092815
58.875 18.85251
58.880 18.946383
58.885 19.226452
58.890 19.567513
58.895 19.874092
58.900 19.356674
58.905 19.10607
58.910 19.044518
58.915 19.000004
58.920 18.937263
58.925 18.753174
58.930 18.536674
58.935 19.121964
58.940 19.408361
58.945 19.489183
58.950 19.894197
58.955 19.715002
58.960 20.03532
58.965 20.553101
58.970 20.079037
58.975 19.772497
58.980 19.683208
58.985 19.30406
58.990 19.270922
58.995 19.353075
59.000 19.226849
59.005 18.967146
59.010 19.24601
59.015 19.754593
59.020 19.660213
59.025 19.232998
59.030 19.054192
59.035 18.973148
59.040 19.41029
59.045 19.349085
59.050 19.265259
59.055 19.182016
59.060 19.387346
59.065 19.48336
59.070 19.558464
59.075 19.509586
59.080 19.519531
59.085 19.75951
59.090 20.405081
59.095 20.802526
59.100 20.468958
59.105 20.278393
59.110 20.508673
59.115 20.570827
59.120 20.005199
59.125 19.352486
59.130 19.050804
59.135 19.935228
59.140 20.458891
59.145 20.234615
59.150 19.687527
59.155 19.536663
59.160 20.14946
59.165 20.409462
59.170 19.90029
59.175 19.43227
59.180 19.438366
59.185 19.757061
59.190 19.77788
59.195 19.149454
59.200 19.261208
59.205 19.02792
59.210 18.745308
59.215 18.214142
59.220 18.685827
59.225 19.07173
59.230 18.885513
59.235 18.7918
59.240 20.006889
59.245 20.609463
59.250 20.725435
59.255 20.35887
59.260 19.726067
59.265 19.489706
59.270 18.918858
59.275 18.423922
59.280 17.851561
59.285 17.811895
59.290 17.370722
59.295 17.927917
59.300 18.627394
59.305 18.864544
59.310 19.018143
59.315 19.376568
59.320 19.445709
59.325 19.502409
59.330 19.363459
59.335 19.44729
59.340 19.221392
59.345 19.212057
59.350 19.788637
59.355 20.051754
59.360 20.463512
59.365 20.511347
59.370 20.483639
59.375 20.708927
59.380 20.257418
59.385 19.897089
59.390 19.946678
59.395 19.325384
59.400 19.106764
59.405 18.914307
59.410 18.953438
59.415 19.381559
59.420 19.191446
59.425 19.316502
59.430 19.319519
59.435 19.32362
59.440 19.333693
59.445 18.976486
59.450 18.606112
59.455 18.340506
59.460 18.633722
59.465 19.510609
59.470 19.231176
59.475 19.084522
59.480 19.143316
59.485 19.301813
59.490 19.514112
59.495 18.993927
59.500 18.520342
59.505 18.536339
59.510 18.926409
59.515 19.477934
59.520 19.694071
59.525 20.017345
59.530 20.399431
59.535 20.914845
59.540 20.979052
59.545 20.242592
59.550 19.953201
59.555 20.232231
59.560 19.625149
59.565 19.103588
59.570 18.952843
59.575 19.160257
59.580 19.700665
59.585 19.829933
59.590 19.194597
59.595 19.218515
59.600 19.46571
59.605 19.644981
59.610 19.831781
59.615 20.327589
59.620 20.320116
59.625 20.041908
59.630 19.959639
59.635 20.089365
59.640 20.324142
59.645 20.295885
59.650 19.572355
59.655 19.251415
59.660 19.949102
59.665 20.528831
59.670 20.174328
59.675 19.888546
59.680 19.907955
59.685 20.669495
59.690 21.284992
59.695 21.415257
59.700 22.363947
59.705 22.434057
59.710 22.2609
59.715 21.800198
59.720 20.838152
59.725 20.464083
59.730 20.340345
59.735 20.019524
59.740 20.359207
59.745 20.480114
59.750 20.851351
59.755 21.084267
59.760 21.542475
59.765 21.892557
59.770 21.418957
59.775 21.0732
59.780 20.730415
59.785 20.921095
59.790 20.472059
59.795 20.033493
59.800 19.767525
59.805 19.382719
59.810 19.763622
59.815 20.384779
59.820 20.455385
59.825 20.798231
59.830 20.380671
59.835 19.894306
59.840 20.261581
59.845 20.290937
59.850 20.380308
59.855 20.970743
59.860 21.151218
59.865 21.32098
59.870 21.918877
59.875 22.476835
59.880 22.747774
59.885 22.471878
59.890 22.027813
59.895 21.847801
59.900 22.445
59.905 22.530432
59.910 22.278765
59.915 22.167656
59.920 22.150305
59.925 22.081179
59.930 21.845961
59.935 21.447472
59.940 20.570173
59.945 20.363962
59.950 20.379719
59.955 19.514343
59.960 19.650036
59.965 19.99122
59.970 19.918657
59.975 20.354378
59.980 19.954496
59.985 19.876713
59.990 19.922251
59.995 19.99054
60.000 20.081495
60.005 20.017475
60.010 20.064056
60.015 20.358299
60.020 20.562803
60.025 21.35297
60.030 21.277561
60.035 20.918888
60.040 20.982197
60.045 21.061447
60.050 21.417263
60.055 20.907442
60.060 20.252935
60.065 20.231876
60.070 20.522068
60.075 20.851055
60.080 20.882385
60.085 20.574123
60.090 20.75284
60.095 21.09461
60.100 21.41964
60.105 21.289028
60.110 21.105576
60.115 21.295813
60.120 20.74575
60.125 20.357632
60.130 20.047945
60.135 20.677427
60.140 21.005932
60.145 21.139038
60.150 20.232241
60.155 20.644747
60.160 21.194103
60.165 21.437538
60.170 20.644526
60.175 20.227154
60.180 20.225058
60.185 20.880898
60.190 20.695818
60.195 20.251329
60.200 19.842943
60.205 20.422598
60.210 20.434481
60.215 20.201496
60.220 20.195105
60.225 20.573397
60.230 20.914511
60.235 21.347418
60.240 21.288893
60.245 21.510227
60.250 21.407862
60.255 20.978798
60.260 20.449598
60.265 20.680382
60.270 19.978321
60.275 19.657305
60.280 19.370182
60.285 19.431625
60.290 20.262571
60.295 20.269787
60.300 20.069576
60.305 20.443285
60.310 20.065094
60.315 20.289181
60.320 20.24297
60.325 19.715935
60.330 19.866262
60.335 19.690521
60.340 19.241089
60.345 19.33827
60.350 19.674042
60.355 19.681984
60.360 19.78627
60.365 18.95207
60.370 18.86545
60.375 19.215456
60.380 19.523075
60.385 18.887547
60.390 18.77931
60.395 18.594109
60.400 18.910938
60.405 18.856356
60.410 18.900148
60.415 18.972553
60.420 18.509703
60.425 18.343208
60.430 18.000774
60.435 17.725891
60.440 17.555368
60.445 17.5681
60.450 17.50906
60.455 18.243006
60.460 18.675106
60.465 19.542305
60.470 20.325493
60.475 21.021946
60.480 20.497345
60.485 19.987686
60.490 19.615129
60.495 19.361679
60.500 18.964388
60.505 18.72896
60.510 18.501535
60.515 18.673353
60.520 18.761364
60.525 18.75585
60.530 18.583853
60.535 18.058683
60.540 17.682531
60.545 17.939672
60.550 18.015923
60.555 17.673384
60.560 17.508669
60.565 17.115021
60.570 17.20343
60.575 17.428288
60.580 16.572916
60.585 16.530807
60.590 16.977119
60.595 17.306492
60.600 17.641102
60.605 17.989109
60.610 18.418375
60.615 18.886652
60.620 19.186178
60.625 19.373075
60.630 19.346798
60.635 19.231695
60.640 19.205757
60.645 18.80492
60.650 18.767389
60.655 18.266085
60.660 17.776625
60.665 17.723469
60.670 18.02862
60.675 17.685696
60.680 17.450119
60.685 17.253536
60.690 17.127926
60.695 17.163671
60.700 17.353224
60.705 17.091982
60.710 17.146786
60.715 17.263674
60.720 17.266317
60.725 17.359138
60.730 17.768534
60.735 17.869951
60.740 17.988379
60.745 17.986448
60.750 18.209599
60.755 18.737606
60.760 18.71529
60.765 18.775927
60.770 19.009277
60.775 18.830248
60.780 18.204924
60.785 17.894556
60.790 16.773432
60.795 16.805849
60.800 16.670338
60.805 16.14846
60.810 16.188465
60.815 16.684155
60.820 16.714958
60.825 17.188715
60.830 17.03599
60.835 16.643639
60.840 16.717144
60.845 16.792063
60.850 16.876837
60.855 17.85397
60.860 18.253832
60.865 18.373156
60.870 18.893412
60.875 19.195604
60.880 19.047226
60.885 18.80092
60.890 17.387579
60.895 17.2465
60.900 16.710087
60.905 16.557095
60.910 16.118631
60.915 16.398306
60.920 16.429811
60.925 16.832176
60.930 16.753687
60.935 17.508736
60.940 17.602777
60.945 18.01145
60.950 18.114548
60.955 18.438883
60.960 18.306057
60.965 18.190149
60.970 17.889904
60.975 17.378403
60.980 16.956598
60.985 16.750309
60.990 16.540802
60.995 17.356829
61.000 17.223948
61.005 17.851057
61.010 18.430214
61.015 18.539051
61.020 18.10326
61.025 17.690042
61.030 17.063974
61.035 16.61722
61.040 15.748865
61.045 15.282428
61.050 15.136748
61.055 14.840907
61.060 14.889651
61.065 14.932627
61.070 15.869671
61.075 16.531416
61.080 16.80892
61.085 17.288836
61.090 17.671314
61.095 17.924883
61.100 18.87829
61.105 17.952421
61.110 17.198277
61.115 17.029211
61.120 16.243452
61.125 16.052414
61.130 15.946305
61.135 15.572089
61.140 15.914167
61.145 16.057447
61.150 15.676425
61.155 15.800507
61.160 15.657557
61.165 15.061179
61.170 14.763348
61.175 15.035032
61.180 14.766652
61.185 14.811078
61.190 15.135153
61.195 15.712813
61.200 16.347807
61.205 16.531607
61.210 16.235376
61.215 17.021313
61.220 17.616199
61.225 18.000364
61.230 18.052549
61.235 17.559813
61.240 17.467634
61.245 18.015207
61.250 17.531719
61.255 16.774683
61.260 16.697231
61.265 16.900814
61.270 17.018045
61.275 17.083862
61.280 16.966528
61.285 17.157675
61.290 17.196323
61.295 17.092772
61.300 16.957058
61.305 16.674713
61.310 16.573204
61.315 16.624319
61.320 16.544294
61.325 16.738375
61.330 16.829586
61.335 16.498533
61.340 16.84959
61.345 17.065853
61.350 17.043427
61.355 17.276962
61.360 17.162096
61.365 17.149408
61.370 16.642672
61.375 16.100122
61.380 15.649012
61.385 15.370624
61.390 15.037189
61.395 14.960635
61.400 14.781152
61.405 15.319706
61.410 15.537296
61.415 15.750626
61.420 15.662877
61.425 15.819221
61.430 15.444028
61.435 15.549482
61.440 15.501101
61.445 15.874104
61.450 16.023527
61.455 16.432169
61.460 16.619402
61.465 17.072718
61.470 17.275055
61.475 17.483757
61.480 17.511425
61.485 17.089159
61.490 16.825554
61.495 16.807983
61.500 16.573114
61.505 16.28685
61.510 16.313953
61.515 16.069399
61.520 16.678679
61.525 16.804407
61.530 16.777651
61.535 17.18313
61.540 17.176512
61.545 17.127071
61.550 17.092054
61.555 16.992174
61.560 17.426105
61.565 17.535206
61.570 17.200003
61.575 17.189203
61.580 17.150297
61.585 17.599829
61.590 17.546709
61.595 17.395781
61.600 17.115065
61.605 17.107233
61.610 17.290821
61.615 16.941906
61.620 17.090502
61.625 16.85354
61.630 16.400482
61.635 16.474808
61.640 16.423702
61.645 16.411665
61.650 16.53462
61.655 16.170195
61.660 16.274464
61.665 16.497112
61.670 16.545385
61.675 16.663425
61.680 16.888536
61.685 17.018295
61.690 17.566313
61.695 18.279713
61.700 17.745789
61.705 17.668791
61.710 17.301146
61.715 16.964373
61.720 17.430828
61.725 16.998375
61.730 16.901772
61.735 17.202343
61.740 17.26733
61.745 17.390532
61.750 18.095442
61.755 18.035368
61.760 17.856487
61.765 17.544327
61.770 17.865356
61.775 17.692074
61.780 17.4484
61.785 16.946409
61.790 16.459431
61.795 16.74518
61.800 16.66013
61.805 16.824568
61.810 17.175863
61.815 17.429934
61.820 17.17103
61.825 17.632187
61.830 17.788118
61.835 17.730244
61.840 17.867914
61.845 18.170647
61.850 17.761501
61.855 17.872852
61.860 17.864054
61.865 17.274897
61.870 17.499258
61.875 17.45841
61.880 17.695745
61.885 18.390778
61.890 18.437469
61.895 18.123344
61.900 18.288603
61.905 18.410841
61.910 18.693716
61.915 18.183338
61.920 17.631384
61.925 17.695927
61.930 17.722954
61.935 17.962749
61.940 17.80545
61.945 17.254896
61.950 17.298573
61.955 17.677078
61.960 17.628416
61.965 17.476147
61.970 17.584482
61.975 17.813643
61.980 17.915787
61.985 17.901276
61.990 17.705568
61.995 17.510437
62.000 17.847569
62.005 17.26549
62.010 17.397877
62.015 17.560976
62.020 17.734741
62.025 18.191317
62.030 18.410643
62.035 18.453489
62.040 18.785467
62.045 18.497469
62.050 18.083269
62.055 17.425646
62.060 16.762039
62.065 16.526993
62.070 15.851706
62.075 15.837261
62.080 16.000994
62.085 16.211679
62.090 17.3242
62.095 17.792156
62.100 17.312162
62.105 17.417147
62.110 17.660662
62.115 17.77202
62.120 17.688026
62.125 17.230785
62.130 17.257826
62.135 17.914736
62.140 18.211622
62.145 18.030581
62.150 18.311235
62.155 18.054857
62.160 17.623068
62.165 17.896605
62.170 18.224039
62.175 18.109074
62.180 18.053732
62.185 17.500374
62.190 17.795263
62.195 17.627777
62.200 17.032297
62.205 16.78064
62.210 16.680313
62.215 16.348381
62.220 16.477362
62.225 16.650665
62.230 16.699707
62.235 16.354599
62.240 16.408613
62.245 15.931062
62.250 16.367725
62.255 16.626673
62.260 16.55106
62.265 16.995092
62.270 17.639696
62.275 17.717508
62.280 18.167654
62.285 18.246307
62.290 17.786272
62.295 18.25675
62.300 18.100891
62.305 17.373642
62.310 17.006338
62.315 16.512135
62.320 16.210781
62.325 16.36466
62.330 15.849814
62.335 15.80958
62.340 16.872263
62.345 17.184797
62.350 17.257429
62.355 17.511147
62.360 17.748695
62.365 18.22135
62.370 18.586061
62.375 18.082571
62.380 18.043072
62.385 18.004875
62.390 17.822218
62.395 17.557472
62.400 17.115868
62.405 16.398626
62.410 16.38703
62.415 16.838329
62.420 17.351017
62.425 17.558361
62.430 17.326548
62.435 17.401361
62.440 17.567656
62.445 17.413052
62.450 17.224031
62.455 17.482891
62.460 17.971064
62.465 18.166969
62.470 18.785048
62.475 18.942198
62.480 18.910057
62.485 18.687098
62.490 18.343746
62.495 17.937153
62.500 17.930319
62.505 16.801588
62.510 16.792923
62.515 16.631075
62.520 16.408386
62.525 16.39049
62.530 16.325205
62.535 16.374523
62.540 16.936161
62.545 17.223772
62.550 17.692577
62.555 17.983881
62.560 17.897604
62.565 17.998838
62.570 17.864132
62.575 17.667534
62.580 17.238861
62.585 16.955887
62.590 16.759405
62.595 16.47864
62.600 16.117674
62.605 15.717747
62.610 15.234934
62.615 15.267361
62.620 14.940766
62.625 14.77888
62.630 14.991044
62.635 14.860249
62.640 15.429123
62.645 16.255884
62.650 16.129974
62.655 16.123341
62.660 16.316362
62.665 16.274887
62.670 16.629982
62.675 16.647896
62.680 16.534119
62.685 16.919962
62.690 17.59049
62.695 17.559845
62.700 17.293846
62.705 17.546844
62.710 17.924269
62.715 17.876041
62.720 17.746983
62.725 17.503199
62.730 17.892405
62.735 18.259768
62.740 18.554422
62.745 18.37331
62.750 18.15974
62.755 18.740274
62.760 18.761965
62.765 19.054989
62.770 18.574568
62.775 17.907429
62.780 17.888494
62.785 17.769146
62.790 17.401157
62.795 17.284605
62.800 17.254498
62.805 17.605974
62.810 17.49474
62.815 17.532158
62.820 17.79249
62.825 17.732452
62.830 17.63846
62.835 17.282089
62.840 17.650871
62.845 18.16412
62.850 18.110712
62.855 17.897745
62.860 17.531963
62.865 17.642267
62.870 17.433914
62.875 16.745995
62.880 16.683258
62.885 16.618952
62.890 16.801958
62.895 16.343189
62.900 16.202818
62.905 16.795969
62.910 16.836336
62.915 16.138966
62.920 15.872004
62.925 15.866401
62.930 16.259724
62.935 16.230028
62.940 15.864083
62.945 15.921298
62.950 16.142981
62.955 16.331406
62.960 16.406883
62.965 16.643272
62.970 16.954437
62.975 17.884722
62.980 18.455601
62.985 18.536219
62.990 18.919348
62.995 19.254152
63.000 19.737673
63.005 19.479528
63.010 18.829515
63.015 18.968523
63.020 19.236313
63.025 19.373686
63.030 18.987516
63.035 19.320148
63.040 19.470488
63.045 19.418077
63.050 19.481112
63.055 19.319845
63.060 18.816584
63.065 19.289207
63.070 18.597734
63.075 18.532654
63.080 18.440815
63.085 18.37422
63.090 18.492847
63.095 18.848049
63.100 18.692446
63.105 18.688643
63.110 18.267483
63.115 17.851749
63.120 17.377987
63.125 17.781618
63.130 17.735399
63.135 17.643377
63.140 17.996748
63.145 18.765432
63.150 19.285292
63.155 18.893602
63.160 18.188641
63.165 18.02737
63.170 18.018215
63.175 17.444082
63.180 17.118221
63.185 17.210724
63.190 17.727983
63.195 17.837072
63.200 17.790001
63.205 17.65485
63.210 17.614618
63.215 17.990494
63.220 18.22296
63.225 17.849581
63.230 18.167616
63.235 18.352734
63.240 18.564631
63.245 19.129974
63.250 19.364153
63.255 19.33716
63.260 19.827978
63.265 19.171148
63.270 18.754917
63.275 18.863111
63.280 18.331715
63.285 18.3225
63.290 18.08407
63.295 18.197325
63.300 18.493914
63.305 18.784256
63.310 19.148045
63.315 20.127289
63.320 19.978874
63.325 19.531828
63.330 19.220663
63.335 19.547714
63.340 19.368906
63.345 18.896477
63.350 18.000023
63.355 17.990711
63.360 18.118498
63.365 17.808981
63.370 17.992151
63.375 18.389208
63.380 17.998655
63.385 18.540821
63.390 18.841019
63.395 18.930422
63.400 19.183687
63.405 18.83272
63.410 18.160082
63.415 17.922899
63.420 17.440205
63.425 16.831726
63.430 17.214991
63.435 17.291281
63.440 17.294819
63.445 17.87063
63.450 18.605387
63.455 18.716984
63.460 19.506819
63.465 19.872379
63.470 20.059214
63.475 20.128946
63.480 20.329626
63.485 20.54463
63.490 20.982502
63.495 20.96364
63.500 21.176197
63.505 21.458185
63.510 21.691366
63.515 21.702927
63.520 21.641472
63.525 21.084436
63.530 20.424423
63.535 20.192682
63.540 19.800974
63.545 19.619766
63.550 19.493586
63.555 19.297609
63.560 19.616844
63.565 19.672062
63.570 19.407696
63.575 19.488541
63.580 19.626087
63.585 19.608011
63.590 20.026396
63.595 20.186977
63.600 20.351048
63.605 20.076429
63.610 19.670986
63.615 19.112797
63.620 19.031084
63.625 18.448629
63.630 17.77549
63.635 16.912411
63.640 16.920742
63.645 17.630615
63.650 18.202063
63.655 18.233337
63.660 18.390968
63.665 18.578573
63.670 19.035761
63.675 19.262049
63.680 19.181221
63.685 19.258665
63.690 19.109886
63.695 19.669533
63.700 20.24827
63.705 20.301702
63.710 20.400467
63.715 20.20772
63.720 20.046234
63.725 20.349644
63.730 19.937799
63.735 19.947044
63.740 20.265848
63.745 20.28581
63.750 20.106539
63.755 20.109861
63.760 19.579657
63.765 18.96339
63.770 18.952377
63.775 18.958479
63.780 19.181087
63.785 19.220982
63.790 19.224461
63.795 19.347946
63.800 20.110962
63.805 20.048595
63.810 20.264441
63.815 19.779877
63.820 20.007509
63.825 20.007139
63.830 19.995365
63.835 19.933098
63.840 20.004349
63.845 19.960577
63.850 20.143568
63.855 19.584122
63.860 19.904259
63.865 20.42584
63.870 20.22073
63.875 20.000294
63.880 19.298365
63.885 20.042725
63.890 20.713175
63.895 21.101322
63.900 20.956762
63.905 20.964998
63.910 21.670042
63.915 22.256748
63.920 22.27072
63.925 22.380455
63.930 21.782106
63.935 21.824516
63.940 22.297207
63.945 22.053411
63.950 21.604565
63.955 21.627321
63.960 21.793575
63.965 22.200758
63.970 22.168852
63.975 21.556292
63.980 21.125732
63.985 21.188646
63.990 20.965111
63.995 20.637697
64.000 20.950518
64.005 21.476242
64.010 22.603836
64.015 23.935614
64.020 25.122128
64.025 25.417765
64.030 25.958797
64.035 25.853287
64.040 25.217672
64.045 24.685972
64.050 24.268448
64.055 23.516283
64.060 23.227385
64.065 23.435396
64.070 23.50625
64.075 23.820852
64.080 23.834633
64.085 23.912592
64.090 23.203751
64.095 22.854063
64.100 22.301954
64.105 22.281219
64.110 22.466518
64.115 22.462782
64.120 22.649567
64.125 23.108538
64.130 22.703529
64.135 22.434275
64.140 22.95961
64.145 23.108007
64.150 22.918562
64.155 22.650003
64.160 23.043083
64.165 23.845821
64.170 24.746132
64.175 24.241968
64.180 24.309978
64.185 24.433783
64.190 24.342884
64.195 24.118092
64.200 23.315645
64.205 22.553694
64.210 22.430601
64.215 22.184795
64.220 21.77334
64.225 21.702692
64.230 21.974937
64.235 22.385759
64.240 22.699018
64.245 23.452074
64.250 23.307772
64.255 23.52972
64.260 23.671989
64.265 23.963226
64.270 24.074287
64.275 24.172653
64.280 24.095188
64.285 24.396244
64.290 24.454334
64.295 24.25629
64.300 23.852423
64.305 23.67815
64.310 23.082016
64.315 23.163467
64.320 22.655842
64.325 22.597181
64.330 22.836876
64.335 22.578001
64.340 23.120825
64.345 22.658579
64.350 21.972073
64.355 21.870462
64.360 21.382101
64.365 21.141258
64.370 21.120569
64.375 20.87961
64.380 20.735868
64.385 20.890421
64.390 20.919727
64.395 21.519669
64.400 21.988461
64.405 22.18088
64.410 22.684879
64.415 23.452379
64.420 23.141842
64.425 23.399155
64.430 23.251692
64.435 23.175653
64.440 23.09161
64.445 22.689795
64.450 22.626801
64.455 23.254097
64.460 22.924414
64.465 22.72838
64.470 23.111301
64.475 23.912033
64.480 23.927055
64.485 23.309202
64.490 23.389336
64.495 24.068344
64.500 23.93042
64.505 22.738894
64.510 21.434858
64.515 20.989645
64.520 21.426332
64.525 21.337385
64.530 21.065165
64.535 21.4312
64.540 21.734999
64.545 22.035583
64.550 22.347204
64.555 22.250004
64.560 21.9963
64.565 21.737713
64.570 21.376793
64.575 21.316994
64.580 21.472351
64.585 21.400242
64.590 21.293398
64.595 21.13739
64.600 21.477013
64.605 21.517433
64.610 21.851711
64.615 21.998682
64.620 22.869164
64.625 22.781948
64.630 23.467255
64.635 23.378716
64.640 22.902973
64.645 23.178169
64.650 22.959747
64.655 22.394995
64.660 22.835176
64.665 22.701607
64.670 22.907393
64.675 23.544899
64.680 23.577065
64.685 24.107687
64.690 23.670889
64.695 23.249716
64.700 22.958021
64.705 22.77775
64.710 22.627153
64.715 22.448849
64.720 22.512712
64.725 22.895046
64.730 22.570107
64.735 22.359966
64.740 21.778368
64.745 21.63698
64.750 21.968023
64.755 21.829908
64.760 21.878422
64.765 22.331316
64.770 22.721437
64.775 23.195583
64.780 23.179089
64.785 23.14052
64.790 23.097382
64.795 22.749176
64.800 22.685699
64.805 23.160221
64.810 23.174454
64.815 23.230024
64.820 23.020689
64.825 22.424732
64.830 22.421194
64.835 22.19278
64.840 21.516338
64.845 21.685738
64.850 21.384264
64.855 21.295048
64.860 22.119202
64.865 22.036596
64.870 22.325998
64.875 22.511829
64.880 22.577021
64.885 22.458866
64.890 22.65089
64.895 23.699158
64.900 24.332397
64.905 24.32169
64.910 24.216864
64.915 24.198702
64.920 24.054634
64.925 23.707838
64.930 22.868076
64.935 22.801199
64.940 23.266121
64.945 23.490437
64.950 23.854033
64.955 24.46838
64.960 24.231968
64.965 23.792419
64.970 23.484316
64.975 23.173637
64.980 23.320339
64.985 23.186987
64.990 22.955338
64.995 22.643656
65.000 22.732996
65.005 23.054188
65.010 22.81531
65.015 22.014431
65.020 22.169376
65.025 22.46797
65.030 23.001757
65.035 23.419621
65.040 23.645468
65.045 23.688379
65.050 24.318544
65.055 24.429932
65.060 24.112289
65.065 23.993771
65.070 23.933891
65.075 24.0707
65.080 24.855885
65.085 24.496298
65.090 24.325342
65.095 24.93417
65.100 24.674515
65.105 24.616924
65.110 24.368109
65.115 24.070589
65.120 24.843697
65.125 24.963614
65.130 25.21282
65.135 25.537781
65.140 25.707129
65.145 25.915337
65.150 25.581322
65.155 25.053782
65.160 24.861488
65.165 24.34683
65.170 24.206909
65.175 23.57058
65.180 23.632137
65.185 23.750069
65.190 23.751984
65.195 23.436859
65.200 23.532162
65.205 23.59514
65.210 23.251719
65.215 22.732397
65.220 22.698298
65.225 22.352276
65.230 22.189634
65.235 22.801889
65.240 22.85557
65.245 23.664862
65.250 24.514557
65.255 25.091732
65.260 26.370096
65.265 27.008997
65.270 26.346884
65.275 26.583555
65.280 26.287617
65.285 25.6518
65.290 25.113331
65.295 24.655062
65.300 24.975697
65.305 25.468012
65.310 25.687197
65.315 25.33844
65.320 25.176809
65.325 24.349838
65.330 23.957436
65.335 23.987076
65.340 23.872377
65.345 24.351501
65.350 24.667398
65.355 25.411217
65.360 26.558334
65.365 27.126734
65.370 27.319437
65.375 26.989292
65.380 26.450665
65.385 26.833643
65.390 26.609896
65.395 26.162849
65.400 25.825386
65.405 25.950413
65.410 26.94626
65.415 26.822971
65.420 26.763039
65.425 26.37981
65.430 26.264185
65.435 25.618168
65.440 25.296841
65.445 24.241222
65.450 24.461065
65.455 24.571024
65.460 25.158527
65.465 25.477802
65.470 25.802948
65.475 25.447571
65.480 25.671734
65.485 25.240385
65.490 24.84836
65.495 24.572216
65.500 24.408415
65.505 24.353207
65.510 24.75028
65.515 24.724865
65.520 24.077538
65.525 23.805696
65.530 24.149609
65.535 24.683647
65.540 23.949677
65.545 24.023033
65.550 24.089161
65.555 24.741169
65.560 24.85416
65.565 24.819902
65.570 24.81069
65.575 25.859982
65.580 26.643539
65.585 26.236315
65.590 26.627844
65.595 26.887428
65.600 26.800505
65.605 27.201447
65.610 27.217258
65.615 26.521767
65.620 27.21397
65.625 27.296404
65.630 27.749243
65.635 28.182302
65.640 28.258663
65.645 28.29681
65.650 28.407526
65.655 28.258354
65.660 28.246504
65.665 28.528774
65.670 28.321936
65.675 28.481953
65.680 28.491173
65.685 28.715015
65.690 28.923452
65.695 28.701693
65.700 28.325577
65.705 28.546715
65.710 28.664576
65.715 29.403601
65.720 30.434286
65.725 30.707579
65.730 31.189655
65.735 30.804342
65.740 31.183485
65.745 31.293617
65.750 30.532124
65.755 30.7351
65.760 30.858591
65.765 31.279259
65.770 32.264095
65.775 32.209187
65.780 32.248203
65.785 32.23568
65.790 31.459988
65.795 31.62291
65.800 31.824667
65.805 31.81621
65.810 31.648449
65.815 31.824707
65.820 32.287727
65.825 32.907917
65.830 33.290455
65.835 33.668945
65.840 33.961151
65.845 33.512016
65.850 33.15823
65.855 33.933823
65.860 33.868351
65.865 34.436989
65.870 34.045994
65.875 33.697742
65.880 34.132153
65.885 34.812939
65.890 34.604542
65.895 34.873917
65.900 34.957809
65.905 35.822594
65.910 35.498405
65.915 35.4091
65.920 36.015614
65.925 36.169807
65.930 36.434689
65.935 36.107967
65.940 35.125191
65.945 36.271561
65.950 36.517052
65.955 35.792645
65.960 35.946285
65.965 35.857376
65.970 36.252232
65.975 37.83511
65.980 38.329708
65.985 39.089085
65.990 39.472843
65.995 39.571503
66.000 39.290882
66.005 39.520435
66.010 39.291718
66.015 39.262287
66.020 39.615562
66.025 40.340694
66.030 40.917591
66.035 42.00983
66.040 42.299053
66.045 41.858444
66.050 41.54451
66.055 41.651588
66.060 41.345032
66.065 41.38752
66.070 40.993786
66.075 41.963352
66.080 42.268425
66.085 42.653809
66.090 42.663181
66.095 42.811348
66.100 42.269337
66.105 42.354397
66.110 41.999008
66.115 41.623344
66.120 41.23912
66.125 40.767426
66.130 40.228703
66.135 40.869583
66.140 40.064781
66.145 39.061054
66.150 38.932682
66.155 38.851128
66.160 39.154865
66.165 39.521336
66.170 39.43705
66.175 39.657116
66.180 40.593987
66.185 41.408024
66.190 41.14249
66.195 41.649113
66.200 41.999317
66.205 41.65007
66.210 41.496967
66.215 40.281666
66.220 39.936798
66.225 39.979839
66.230 39.515965
66.235 39.701008
66.240 39.538258
66.245 39.548141
66.250 39.894527
66.255 39.895416
66.260 40.152073
66.265 39.856163
66.270 39.990185
66.275 40.383068
66.280 40.942513
66.285 41.265923
66.290 41.589386
66.295 41.536324
66.300 41.216034
66.305 40.613796
66.310 39.593449
66.315 38.350765
66.320 37.525486
66.325 36.583027
66.330 35.628498
66.335 35.710026
66.340 35.493706
66.345 35.345135
66.350 36.213974
66.355 35.824631
66.360 35.801033
66.365 35.948593
66.370 35.398777
66.375 34.900856
66.380 34.760708
66.385 34.597729
66.390 34.52829
66.395 34.692375
66.400 34.733475
66.405 34.895008
66.410 34.786705
66.415 34.846668
66.420 35.028343
66.425 34.871056
66.430 34.735195
66.435 34.871868
66.440 34.17057
66.445 33.95829
66.450 33.242275
66.455 32.48447
66.460 32.898464
66.465 32.792889
66.470 32.454082
66.475 32.207821
66.480 31.60285
66.485 31.659706
66.490 31.443027
66.495 30.45125
66.500 29.878012
66.505 29.961559
66.510 29.742849
66.515 29.374567
66.520 28.500292
66.525 27.673729
66.530 27.219204
66.535 27.090742
66.540 26.864298
66.545 27.111853
66.550 27.601753
66.555 27.83387
66.560 28.143038
66.565 28.856836
66.570 29.070494
66.575 29.020599
66.580 28.573074
66.585 28.531006
66.590 28.274715
66.595 28.437864
66.600 28.353285
66.605 27.699009
66.610 27.239908
66.615 27.215961
66.620 27.421808
66.625 27.203434
66.630 26.896702
66.635 26.06642
66.640 25.550903
66.645 25.478209
66.650 25.21854
66.655 24.554434
66.660 24.413568
66.665 23.634556
66.670 23.062311
66.675 22.949175
66.680 23.083973
66.685 22.691727
66.690 23.027445
66.695 23.167534
66.700 23.65534
66.705 23.586184
66.710 23.448441
66.715 22.888115
66.720 23.378372
66.725 22.538986
66.730 22.05929
66.735 21.67124
66.740 21.729788
66.745 22.332848
66.750 22.699335
66.755 22.852898
66.760 23.220045
66.765 23.992428
66.770 24.586477
66.775 24.742968
66.780 24.797825
66.785 24.600559
66.790 23.561117
66.795 23.532619
66.800 22.899502
66.805 22.986259
66.810 22.678167
66.815 22.037123
66.820 21.902008
66.825 22.449781
66.830 21.86619
66.835 22.163368
66.840 21.794758
66.845 21.625225
66.850 21.878992
66.855 21.137575
66.860 21.109035
66.865 21.458988
66.870 21.471828
66.875 21.448252
66.880 21.479351
66.885 21.449535
66.890 21.502529
66.895 21.516233
66.900 21.162081
66.905 20.57625
66.910 20.983906
66.915 20.824205
66.920 20.656361
66.925 21.025072
66.930 20.908152
66.935 21.143829
66.940 21.271154
66.945 21.136488
66.950 21.599953
66.955 21.787125
66.960 21.876091
66.965 21.405466
66.970 21.071383
66.975 20.93354
66.980 21.362511
66.985 20.923891
66.990 20.725492
66.995 20.794821
67.000 20.682428
67.005 21.051407
67.010 21.417952
67.015 21.087234
67.020 21.288511
67.025 21.302477
67.030 20.817749
67.035 21.722576
67.040 21.787926
67.045 21.777378
67.050 21.654337
67.055 22.167337
67.060 22.366161
67.065 22.40892
67.070 21.476263
67.075 21.444057
67.080 21.204836
67.085 20.882198
67.090 20.705332
67.095 20.162212
67.100 20.185932
67.105 20.595419
67.110 20.648872
67.115 20.697475
67.120 20.894196
67.125 20.803434
67.130 21.111172
67.135 20.660339
67.140 20.264013
67.145 19.836874
67.150 19.681643
67.155 19.47753
67.160 20.0445
67.165 20.195225
67.170 20.55332
67.175 20.371975
67.180 20.353216
67.185 20.216404
67.190 20.58703
67.195 20.489431
67.200 21.061497
67.205 21.139095
67.210 21.321192
67.215 21.882694
67.220 22.151712
67.225 21.327362
67.230 20.212921
67.235 20.024414
67.240 20.526705
67.245 20.626926
67.250 21.016008
67.255 21.059452
67.260 21.562292
67.265 21.840082
67.270 21.221239
67.275 20.635201
67.280 20.637854
67.285 19.900797
67.290 20.009325
67.295 19.852776
67.300 20.240898
67.305 20.684956
67.310 20.733973
67.315 20.707802
67.320 20.836069
67.325 20.57819
67.330 20.324415
67.335 19.667877
67.340 19.632961
67.345 20.012819
67.350 20.119591
67.355 20.615404
67.360 20.59939
67.365 20.632032
67.370 20.775965
67.375 20.682827
67.380 20.698505
67.385 20.196449
67.390 19.457279
67.395 19.370186
67.400 19.85264
67.405 20.635771
67.410 20.530571
67.415 20.037733
67.420 20.4485
67.425 21.10672
67.430 21.349476
67.435 21.358286
67.440 20.668823
67.445 20.870781
67.450 20.762287
67.455 19.932161
67.460 19.722975
67.465 19.64015
67.470 19.561968
67.475 19.966696
67.480 20.3374
67.485 20.947226
67.490 21.399662
67.495 21.041933
67.500 21.147511
67.505 20.958168
67.510 21.233744
67.515 21.403784
67.520 21.522196
67.525 21.647272
67.530 22.078465
67.535 22.041134
67.540 21.724218
67.545 21.010889
67.550 20.974192
67.555 21.005901
67.560 20.779358
67.565 20.811907
67.570 20.781096
67.575 20.917551
67.580 21.024376
67.585 20.889078
67.590 20.866335
67.595 20.944962
67.600 20.906898
67.605 21.144455
67.610 21.604046
67.615 21.824205
67.620 22.476196
67.625 22.822395
67.630 22.875107
67.635 22.448967
67.640 21.739574
67.645 21.586111
67.650 21.449509
67.655 21.173307
67.660 20.909023
67.665 20.872959
67.670 21.361252
67.675 21.487411
67.680 21.158577
67.685 20.699255
67.690 20.460655
67.695 20.326118
67.700 20.79817
67.705 20.990551
67.710 21.114267
67.715 21.407162
67.720 21.752403
67.725 20.716694
67.730 20.801973
67.735 20.317335
67.740 20.208385
67.745 20.019268
67.750 19.581722
67.755 19.394032
67.760 20.121319
67.765 19.928473
67.770 20.420301
67.775 20.282042
67.780 20.401207
67.785 20.439816
67.790 20.527147
67.795 20.429556
67.800 20.813629
67.805 20.509258
67.810 20.635544
67.815 20.825367
67.820 20.796309
67.825 20.87417
67.830 21.029493
67.835 19.924732
67.840 19.361132
67.845 19.266512
67.850 19.23506
67.855 19.402143
67.860 19.507296
67.865 19.588545
67.870 19.640524
67.875 20.180811
67.880 20.571753
67.885 20.747822
67.890 20.094137
67.895 19.242834
67.900 18.713987
67.905 18.853165
67.910 18.458826
67.915 17.747412
67.920 17.364605
67.925 17.652063
67.930 18.130711
67.935 19.014524
67.940 19.032001
67.945 18.903898
67.950 19.008879
67.955 19.171434
67.960 18.980457
67.965 18.874252
67.970 18.392591
67.975 18.481665
67.980 18.793165
67.985 18.683277
67.990 18.631821
67.995 18.588242
68.000 18.559233
68.005 18.460802
68.010 18.59255
68.015 18.437433
68.020 18.676069
68.025 18.945309
68.030 19.449802
68.035 19.697062
68.040 19.743959
68.045 19.566431
68.050 19.484379
68.055 19.2694
68.060 19.159422
68.065 18.946735
68.070 19.22928
68.075 19.683975
68.080 20.338257
68.085 20.609978
68.090 20.809921
68.095 21.006214
68.100 21.253733
68.105 21.373528
68.110 21.435932
68.115 20.983713
68.120 21.041451
68.125 21.205635
68.130 21.189827
68.135 20.530613
68.140 19.671637
68.145 19.330627
68.150 19.547749
68.155 19.602833
68.160 19.394463
68.165 19.701305
68.170 20.569038
68.175 21.003979
68.180 21.061792
68.185 21.120613
68.190 21.412405
68.195 22.144812
68.200 21.692738
68.205 21.72296
68.210 21.933521
68.215 21.81967
68.220 22.153671
68.225 21.973104
68.230 21.113615
68.235 20.582533
68.240 20.455502
68.245 20.829487
68.250 20.937502
68.255 20.45557
68.260 19.896835
68.265 20.936535
68.270 21.108295
68.275 20.623539
68.280 20.209934
68.285 19.933855
68.290 19.81382
68.295 20.092777
68.300 19.61692
68.305 19.359154
68.310 19.354097
68.315 18.865849
68.320 18.90119
68.325 18.648956
68.330 18.303209
68.335 18.107458
68.340 18.441528
68.345 18.821825
68.350 19.306305
68.355 19.821531
68.360 20.133745
68.365 20.220518
68.370 20.567429
68.375 20.69636
68.380 20.475424
68.385 20.390625
68.390 19.848457
68.395 19.952248
68.400 19.690992
68.405 20.01268
68.410 19.730101
68.415 19.609325
68.420 20.620346
68.425 21.398499
68.430 21.750679
68.435 21.847857
68.440 21.429298
68.445 21.563757
68.450 21.765501
68.455 21.447174
68.460 20.748896
68.465 21.112
68.470 21.789326
68.475 22.457674
68.480 22.988651
68.485 23.004965
68.490 22.710602
68.495 22.757801
68.500 22.106741
68.505 21.82309
68.510 21.595823
68.515 21.150913
68.520 20.493927
68.525 20.544971
68.530 20.675999
68.535 20.644949
68.540 20.641645
68.545 20.348194
68.550 19.886459
68.555 20.188753
68.560 20.577444
68.565 20.11199
68.570 19.738894
68.575 19.434734
68.580 20.152937
68.585 20.788662
68.590 21.216494
68.595 20.969397
68.600 21.54491
68.605 21.895044
68.610 22.31502
68.615 22.354315
68.620 22.290583
68.625 21.193275
68.630 20.72407
68.635 20.988512
68.640 21.252113
68.645 20.936516
68.650 20.962103
68.655 20.939556
68.660 21.114037
68.665 20.745668
68.670 20.584358
68.675 20.18642
68.680 19.947578
68.685 19.795559
68.690 20.443703
68.695 20.93643
68.700 21.190254
68.705 20.874382
68.710 21.122356
68.715 20.71368
68.720 20.660185
68.725 20.17952
68.730 20.7085
68.735 21.711926
68.740 21.827084
68.745 21.75724
68.750 21.594654
68.755 21.673557
68.760 22.179443
68.765 21.011259
68.770 20.710245
68.775 20.835863
68.780 21.055088
68.785 21.154036
68.790 21.494951
68.795 22.329473
68.800 22.615728
68.805 22.401485
68.810 22.690786
68.815 23.131742
68.820 23.801939
68.825 23.487518
68.830 22.81872
68.835 23.061539
68.840 22.943064
68.845 23.266836
68.850 22.973953
68.855 22.08017
68.860 21.808319
68.865 22.127216
68.870 22.231977
68.875 22.266933
68.880 21.893381
68.885 22.110142
68.890 22.186115
68.895 22.010529
68.900 22.067814
68.905 22.114202
68.910 21.711729
68.915 21.412115
68.920 21.392731
68.925 21.886677
68.930 21.970989
68.935 21.297737
68.940 21.318724
68.945 21.202564
68.950 20.847973
68.955 20.921997
68.960 20.912941
68.965 21.68364
68.970 22.569656
68.975 24.057213
68.980 24.847849
68.985 25.128719
68.990 24.989742
68.995 24.564804
69.000 24.558084
69.005 24.279325
69.010 24.132353
69.015 24.240845
69.020 24.100752
69.025 24.447727
69.030 24.458004
69.035 23.799816
69.040 23.858528
69.045 23.289478
69.050 23.931194
69.055 24.281286
69.060 24.835098
69.065 26.175926
69.070 26.339762
69.075 26.468008
69.080 26.468237
69.085 26.022402
69.090 26.097729
69.095 25.982689
69.100 26.057659
69.105 26.654783
69.110 26.853664
69.115 27.492651
69.120 27.881136
69.125 28.330692
69.130 28.263851
69.135 27.94705
69.140 27.04945
69.145 26.813656
69.150 27.031622
69.155 27.100641
69.160 26.822803
69.165 26.312897
69.170 25.78686
69.175 26.862986
69.180 27.996128
69.185 28.235884
69.190 28.730486
69.195 29.257666
69.200 29.821194
69.205 30.241276
69.210 30.259794
69.215 29.142859
69.220 29.198
69.225 29.22752
69.230 29.740719
69.235 30.148699
69.240 30.903963
69.245 31.848427
69.250 32.550865
69.255 33.077976
69.260 33.082733
69.265 32.483433
69.270 32.571529
69.275 31.40222
69.280 30.663673
69.285 30.472281
69.290 30.358702
69.295 30.935852
69.300 30.913097
69.305 31.645754
69.310 32.448246
69.315 32.473167
69.320 32.652771
69.325 32.403412
69.330 31.942898
69.335 31.915365
69.340 31.396976
69.345 31.436111
69.350 31.574057
69.355 31.500969
69.360 32.090847
69.365 32.274456
69.370 31.736332
69.375 31.565754
69.380 31.738649
69.385 31.519373
69.390 31.487589
69.395 31.105448
69.400 31.115057
69.405 31.701899
69.410 32.134109
69.415 32.472485
69.420 33.016865
69.425 32.784893
69.430 33.205505
69.435 33.672615
69.440 33.623737
69.445 33.694794
69.450 33.458042
69.455 34.026779
69.460 33.51936
69.465 32.97868
69.470 32.929905
69.475 33.368191
69.480 33.682438
69.485 33.563992
69.490 32.636795
69.495 33.201988
69.500 33.593719
69.505 33.748051
69.510 33.119629
69.515 33.305325
69.520 33.781849
69.525 34.394073
69.530 34.599697
69.535 34.776077
69.540 34.510689
69.545 34.49474
69.550 33.801643
69.555 33.145367
69.560 33.192886
69.565 32.900867
69.570 32.736446
69.575 32.406525
69.580 32.040188
69.585 32.270645
69.590 32.691193
69.595 32.651333
69.600 32.326481
69.605 32.20274
69.610 32.376106
69.615 32.449547
69.620 32.650963
69.625 32.440605
69.630 33.140522
69.635 33.2243
69.640 33.882713
69.645 33.974472
69.650 33.818871
69.655 33.278446
69.660 33.504749
69.665 33.529102
69.670 32.985443
69.675 32.513889
69.680 32.918186
69.685 33.720505
69.690 35.087276
69.695 34.721737
69.700 35.015064
69.705 35.228065
69.710 34.949806
69.715 34.355705
69.720 33.206123
69.725 31.18874
69.730 30.886425
69.735 30.745596
69.740 30.924719
69.745 31.493406
69.750 31.705978
69.755 31.292524
69.760 31.353859
69.765 30.648609
69.770 30.120125
69.775 29.180468
69.780 27.920191
69.785 27.601606
69.790 28.203014
69.795 28.852993
69.800 29.146729
69.805 28.819981
69.810 29.206499
69.815 29.679792
69.820 29.318235
69.825 28.660015
69.830 28.503305
69.835 28.476444
69.840 28.133669
69.845 28.406017
69.850 27.916895
69.855 28.116724
69.860 27.479837
69.865 26.440434
69.870 26.047312
69.875 26.220139
69.880 25.560188
69.885 26.037893
69.890 26.03919
69.895 26.242786
69.900 26.148129
69.905 25.57325
69.910 24.588585
69.915 24.250677
69.920 23.916336
69.925 23.396921
69.930 23.090019
69.935 23.078184
69.940 22.763094
69.945 22.773138
69.950 22.458807
69.955 22.270266
69.960 22.027964
69.965 21.751984
69.970 21.437347
69.975 21.462137
69.980 21.293369
69.985 21.425219
69.990 21.636936
69.995 21.666931
70.000 21.752487
70.005 22.448969
70.010 22.746243
70.015 23.311079
70.020 23.752443
70.025 23.997459
70.030 24.004286
70.035 24.240608
70.040 24.384586
70.045 24.06492
70.050 23.652431
70.055 22.860001
70.060 22.233654
70.065 22.242889
70.070 21.559673
70.075 21.41077
70.080 21.858316
70.085 21.792309
70.090 22.154963
70.095 22.63966
70.100 22.494541
70.105 22.504551
70.110 22.535263
70.115 22.659857
70.120 22.473959
70.125 22.27614
70.130 21.333284
70.135 21.638252
70.140 21.830608
70.145 21.564569
70.150 21.558212
70.155 21.81897
70.160 22.140648
70.165 22.481298
70.170 21.490171
70.175 21.019167
70.180 20.878437
70.185 20.721575
70.190 20.559626
70.195 20.555878
70.200 20.687428
70.205 21.28739
70.210 21.535427
70.215 21.495373
70.220 21.051212
70.225 20.808935
70.230 20.386217
70.235 20.11194
70.240 19.150337
70.245 18.903767
70.250 19.262798
70.255 19.330513
70.260 18.905434
70.265 18.976343
70.270 19.115955
70.275 19.654564
70.280 18.956085
70.285 19.115486
70.290 19.668802
70.295 20.269884
70.300 20.706427
70.305 20.66279
70.310 21.015842
70.315 21.265141
70.320 20.895844
70.325 20.488867
70.330 20.156025
70.335 20.039165
70.340 19.626802
70.345 18.980581
70.350 18.920172
70.355 18.982452
70.360 19.604805
70.365 19.721258
70.370 20.225817
70.375 20.567471
70.380 21.06707
70.385 20.869089
70.390 20.294075
70.395 20.171341
70.400 19.643324
70.405 19.514938
70.410 19.452059
70.415 18.702576
70.420 18.452957
70.425 18.216499
70.430 17.915472
70.435 18.218552
70.440 17.979874
70.445 18.033464
70.450 18.418957
70.455 18.743196
70.460 18.770884
70.465 18.811049
70.470 18.902832
70.475 19.317501
70.480 19.371153
70.485 19.501701
70.490 19.732222
70.495 20.00046
70.500 20.414032
70.505 20.011595
70.510 19.602427
70.515 20.143103
70.520 20.609159
70.525 20.495501
70.530 20.509254
70.535 19.930201
70.540 20.463522
70.545 20.319359
70.550 19.954206
70.555 20.153399
70.560 20.145523
70.565 20.227482
70.570 20.503197
70.575 20.052982
70.580 20.064014
70.585 19.539896
70.590 18.868464
70.595 19.04315
70.600 19.160553
70.605 18.773815
70.610 18.868492
70.615 19.90765
70.620 20.703901
70.625 20.753237
70.630 20.715031
70.635 19.895994
70.640 19.768442
70.645 19.117205
70.650 17.390673
70.655 17.118477
70.660 17.240593
70.665 17.180038
70.670 18.031347
70.675 18.460323
70.680 18.639587
70.685 19.192123
70.690 19.200741
70.695 19.655678
70.700 19.649446
70.705 19.459463
70.710 19.380251
70.715 19.909687
70.720 19.892447
70.725 19.627808
70.730 19.673965
70.735 20.264523
70.740 20.545408
70.745 20.744093
70.750 20.494848
70.755 20.619284
70.760 20.292097
70.765 19.765526
70.770 19.1092
70.775 19.333136
70.780 18.648392
70.785 18.448097
70.790 18.598921
70.795 18.94466
70.800 18.795931
70.805 18.852579
70.810 18.614649
70.815 19.467316
70.820 20.157701
70.825 19.784897
70.830 19.391663
70.835 19.579079
70.840 19.889107
70.845 19.960133
70.850 19.875248
70.855 19.730091
70.860 19.88553
70.865 20.446888
70.870 20.832787
70.875 20.761473
70.880 20.493204
70.885 20.226156
70.890 20.728834
70.895 21.509506
70.900 21.205442
70.905 20.729204
70.910 20.515608
70.915 20.934458
70.920 20.613928
70.925 19.771301
70.930 18.644672
70.935 18.222038
70.940 17.882483
70.945 18.312819
70.950 18.14011
70.955 18.450773
70.960 18.998932
70.965 19.685415
70.970 20.007809
70.975 20.563307
70.980 20.34709
70.985 20.57238
70.990 19.841818
70.995 19.563324
71.000 19.693048
71.005 19.609638
71.010 19.164576
71.015 19.181612
71.020 19.329649
71.025 19.610003
71.030 19.361605
71.035 19.294321
71.040 19.869049
71.045 20.125952
71.050 20.12895
71.055 20.133593
71.060 20.288692
71.065 19.864895
71.070 19.067137
71.075 18.716352
71.080 18.605846
71.085 18.653147
71.090 19.012173
71.095 19.148352
71.100 19.717583
71.105 19.791077
71.110 19.666643
71.115 19.518297
71.120 19.227598
71.125 18.609137
71.130 18.734022
71.135 18.949333
71.140 18.890326
71.145 18.568865
71.150 18.584202
71.155 18.762369
71.160 19.003773
71.165 18.752546
71.170 18.657387
71.175 19.111641
71.180 19.376064
71.185 19.118065
71.190 18.921721
71.195 18.408407
71.200 18.7451
71.205 19.040251
71.210 18.967634
71.215 19.129637
71.220 19.642492
71.225 19.628939
71.230 19.600502
71.235 20.181402
71.240 20.144541
71.245 20.468946
71.250 20.042173
71.255 19.922392
71.260 19.766882
71.265 19.542875
71.270 18.736839
71.275 18.110357
71.280 17.930349
71.285 17.874636
71.290 17.83029
71.295 18.051126
71.300 17.955732
71.305 17.910416
71.310 17.640924
71.315 17.790083
71.320 19.01919
71.325 19.242554
71.330 19.165905
71.335 20.011307
71.340 20.363941
71.345 20.641088
71.350 20.235092
71.355 18.997328
71.360 19.16855
71.365 19.248247
71.370 19.641808
71.375 20.462482
71.380 20.83951
71.385 20.574547
71.390 20.848932
71.395 20.601624
71.400 20.357454
71.405 18.986013
71.410 18.609962
71.415 18.544668
71.420 18.743195
71.425 18.71876
71.430 18.362993
71.435 18.888065
71.440 19.5485
71.445 19.310753
71.450 19.961647
71.455 20.480349
71.460 20.838821
71.465 20.43704
71.470 19.629395
71.475 18.554417
71.480 18.723005
71.485 18.337652
71.490 18.004652
71.495 18.427111
71.500 19.631945
71.505 19.591141
71.510 19.957766
71.515 19.743601
71.520 19.900129
71.525 19.9785
71.530 19.686258
71.535 19.576698
71.540 20.046524
71.545 20.0343
71.550 19.614265
71.555 19.003853
71.560 18.490503
71.565 18.353695
71.570 17.948879
71.575 17.397953
71.580 17.463736
71.585 17.840136
71.590 17.60634
71.595 17.830967
71.600 18.358009
71.605 18.983843
71.610 19.658756
71.615 19.390133
71.620 19.108206
71.625 19.505503
71.630 19.481766
71.635 19.093477
71.640 18.963423
71.645 18.44043
71.650 18.705564
71.655 18.694643
71.660 18.602503
71.665 18.9834
71.670 18.956697
71.675 19.521284
71.680 19.654409
71.685 19.714308
71.690 20.198154
71.695 19.980789
71.700 19.794365
71.705 19.061888
71.710 18.487503
71.715 18.046118
71.720 18.414375
71.725 18.260212
71.730 17.774462
71.735 17.563234
71.740 17.514593
71.745 17.726208
71.750 17.589008
71.755 16.853802
71.760 17.156351
71.765 17.749105
71.770 17.853405
71.775 18.376635
71.780 18.471582
71.785 19.21669
71.790 19.372375
71.795 18.763126
71.800 18.528902
71.805 18.429792
71.810 18.855165
71.815 19.205732
71.820 18.86351
71.825 18.706646
71.830 19.294788
71.835 19.297901
71.840 19.113447
71.845 18.731642
71.850 18.544294
71.855 18.698786
71.860 18.562452
71.865 18.133425
71.870 18.448515
71.875 18.841867
71.880 18.790422
71.885 18.630331
71.890 18.933514
71.895 18.90732
71.900 18.797922
71.905 18.793964
71.910 18.667372
71.915 18.952425
71.920 18.717934
71.925 18.40292
71.930 18.246559
71.935 17.921652
71.940 17.678509
71.945 17.382797
71.950 17.529041
71.955 17.885353
71.960 17.991394
71.965 18.394575
71.970 18.73966
71.975 18.911814
71.980 19.471827
71.985 19.367571
71.990 19.204943
71.995 19.394663
72.000 19.297409
72.005 19.287766
72.010 18.631817
72.015 18.002037
72.020 18.224796
72.025 18.496365
72.030 18.533854
72.035 18.312532
72.040 17.482689
72.045 17.891005
72.050 18.117777
72.055 18.30579
72.060 18.549429
72.065 18.857849
72.070 19.943396
72.075 20.596582
72.080 20.207853
72.085 19.859375
72.090 19.343571
72.095 18.773653
72.100 18.831636
72.105 18.226202
72.110 18.53867
72.115 19.004457
72.120 19.143312
72.125 18.825394
72.130 18.564482
72.135 18.355568
72.140 18.374422
72.145 17.904428
72.150 16.677999
72.155 16.487415
72.160 16.910089
72.165 16.338326
72.170 16.518723
72.175 16.946468
72.180 17.62907
72.185 17.871708
72.190 17.887526
72.195 17.96825
72.200 18.248661
72.205 18.507853
72.210 17.969456
72.215 17.826353
72.220 18.312874
72.225 18.233408
72.230 18.159971
72.235 18.468622
72.240 18.325676
72.245 18.729532
72.250 19.045042
72.255 18.736645
72.260 18.502377
72.265 18.125465
72.270 17.310062
72.275 17.630543
72.280 17.70302
72.285 17.201395
72.290 17.329933
72.295 17.629473
72.300 17.893606
72.305 18.722847
72.310 18.411459
72.315 18.386103
72.320 18.49898
72.325 18.935869
72.330 19.133375
72.335 18.792049
72.340 18.506277
72.345 18.435438
72.350 18.500523
72.355 18.189447
72.360 17.979988
72.365 17.940481
72.370 17.642881
72.375 16.948978
72.380 17.102724
72.385 17.637394
72.390 17.436365
72.395 17.814589
72.400 17.45504
72.405 17.760429
72.410 17.902502
72.415 17.848442
72.420 18.017246
72.425 17.644245
72.430 17.788145
72.435 18.700926
72.440 18.467093
72.445 17.935871
72.450 16.923996
72.455 16.762178
72.460 17.246803
72.465 17.146345
72.470 17.102228
72.475 17.269238
72.480 17.764664
72.485 18.786371
72.490 18.746313
72.495 18.731705
72.500 18.477751
72.505 18.538631
72.510 18.554382
72.515 18.198641
72.520 17.888231
72.525 17.377558
72.530 16.735674
72.535 16.647612
72.540 16.525692
72.545 16.474829
72.550 16.372627
72.555 16.184772
72.560 16.844664
72.565 17.156796
72.570 17.16925
72.575 17.434309
72.580 18.169556
72.585 18.424946
72.590 18.633696
72.595 18.36751
72.600 18.587164
72.605 18.847012
72.610 18.824654
72.615 17.697565
72.620 17.895264
72.625 18.079418
72.630 17.82012
72.635 17.242954
72.640 16.406687
72.645 16.133324
72.650 16.243599
72.655 15.450987
72.660 15.640343
72.665 15.560939
72.670 15.964168
72.675 16.441553
72.680 16.919601
72.685 17.089289
72.690 16.915646
72.695 17.198666
72.700 17.858854
72.705 17.759634
72.710 18.100201
72.715 17.879976
72.720 18.134113
72.725 18.232206
72.730 18.489918
72.735 18.403168
72.740 18.19058
72.745 18.071222
72.750 17.61986
72.755 17.277899
72.760 17.5949
72.765 17.477358
72.770 17.764585
72.775 18.186987
72.780 18.070152
72.785 18.702728
72.790 18.688135
72.795 18.056942
72.800 17.80378
72.805 17.773075
72.810 18.060143
72.815 18.275177
72.820 18.354639
72.825 18.792404
72.830 18.823151
72.835 18.625593
72.840 18.387865
72.845 17.902769
72.850 17.939817
72.855 17.632509
72.860 17.522543
72.865 17.523199
72.870 17.51523
72.875 17.376326
72.880 17.384874
72.885 16.804724
72.890 16.897284
72.895 16.492832
72.900 15.970146
72.905 15.759225
72.910 15.748385
72.915 16.154814
72.920 16.385405
72.925 16.353369
72.930 16.705915
72.935 16.903839
72.940 16.878654
72.945 16.82638
72.950 16.684975
72.955 16.493265
72.960 16.57288
72.965 16.354847
72.970 16.613171
72.975 16.794296
72.980 16.885147
72.985 17.283802
72.990 17.602772
72.995 18.192591
73.000 18.281668
