!@!!GADDS PLOTSO FILE: Chi integration type
!@!!Title/SampleName: map-6c
!@!!Comment: ?
!@!!User: Bruker Instrument Administrator
!@!!Site: University of Illinois Chicago
!@!!Frame: map-6c_01_000.gfrm
!@!!Wavelengths    1.54184   1.54056   1.54439
!@!!Frame angles: 2Theta: 63.000 Omega: 50.000 Phi: 0.000 Chi: 90.000
!@!!Integration range: 2Theta: 53.000 to 73.000  Gamma: -105.000 to -75.000
!@!!Integration method: bin normalized
!@!N
!@!SS
!@!M
!@!L 0.0 0.0 0.0 0.0
!@!XDegrees
!@!YCounts
53.000 9.514232
53.005 9.281012
53.010 8.723877
53.015 8.266251
53.020 8.263132
53.025 8.457104
53.030 8.642776
53.035 8.779297
53.040 8.864387
53.045 9.35441
53.050 8.997513
53.055 8.90767
53.060 8.99075
53.065 9.034794
53.070 9.312501
53.075 9.465473
53.080 9.796068
53.085 10.22442
53.090 10.059856
53.095 10.030951
53.100 9.941576
53.105 9.752178
53.110 9.587173
53.115 9.606418
53.120 10.20788
53.125 10.395002
53.130 10.024899
53.135 9.694921
53.140 9.447729
53.145 9.64088
53.150 9.196526
53.155 9.047704
53.160 9.031182
53.165 9.202184
53.170 9.327572
53.175 9.565505
53.180 9.157011
53.185 9.020234
53.190 8.547434
53.195 8.274245
53.200 8.453207
53.205 8.963305
53.210 9.162766
53.215 9.507485
53.220 9.987806
53.225 10.791224
53.230 11.382926
53.235 11.08374
53.240 10.479149
53.245 10.221223
53.250 10.29828
53.255 10.323059
53.260 9.877668
53.265 9.992283
53.270 10.302727
53.275 10.519316
53.280 10.394752
53.285 9.802956
53.290 9.566612
53.295 9.486056
53.300 9.13628
53.305 9.096771
53.310 9.10902
53.315 9.346879
53.320 9.689091
53.325 10.183494
53.330 10.269221
53.335 10.195457
53.340 9.943809
53.345 10.222886
53.350 10.355764
53.355 9.9017
53.360 9.539963
53.365 9.807899
53.370 10.074544
53.375 10.202461
53.380 10.000944
53.385 9.923595
53.390 9.977523
53.395 9.703948
53.400 10.006734
53.405 9.782891
53.410 9.617812
53.415 9.468334
53.420 9.688107
53.425 9.952489
53.430 10.065878
53.435 9.868269
53.440 10.104444
53.445 9.905299
53.450 9.763868
53.455 10.073986
53.460 10.561728
53.465 10.994697
53.470 11.570412
53.475 11.665165
53.480 11.985664
53.485 11.527742
53.490 11.0897
53.495 10.579837
53.500 10.141242
53.505 10.246729
53.510 10.381818
53.515 11.050472
53.520 11.28676
53.525 11.435743
53.530 11.361789
53.535 11.33909
53.540 11.054944
53.545 10.637853
53.550 10.129799
53.555 10.22785
53.560 10.481211
53.565 10.617794
53.570 10.50115
53.575 10.975513
53.580 11.075003
53.585 11.080202
53.590 11.442866
53.595 11.387726
53.600 11.286176
53.605 11.145392
53.610 11.039056
53.615 11.18439
53.620 11.613323
53.625 11.472149
53.630 10.989326
53.635 10.902003
53.640 10.588606
53.645 10.673185
53.650 10.457046
53.655 10.307452
53.660 10.212229
53.665 10.398122
53.670 10.385794
53.675 10.372438
53.680 10.401661
53.685 10.326997
53.690 10.12482
53.695 10.02694
53.700 9.761199
53.705 9.806434
53.710 9.500366
53.715 9.375786
53.720 9.344095
53.725 8.900089
53.730 8.960359
53.735 8.845245
53.740 8.732065
53.745 8.735766
53.750 8.921671
53.755 9.020767
53.760 9.032213
53.765 9.60601
53.770 9.910476
53.775 10.365731
53.780 10.96381
53.785 10.612124
53.790 10.230591
53.795 9.738349
53.800 9.565652
53.805 9.75826
53.810 9.475553
53.815 8.89656
53.820 9.487724
53.825 10.418558
53.830 10.500381
53.835 10.182515
53.840 9.954965
53.845 10.00586
53.850 10.321662
53.855 9.970368
53.860 9.514291
53.865 9.940236
53.870 9.577343
53.875 9.470609
53.880 9.180653
53.885 9.095433
53.890 8.897239
53.895 8.920855
53.900 8.870562
53.905 9.730208
53.910 10.516166
53.915 10.654661
53.920 10.857811
53.925 11.200097
53.930 11.484172
53.935 11.652071
53.940 11.597946
53.945 11.464151
53.950 11.447621
53.955 11.111251
53.960 10.886379
53.965 10.676621
53.970 10.09992
53.975 9.487725
53.980 9.333559
53.985 9.609728
53.990 9.958918
53.995 10.346279
54.000 10.40464
54.005 10.666171
54.010 11.049643
54.015 11.32458
54.020 11.537519
54.025 11.444874
54.030 10.790881
54.035 11.183504
54.040 10.94951
54.045 10.466743
54.050 10.011249
54.055 9.621505
54.060 9.963862
54.065 10.555676
54.070 10.612203
54.075 11.134644
54.080 11.35619
54.085 11.077398
54.090 11.188452
54.095 11.405595
54.100 11.101327
54.105 10.485349
54.110 10.311728
54.115 10.445664
54.120 10.210918
54.125 9.833436
54.130 9.822032
54.135 9.882702
54.140 10.466468
54.145 10.563649
54.150 10.864579
54.155 11.608386
54.160 11.556914
54.165 11.739526
54.170 11.984004
54.175 11.437763
54.180 11.275723
54.185 10.903702
54.190 10.64375
54.195 10.658479
54.200 10.489799
54.205 10.48577
54.210 10.61139
54.215 10.816659
54.220 11.026206
54.225 11.022701
54.230 11.107755
54.235 10.655352
54.240 10.804434
54.245 10.826583
54.250 10.481643
54.255 10.565356
54.260 10.730335
54.265 10.550312
54.270 10.777257
54.275 10.783757
54.280 11.133992
54.285 11.401459
54.290 11.379093
54.295 11.532268
54.300 12.087132
54.305 12.200771
54.310 12.603918
54.315 12.213609
54.320 12.228594
54.325 12.147677
54.330 11.524368
54.335 11.395637
54.340 11.123755
54.345 10.574408
54.350 10.762543
54.355 10.735169
54.360 10.757227
54.365 11.120095
54.370 11.520486
54.375 11.393952
54.380 11.58222
54.385 11.295948
54.390 11.006725
54.395 10.972079
54.400 10.795304
54.405 10.199928
54.410 10.344711
54.415 10.144132
54.420 10.705261
54.425 11.106228
54.430 10.802001
54.435 10.385096
54.440 10.202104
54.445 10.090145
54.450 10.163448
54.455 9.862662
54.460 9.741558
54.465 10.02608
54.470 10.550528
54.475 10.494342
54.480 10.983696
54.485 11.218761
54.490 11.223246
54.495 11.115011
54.500 11.080459
54.505 10.902782
54.510 10.798915
54.515 10.89992
54.520 10.630752
54.525 10.718276
54.530 10.975149
54.535 11.298282
54.540 11.560793
54.545 11.33892
54.550 10.924447
54.555 10.943594
54.560 11.47849
54.565 11.343142
54.570 10.928392
54.575 10.705184
54.580 11.089245
54.585 11.929607
54.590 11.84827
54.595 11.364688
54.600 11.438525
54.605 11.38308
54.610 11.532405
54.615 11.208405
54.620 11.190079
54.625 10.966573
54.630 11.095066
54.635 11.250253
54.640 11.165959
54.645 10.902961
54.650 10.733066
54.655 10.761955
54.660 11.055742
54.665 11.076543
54.670 11.297108
54.675 11.43858
54.680 11.286118
54.685 11.249694
54.690 11.19596
54.695 10.92695
54.700 10.404129
54.705 10.347302
54.710 10.388983
54.715 10.586948
54.720 10.314817
54.725 10.030965
54.730 10.628272
54.735 11.035741
54.740 10.858226
54.745 11.048587
54.750 11.146433
54.755 11.325221
54.760 11.346262
54.765 11.113871
54.770 10.883456
54.775 11.329285
54.780 11.465482
54.785 11.578987
54.790 11.393012
54.795 11.064585
54.800 11.196943
54.805 11.111419
54.810 11.190086
54.815 10.873639
54.820 11.206013
54.825 11.403243
54.830 11.384391
54.835 11.35019
54.840 11.245459
54.845 11.245726
54.850 11.325032
54.855 10.987727
54.860 10.98988
54.865 10.956695
54.870 11.175373
54.875 10.979472
54.880 10.770503
54.885 11.05187
54.890 11.365904
54.895 11.446882
54.900 11.612123
54.905 11.654664
54.910 11.703175
54.915 11.380301
54.920 11.077002
54.925 10.987431
54.930 11.090746
54.935 11.136539
54.940 10.919871
54.945 10.941133
54.950 11.335164
54.955 11.383713
54.960 11.380769
54.965 11.287217
54.970 11.017376
54.975 11.246536
54.980 11.334346
54.985 10.991179
54.990 10.920302
54.995 10.537337
55.000 10.654752
55.005 11.106438
55.010 11.067801
55.015 11.280995
55.020 11.613247
55.025 11.993146
55.030 12.062226
55.035 11.797092
55.040 11.58797
55.045 11.202128
55.050 11.170786
55.055 11.222529
55.060 11.031402
55.065 10.937162
55.070 10.91482
55.075 10.929685
55.080 11.103349
55.085 10.624129
55.090 10.450634
55.095 10.358862
55.100 10.580298
55.105 10.852913
55.110 10.767822
55.115 10.906713
55.120 11.257505
55.125 11.709509
55.130 11.887032
55.135 11.933209
55.140 12.07873
55.145 12.221683
55.150 12.146529
55.155 11.753475
55.160 11.655694
55.165 11.401082
55.170 10.95322
55.175 10.504538
55.180 10.231087
55.185 10.098477
55.190 10.090305
55.195 9.845477
55.200 10.118577
55.205 10.75325
55.210 11.182696
55.215 11.215215
55.220 11.376245
55.225 11.635275
55.230 12.060668
55.235 11.999653
55.240 11.573358
55.245 11.670732
55.250 11.997843
55.255 11.955134
55.260 11.703212
55.265 11.626649
55.270 11.595366
55.275 11.43476
55.280 11.388867
55.285 11.594873
55.290 11.731836
55.295 11.953134
55.300 11.901424
55.305 11.73766
55.310 11.682974
55.315 11.681186
55.320 11.824513
55.325 12.176337
55.330 12.20574
55.335 12.186959
55.340 12.222382
55.345 12.752801
55.350 13.128973
55.355 12.831944
55.360 12.522416
55.365 12.338552
55.370 12.377182
55.375 12.669587
55.380 12.894773
55.385 12.676582
55.390 12.719748
55.395 12.518576
55.400 12.284039
55.405 12.652641
55.410 12.306982
55.415 11.820039
55.420 11.64966
55.425 11.660416
55.430 12.228698
55.435 12.514978
55.440 12.685546
55.445 12.824696
55.450 12.906637
55.455 13.187098
55.460 12.933291
55.465 12.605958
55.470 12.063988
55.475 11.754775
55.480 11.388508
55.485 10.925891
55.490 10.826911
55.495 10.894161
55.500 10.91044
55.505 10.917101
55.510 10.966916
55.515 11.504912
55.520 12.093135
55.525 11.441753
55.530 11.061454
55.535 10.974858
55.540 11.333807
55.545 11.286151
55.550 11.012919
55.555 11.012602
55.560 11.401617
55.565 11.586141
55.570 11.46121
55.575 10.699946
55.580 10.345383
55.585 10.122479
55.590 10.375624
55.595 10.67889
55.600 10.893045
55.605 11.439058
55.610 12.037242
55.615 12.539495
55.620 13.048072
55.625 12.400643
55.630 12.448485
55.635 12.408214
55.640 12.037081
55.645 11.888745
55.650 11.865032
55.655 11.811291
55.660 11.603679
55.665 11.269846
55.670 11.348229
55.675 11.222163
55.680 10.951715
55.685 10.639231
55.690 10.744117
55.695 11.232761
55.700 11.329996
55.705 11.704755
55.710 11.974702
55.715 11.97014
55.720 11.832319
55.725 12.105004
55.730 12.380852
55.735 12.709618
55.740 12.460514
55.745 12.319197
55.750 12.537342
55.755 12.55831
55.760 11.810741
55.765 11.650175
55.770 11.55456
55.775 11.425316
55.780 11.575928
55.785 11.574615
55.790 11.720703
55.795 12.060273
55.800 11.679332
55.805 11.582474
55.810 11.903341
55.815 12.077131
55.820 12.376301
55.825 12.419707
55.830 12.214118
55.835 12.611818
55.840 12.865984
55.845 13.059952
55.850 12.955605
55.855 12.730454
55.860 12.61917
55.865 12.766429
55.870 12.433537
55.875 11.888065
55.880 11.380451
55.885 11.327753
55.890 10.808912
55.895 10.696635
55.900 10.951117
55.905 11.668049
55.910 12.599036
55.915 13.279285
55.920 13.983907
55.925 14.757763
55.930 15.337965
55.935 15.070092
55.940 14.832937
55.945 14.848945
55.950 14.986762
55.955 14.713894
55.960 14.565109
55.965 14.106533
55.970 13.996386
55.975 13.486147
55.980 12.502492
55.985 11.850489
55.990 11.706521
55.995 11.503979
56.000 11.628244
56.005 11.844479
56.010 12.504182
56.015 12.631856
56.020 12.847824
56.025 12.677558
56.030 12.400098
56.035 12.311958
56.040 12.110132
56.045 11.972137
56.050 11.587399
56.055 11.06854
56.060 11.472483
56.065 11.698026
56.070 11.244758
56.075 10.957739
56.080 11.053524
56.085 11.640678
56.090 12.241126
56.095 12.358441
56.100 12.703173
56.105 13.221276
56.110 13.687243
56.115 13.606804
56.120 13.180874
56.125 12.847786
56.130 12.384912
56.135 12.07269
56.140 12.011372
56.145 11.834923
56.150 11.732927
56.155 11.807178
56.160 12.158671
56.165 12.497335
56.170 12.376867
56.175 12.254105
56.180 11.784403
56.185 11.733849
56.190 11.43049
56.195 10.738014
56.200 10.74169
56.205 10.770738
56.210 11.025548
56.215 11.743084
56.220 12.440937
56.225 13.002934
56.230 13.692289
56.235 13.812173
56.240 14.277888
56.245 14.046945
56.250 13.513352
56.255 13.178698
56.260 12.796932
56.265 12.631922
56.270 12.452925
56.275 12.325526
56.280 12.366017
56.285 12.713705
56.290 13.117049
56.295 13.640291
56.300 13.751705
56.305 14.036115
56.310 13.670835
56.315 13.450013
56.320 13.305019
56.325 13.184004
56.330 13.012462
56.335 13.109585
56.340 13.389719
56.345 14.419544
56.350 14.731171
56.355 14.734503
56.360 14.749978
56.365 14.83499
56.370 14.595237
56.375 13.977263
56.380 13.164408
56.385 12.933381
56.390 12.280897
56.395 11.848599
56.400 11.241611
56.405 11.24749
56.410 11.534103
56.415 11.678181
56.420 11.625463
56.425 11.934382
56.430 11.927159
56.435 12.350194
56.440 11.929239
56.445 11.902325
56.450 12.042685
56.455 12.474729
56.460 12.592466
56.465 12.545765
56.470 12.541567
56.475 13.520685
56.480 13.389095
56.485 13.139745
56.490 13.849134
56.495 14.01547
56.500 13.968083
56.505 13.968882
56.510 13.443716
56.515 13.595895
56.520 13.36225
56.525 12.749963
56.530 12.487438
56.535 12.158341
56.540 11.764051
56.545 11.72109
56.550 11.712425
56.555 11.653682
56.560 11.09149
56.565 11.527979
56.570 11.903087
56.575 12.043016
56.580 12.058174
56.585 11.844151
56.590 11.95699
56.595 12.340248
56.600 11.913824
56.605 11.917012
56.610 11.719791
56.615 11.63396
56.620 12.223452
56.625 11.940335
56.630 12.000265
56.635 12.25299
56.640 12.000082
56.645 12.009881
56.650 11.874891
56.655 11.654713
56.660 11.878631
56.665 12.132935
56.670 12.68681
56.675 13.447951
56.680 13.618441
56.685 13.665362
56.690 13.769283
56.695 13.641679
56.700 13.702394
56.705 13.333026
56.710 13.150378
56.715 13.441401
56.720 13.456799
56.725 13.680041
56.730 13.83788
56.735 13.789309
56.740 14.070026
56.745 14.073404
56.750 13.929948
56.755 14.011127
56.760 14.044053
56.765 14.102264
56.770 13.755959
56.775 13.455277
56.780 12.860354
56.785 12.592221
56.790 13.087552
56.795 13.218298
56.800 12.93566
56.805 13.295313
56.810 13.915174
56.815 14.240259
56.820 14.593926
56.825 14.634679
56.830 14.564339
56.835 14.830221
56.840 14.405883
56.845 13.822949
56.850 14.090888
56.855 14.058661
56.860 14.04683
56.865 13.847725
56.870 14.050635
56.875 14.070166
56.880 14.329881
56.885 14.196749
56.890 13.878714
56.895 13.438508
56.900 13.041823
56.905 12.594225
56.910 12.329332
56.915 12.194991
56.920 12.17393
56.925 12.063443
56.930 12.264479
56.935 12.518203
56.940 12.921335
56.945 13.863827
56.950 13.932816
56.955 14.48919
56.960 15.017277
56.965 15.240696
56.970 15.561082
56.975 15.483098
56.980 15.200356
56.985 15.004919
56.990 14.839532
56.995 14.548111
57.000 14.057362
57.005 13.627763
57.010 13.046433
57.015 12.802205
57.020 12.976605
57.025 12.474168
57.030 12.539474
57.035 12.865066
57.040 13.165236
57.045 13.082643
57.050 12.943334
57.055 12.954749
57.060 13.038652
57.065 12.453206
57.070 12.575782
57.075 12.831714
57.080 13.152135
57.085 13.002609
57.090 12.943473
57.095 13.221532
57.100 13.585029
57.105 13.385328
57.110 13.219992
57.115 13.463964
57.120 13.757477
57.125 13.700321
57.130 13.565181
57.135 13.364143
57.140 12.769206
57.145 12.722535
57.150 13.120509
57.155 13.179399
57.160 12.767546
57.165 12.699158
57.170 13.547759
57.175 14.101169
57.180 13.881007
57.185 13.637901
57.190 13.673804
57.195 13.951501
57.200 14.205682
57.205 13.757071
57.210 14.391866
57.215 14.948594
57.220 14.908478
57.225 15.28861
57.230 14.850052
57.235 14.731627
57.240 14.725128
57.245 14.421082
57.250 13.854597
57.255 13.051189
57.260 12.691857
57.265 12.845174
57.270 12.65284
57.275 12.618019
57.280 12.404209
57.285 12.853459
57.290 13.61748
57.295 13.805361
57.300 14.01474
57.305 13.922809
57.310 14.062649
57.315 14.296676
57.320 14.002504
57.325 14.208505
57.330 14.449245
57.335 14.868876
57.340 15.286606
57.345 15.308942
57.350 15.517767
57.355 15.463887
57.360 15.114569
57.365 14.373845
57.370 14.087308
57.375 13.660332
57.380 13.786713
57.385 13.928664
57.390 14.337554
57.395 14.237714
57.400 14.516693
57.405 14.741868
57.410 14.668242
57.415 14.203658
57.420 13.849037
57.425 13.417409
57.430 13.444944
57.435 13.63238
57.440 13.732542
57.445 14.245673
57.450 14.800785
57.455 15.186307
57.460 15.703653
57.465 15.571959
57.470 15.327633
57.475 15.571262
57.480 15.484501
57.485 15.371492
57.490 15.086336
57.495 14.684222
57.500 15.012255
57.505 15.14446
57.510 14.749084
57.515 14.737607
57.520 14.624614
57.525 14.054903
57.530 13.655683
57.535 13.66688
57.540 13.673668
57.545 13.930113
57.550 13.895184
57.555 13.819663
57.560 14.558661
57.565 14.750666
57.570 14.620356
57.575 14.928909
57.580 15.044271
57.585 14.710297
57.590 14.671461
57.595 14.986315
57.600 15.271705
57.605 15.200994
57.610 14.656826
57.615 14.205832
57.620 14.037301
57.625 13.611365
57.630 13.108764
57.635 13.04478
57.640 13.025781
57.645 13.209998
57.650 13.753343
57.655 13.9519
57.660 14.597924
57.665 14.67695
57.670 14.822958
57.675 15.05492
57.680 14.867677
57.685 14.744066
57.690 14.871671
57.695 14.641939
57.700 14.84535
57.705 15.147321
57.710 15.065663
57.715 15.117606
57.720 15.07631
57.725 14.984743
57.730 15.810673
57.735 16.270182
57.740 15.812797
57.745 16.415545
57.750 16.734539
57.755 16.964951
57.760 16.837263
57.765 16.229845
57.770 16.283661
57.775 16.144989
57.780 15.442482
57.785 15.393643
57.790 15.622771
57.795 15.750531
57.800 15.466472
57.805 15.330834
57.810 15.697279
57.815 16.047911
57.820 16.302134
57.825 16.317463
57.830 16.436102
57.835 16.444908
57.840 16.196064
57.845 16.213747
57.850 15.944883
57.855 15.794105
57.860 15.574425
57.865 14.973
57.870 14.414018
57.875 14.902504
57.880 15.475976
57.885 15.67728
57.890 15.282519
57.895 15.157641
57.900 15.784043
57.905 15.813522
57.910 14.820473
57.915 14.43967
57.920 14.445573
57.925 14.16586
57.930 14.277505
57.935 14.381238
57.940 14.51934
57.945 14.655717
57.950 14.229901
57.955 14.401113
57.960 14.91744
57.965 14.801659
57.970 15.125944
57.975 15.61301
57.980 15.827642
57.985 16.113285
57.990 15.782146
57.995 15.517277
58.000 15.614172
58.005 15.429412
58.010 15.319872
58.015 14.707951
58.020 14.497784
58.025 14.749809
58.030 15.128244
58.035 15.747505
58.040 16.16032
58.045 16.47069
58.050 17.457531
58.055 18.040525
58.060 18.030613
58.065 17.560816
58.070 16.867996
58.075 16.690166
58.080 16.340128
58.085 16.145838
58.090 16.040382
58.095 16.363253
58.100 16.504417
58.105 17.202927
58.110 17.307259
58.115 16.986895
58.120 16.971674
58.125 16.949215
58.130 17.334677
58.135 17.43541
58.140 17.280279
58.145 17.619724
58.150 17.462109
58.155 17.172033
58.160 16.999533
58.165 16.328327
58.170 16.324089
58.175 15.818814
58.180 15.000048
58.185 15.474236
58.190 15.82207
58.195 16.229618
58.200 16.705511
58.205 17.006308
58.210 16.981289
58.215 17.509727
58.220 17.635273
58.225 17.206028
58.230 16.893892
58.235 16.672161
58.240 16.460938
58.245 16.54912
58.250 16.666393
58.255 16.649387
58.260 16.372116
58.265 16.318024
58.270 15.908028
58.275 16.127651
58.280 16.384293
58.285 16.293785
58.290 16.598526
58.295 17.023643
58.300 16.747704
58.305 16.955374
58.310 17.100979
58.315 17.572653
58.320 17.727425
58.325 17.724676
58.330 18.455681
58.335 19.261929
58.340 19.57444
58.345 19.514303
58.350 19.409372
58.355 19.667229
58.360 19.676355
58.365 19.086872
58.370 18.753447
58.375 18.811592
58.380 19.025341
58.385 18.690254
58.390 18.555752
58.395 18.689077
58.400 19.097187
58.405 19.414639
58.410 19.783869
58.415 19.752144
58.420 20.257372
58.425 20.504808
58.430 20.993389
58.435 21.523853
58.440 22.091629
58.445 22.368242
58.450 22.508068
58.455 22.436188
58.460 23.08847
58.465 23.339554
58.470 23.765577
58.475 24.074936
58.480 24.197157
58.485 24.979713
58.490 25.52619
58.495 25.149666
58.500 24.594036
58.505 24.654715
58.510 25.141291
58.515 25.458534
58.520 25.71022
58.525 27.138142
58.530 28.796648
58.535 29.973673
58.540 30.186493
58.545 30.940147
58.550 31.717667
58.555 32.8638
58.560 33.068573
58.565 33.267593
58.570 33.101311
58.575 33.122913
58.580 33.275787
58.585 33.71199
58.590 33.293648
58.595 33.526375
58.600 33.534317
58.605 34.467758
58.610 35.736511
58.615 36.276283
58.620 36.538528
58.625 37.540348
58.630 37.748081
58.635 37.788143
58.640 38.570091
58.645 38.463459
58.650 37.876968
58.655 37.21701
58.660 37.175922
58.665 38.016472
58.670 38.552406
58.675 37.707218
58.680 37.342426
58.685 37.886955
58.690 38.837734
58.695 39.149342
58.700 38.094646
58.705 37.670418
58.710 37.685604
58.715 38.116203
58.720 37.863106
58.725 36.938046
58.730 36.270294
58.735 35.936588
58.740 35.779591
58.745 35.826847
58.750 35.66256
58.755 35.236095
58.760 35.880386
58.765 36.067356
58.770 36.220932
58.775 36.526649
58.780 36.275066
58.785 35.309193
58.790 35.339024
58.795 34.506496
58.800 33.722355
58.805 33.648212
58.810 32.864574
58.815 32.250294
58.820 32.690022
58.825 32.754047
58.830 32.766438
58.835 31.900417
58.840 30.342215
58.845 29.302839
58.850 28.701649
58.855 27.905804
58.860 26.823545
58.865 26.400679
58.870 26.322451
58.875 27.067892
58.880 27.175972
58.885 27.231857
58.890 27.497276
58.895 27.376234
58.900 27.441305
58.905 26.7798
58.910 25.883623
58.915 26.000244
58.920 25.46958
58.925 24.1539
58.930 23.774878
58.935 22.915485
58.940 22.944485
58.945 23.051107
58.950 22.499424
58.955 22.20727
58.960 22.207281
58.965 22.252243
58.970 21.711058
58.975 21.716705
58.980 21.147966
58.985 20.284416
58.990 19.821133
58.995 19.839357
59.000 20.119928
59.005 20.316044
59.010 19.965591
59.015 19.601702
59.020 20.181807
59.025 20.413721
59.030 20.016674
59.035 19.49316
59.040 19.560719
59.045 19.126396
59.050 18.910324
59.055 18.356415
59.060 18.182966
59.065 18.075226
59.070 18.03087
59.075 17.515924
59.080 17.677914
59.085 17.450182
59.090 17.475964
59.095 17.249157
59.100 16.937992
59.105 16.439718
59.110 16.025286
59.115 16.522976
59.120 16.461855
59.125 16.327261
59.130 16.215908
59.135 16.188257
59.140 16.215559
59.145 15.739149
59.150 14.838845
59.155 14.572248
59.160 14.564369
59.165 14.258826
59.170 14.357401
59.175 14.992408
59.180 15.835498
59.185 16.170713
59.190 16.046736
59.195 16.329323
59.200 16.683823
59.205 16.720596
59.210 16.308329
59.215 16.443119
59.220 16.699074
59.225 16.670897
59.230 16.479519
59.235 16.167109
59.240 15.977899
59.245 16.436985
59.250 16.004744
59.255 16.17631
59.260 17.231211
59.265 17.532244
59.270 17.624882
59.275 17.558893
59.280 17.058846
59.285 16.516678
59.290 16.339285
59.295 15.739483
59.300 15.083633
59.305 14.701333
59.310 14.775514
59.315 15.21431
59.320 15.307522
59.325 15.109803
59.330 14.97963
59.335 15.640308
59.340 15.664066
59.345 15.704943
59.350 15.402069
59.355 15.423311
59.360 15.754273
59.365 16.220629
59.370 15.981565
59.375 16.341385
59.380 16.118233
59.385 16.258211
59.390 16.794188
59.395 16.638233
59.400 16.024372
59.405 16.044027
59.410 15.982862
59.415 16.52083
59.420 16.670174
59.425 16.035538
59.430 15.409068
59.435 15.599859
59.440 15.517838
59.445 15.063958
59.450 14.529483
59.455 14.211172
59.460 14.476933
59.465 14.789684
59.470 14.699537
59.475 14.605189
59.480 14.561656
59.485 14.183926
59.490 14.187643
59.495 14.29726
59.500 14.033152
59.505 14.255506
59.510 14.535359
59.515 14.753002
59.520 14.607882
59.525 14.357448
59.530 14.132646
59.535 13.948577
59.540 13.987301
59.545 14.045774
59.550 14.300559
59.555 14.616339
59.560 15.084309
59.565 15.164776
59.570 15.474016
59.575 15.066913
59.580 14.762967
59.585 15.119431
59.590 15.348633
59.595 15.380877
59.600 15.803906
59.605 15.904464
59.610 16.060848
59.615 16.278576
59.620 16.022831
59.625 16.102421
59.630 16.314375
59.635 16.11784
59.640 16.63105
59.645 16.926346
59.650 16.356844
59.655 16.222754
59.660 16.033024
59.665 16.044727
59.670 15.856033
59.675 15.226991
59.680 15.332731
59.685 15.842324
59.690 15.772924
59.695 15.561679
59.700 15.503681
59.705 15.308769
59.710 15.229254
59.715 15.441156
59.720 15.487496
59.725 16.051558
59.730 15.498607
59.735 14.458714
59.740 14.403811
59.745 14.542665
59.750 13.939637
59.755 13.927073
59.760 13.892531
59.765 14.381022
59.770 15.729724
59.775 15.90766
59.780 15.295142
59.785 14.840899
59.790 14.399054
59.795 14.459002
59.800 14.59584
59.805 13.676888
59.810 13.34412
59.815 13.909615
59.820 15.164098
59.825 15.354908
59.830 14.820881
59.835 14.765298
59.840 15.614564
59.845 16.318186
59.850 16.367033
59.855 15.734732
59.860 15.843478
59.865 16.067213
59.870 15.697154
59.875 14.987904
59.880 14.61427
59.885 14.673477
59.890 14.546349
59.895 14.471628
59.900 14.415528
59.905 14.378515
59.910 14.340048
59.915 14.497723
59.920 14.847503
59.925 14.884789
59.930 14.826832
59.935 15.266267
59.940 15.647944
59.945 16.230801
59.950 16.356466
59.955 16.827816
59.960 17.059576
59.965 16.859747
59.970 16.147087
59.975 15.768899
59.980 15.557955
59.985 15.328614
59.990 14.759252
59.995 14.753739
60.000 15.003584
60.005 14.977171
60.010 14.912918
60.015 14.720522
60.020 14.521373
60.025 14.648415
60.030 14.673197
60.035 14.638944
60.040 15.00107
60.045 15.766864
60.050 15.606527
60.055 15.588138
60.060 15.16813
60.065 15.434406
60.070 15.895452
60.075 15.614105
60.080 15.189248
60.085 15.72113
60.090 15.554347
60.095 15.371114
60.100 15.111856
60.105 14.413979
60.110 14.318927
60.115 13.913016
60.120 13.414367
60.125 13.979759
60.130 14.438142
60.135 14.548599
60.140 15.095347
60.145 15.178202
60.150 15.903854
60.155 16.205853
60.160 15.707559
60.165 15.102602
60.170 14.938476
60.175 14.933663
60.180 14.837936
60.185 14.937062
60.190 14.823076
60.195 14.870162
60.200 15.05166
60.205 15.239303
60.210 15.273983
60.215 15.809892
60.220 15.820292
60.225 16.422764
60.230 16.790241
60.235 17.00675
60.240 16.938864
60.245 17.152336
60.250 16.868641
60.255 16.423805
60.260 15.753426
60.265 15.543891
60.270 15.284371
60.275 15.209297
60.280 15.414214
60.285 15.718311
60.290 15.70958
60.295 15.745271
60.300 15.949875
60.305 16.39703
60.310 16.688984
60.315 16.684359
60.320 16.585373
60.325 16.497709
60.330 16.460934
60.335 16.661142
60.340 16.270861
60.345 15.409298
60.350 15.367699
60.355 15.692057
60.360 15.317611
60.365 15.196007
60.370 15.211674
60.375 15.298293
60.380 15.502983
60.385 14.883399
60.390 14.993231
60.395 16.769045
60.400 16.436584
60.405 15.616518
60.410 15.532808
60.415 15.474102
60.420 15.62254
60.425 15.168257
60.430 13.474227
60.435 13.804471
60.440 13.764288
60.445 13.713785
60.450 13.701586
60.455 13.9387
60.460 14.365805
60.465 15.239466
60.470 15.915695
60.475 16.635242
60.480 16.803299
60.485 17.220444
60.490 16.932945
60.495 16.683886
60.500 16.941618
60.505 16.574127
60.510 16.323483
60.515 15.948381
60.520 15.689731
60.525 15.563372
60.530 15.342341
60.535 14.385572
60.540 13.320976
60.545 13.396392
60.550 13.871067
60.555 13.650616
60.560 13.742926
60.565 13.852606
60.570 14.698816
60.575 15.593267
60.580 15.76827
60.585 15.721698
60.590 15.830839
60.595 15.79242
60.600 15.93946
60.605 15.647709
60.610 15.346545
60.615 15.004477
60.620 14.94824
60.625 15.114881
60.630 15.416303
60.635 14.839289
60.640 14.587799
60.645 14.894408
60.650 14.931259
60.655 14.901733
60.660 14.978733
60.665 14.551565
60.670 14.664202
60.675 14.851025
60.680 14.943263
60.685 15.038955
60.690 14.940898
60.695 14.75719
60.700 14.678233
60.705 14.97514
60.710 14.440646
60.715 14.37098
60.720 14.390142
60.725 14.316917
60.730 14.075
60.735 14.266155
60.740 13.929446
60.745 13.870841
60.750 13.452982
60.755 13.422337
60.760 13.126311
60.765 13.514051
60.770 13.167309
60.775 13.981044
60.780 14.584234
60.785 15.08742
60.790 15.028812
60.795 15.27787
60.800 15.19886
60.805 15.5129
60.810 15.507868
60.815 15.843039
60.820 15.689636
60.825 16.424021
60.830 17.030041
60.835 17.651524
60.840 18.103968
60.845 17.669502
60.850 17.143127
60.855 17.728069
60.860 17.716877
60.865 17.436447
60.870 16.612541
60.875 16.172918
60.880 16.318333
60.885 16.027472
60.890 14.95931
60.895 14.191071
60.900 13.910527
60.905 14.30671
60.910 14.044991
60.915 13.960218
60.920 14.344094
60.925 14.985518
60.930 15.562849
60.935 15.726189
60.940 15.481478
60.945 15.846231
60.950 16.051947
60.955 15.516197
60.960 15.261724
60.965 15.061405
60.970 14.93821
60.975 15.014271
60.980 15.310304
60.985 15.43004
60.990 15.446003
60.995 15.150299
61.000 15.744873
61.005 16.17861
61.010 16.16605
61.015 15.721192
61.020 15.52058
61.025 15.687812
61.030 16.322716
61.035 16.177937
61.040 16.02347
61.045 15.718878
61.050 15.639581
61.055 16.054161
61.060 16.252783
61.065 15.939948
61.070 15.604214
61.075 15.54608
61.080 15.831223
61.085 16.260214
61.090 16.173452
61.095 16.307407
61.100 16.352272
61.105 16.41563
61.110 16.256908
61.115 16.349636
61.120 16.064461
61.125 16.147816
61.130 15.564974
61.135 15.492408
61.140 15.222645
61.145 15.674581
61.150 15.78441
61.155 16.009098
61.160 15.785957
61.165 16.002668
61.170 16.366171
61.175 16.480728
61.180 15.912176
61.185 15.599854
61.190 15.342313
61.195 15.822381
61.200 16.206102
61.205 16.797136
61.210 17.230532
61.215 17.9186
61.220 17.983681
61.225 18.498423
61.230 18.548279
61.235 18.10668
61.240 17.17667
61.245 17.101547
61.250 16.939459
61.255 16.952507
61.260 16.422926
61.265 16.182619
61.270 16.127888
61.275 15.624324
61.280 15.382385
61.285 15.65954
61.290 15.741159
61.295 15.851775
61.300 15.622299
61.305 15.803517
61.310 16.06805
61.315 15.294738
61.320 14.800052
61.325 14.996747
61.330 14.798414
61.335 14.79229
61.340 14.396633
61.345 14.510821
61.350 14.97125
61.355 14.668263
61.360 14.148894
61.365 14.215677
61.370 14.211336
61.375 14.168973
61.380 14.43696
61.385 14.445251
61.390 14.691906
61.395 14.449926
61.400 14.230664
61.405 13.78736
61.410 13.882154
61.415 14.078351
61.420 14.728794
61.425 15.022944
61.430 15.467466
61.435 16.071507
61.440 16.831669
61.445 16.964569
61.450 16.952574
61.455 16.511522
61.460 16.308752
61.465 16.218584
61.470 16.320347
61.475 16.657198
61.480 16.737055
61.485 16.563435
61.490 16.851185
61.495 16.656693
61.500 16.797312
61.505 16.864138
61.510 16.41169
61.515 16.259861
61.520 16.659063
61.525 16.634211
61.530 16.828157
61.535 17.078068
61.540 16.702353
61.545 16.996134
61.550 16.81374
61.555 16.262901
61.560 16.225403
61.565 16.48307
61.570 16.434723
61.575 16.369839
61.580 16.383383
61.585 16.436264
61.590 16.522961
61.595 16.221422
61.600 15.596615
61.605 15.248121
61.610 15.407495
61.615 15.761044
61.620 15.866922
61.625 15.459956
61.630 15.034637
61.635 14.724918
61.640 14.385777
61.645 14.3296
61.650 14.10863
61.655 14.138547
61.660 14.483766
61.665 14.927338
61.670 15.161493
61.675 15.799459
61.680 15.941037
61.685 15.653416
61.690 15.29976
61.695 14.970415
61.700 14.950952
61.705 15.13134
61.710 15.313831
61.715 14.85985
61.720 15.053263
61.725 15.207623
61.730 15.527901
61.735 15.750906
61.740 15.704851
61.745 15.542718
61.750 15.368044
61.755 15.296792
61.760 15.481383
61.765 15.289227
61.770 15.066201
61.775 15.396983
61.780 15.120431
61.785 15.025304
61.790 14.856031
61.795 15.083523
61.800 15.330931
61.805 15.006417
61.810 15.03064
61.815 15.026303
61.820 15.540532
61.825 15.408376
61.830 15.239765
61.835 15.206314
61.840 15.949395
61.845 16.225582
61.850 16.727301
61.855 17.197786
61.860 17.537785
61.865 17.264286
61.870 17.555763
61.875 17.411621
61.880 17.572723
61.885 17.486197
61.890 17.39813
61.895 17.897429
61.900 18.183704
61.905 17.710072
61.910 17.426369
61.915 16.640469
61.920 16.668879
61.925 16.281199
61.930 15.995976
61.935 16.79224
61.940 16.838421
61.945 16.738901
61.950 17.122829
61.955 17.234797
61.960 17.65728
61.965 16.725901
61.970 15.880958
61.975 16.052126
61.980 16.289822
61.985 16.425924
61.990 16.056759
61.995 15.46599
62.000 15.983492
62.005 16.034748
62.010 16.144238
62.015 16.018099
62.020 15.98349
62.025 16.281237
62.030 16.580883
62.035 16.519392
62.040 16.421118
62.045 16.0103
62.050 16.033665
62.055 16.040789
62.060 15.735849
62.065 16.145641
62.070 16.67544
62.075 17.031694
62.080 17.655403
62.085 17.470131
62.090 16.84461
62.095 17.102829
62.100 16.76363
62.105 16.39249
62.110 15.909659
62.115 15.94751
62.120 16.673418
62.125 17.351294
62.130 17.455433
62.135 17.676346
62.140 17.783348
62.145 18.090036
62.150 17.752867
62.155 17.137556
62.160 16.402267
62.165 16.298065
62.170 16.786079
62.175 17.378151
62.180 17.577948
62.185 17.277763
62.190 17.271082
62.195 17.461939
62.200 17.303715
62.205 16.24885
62.210 15.942601
62.215 15.720275
62.220 15.877019
62.225 15.856771
62.230 15.747499
62.235 15.836563
62.240 16.037798
62.245 15.546112
62.250 15.34751
62.255 15.695013
62.260 15.624145
62.265 15.561317
62.270 15.63004
62.275 15.295177
62.280 14.919005
62.285 14.85374
62.290 15.066207
62.295 15.653231
62.300 16.149021
62.305 16.190641
62.310 16.63512
62.315 17.077803
62.320 17.090374
62.325 16.855499
62.330 16.308426
62.335 16.176563
62.340 15.785243
62.345 15.888997
62.350 15.318338
62.355 15.224068
62.360 14.83338
62.365 15.040112
62.370 15.368504
62.375 15.903532
62.380 16.447186
62.385 17.30895
62.390 17.30892
62.395 17.848537
62.400 18.277012
62.405 17.884367
62.410 17.171755
62.415 16.788986
62.420 16.383501
62.425 16.760595
62.430 16.782293
62.435 16.604399
62.440 16.502119
62.445 17.093405
62.450 17.434904
62.455 17.83456
62.460 17.656055
62.465 16.916126
62.470 16.978807
62.475 17.808725
62.480 17.376673
62.485 17.740229
62.490 17.800793
62.495 18.086571
62.500 18.577049
62.505 18.366621
62.510 18.020489
62.515 18.220415
62.520 17.821699
62.525 17.743441
62.530 17.378454
62.535 17.083685
62.540 17.134899
62.545 16.874876
62.550 16.978428
62.555 17.066212
62.560 17.571915
62.565 17.565901
62.570 17.511414
62.575 17.184231
62.580 16.942789
62.585 16.295038
62.590 15.950153
62.595 15.193178
62.600 15.050673
62.605 14.861557
62.610 14.846791
62.615 15.015407
62.620 15.165737
62.625 15.52842
62.630 16.092709
62.635 16.755398
62.640 17.063967
62.645 17.220251
62.650 17.018623
62.655 16.779907
62.660 17.024536
62.665 16.83363
62.670 16.138044
62.675 16.172541
62.680 16.574249
62.685 17.18729
62.690 17.770792
62.695 17.077641
62.700 16.699305
62.705 17.082396
62.710 17.343681
62.715 17.279156
62.720 17.191059
62.725 17.272711
62.730 17.139919
62.735 16.991991
62.740 17.117659
62.745 16.658176
62.750 16.365795
62.755 15.823151
62.760 15.314153
62.765 15.644718
62.770 15.972769
62.775 16.200853
62.780 16.452971
62.785 16.204979
62.790 16.763832
62.795 17.255951
62.800 17.354488
62.805 17.614429
62.810 16.943628
62.815 16.939077
62.820 17.065416
62.825 17.184832
62.830 17.321999
62.835 17.108894
62.840 16.630453
62.845 16.331194
62.850 16.627029
62.855 16.564899
62.860 16.121956
62.865 16.268396
62.870 16.612715
62.875 17.136925
62.880 17.675306
62.885 17.533764
62.890 16.960438
62.895 16.921457
62.900 16.602591
62.905 16.566963
62.910 16.444876
62.915 15.965805
62.920 15.982799
62.925 16.932661
62.930 16.865648
62.935 17.016745
62.940 16.893257
62.945 17.113081
62.950 17.025623
62.955 16.864674
62.960 16.198177
62.965 15.902059
62.970 15.499947
62.975 15.372602
62.980 15.593793
62.985 16.245531
62.990 16.620476
62.995 17.324055
63.000 17.774855
63.005 17.835215
63.010 17.690426
63.015 17.145226
63.020 16.559565
63.025 16.182882
63.030 15.720828
63.035 15.403787
63.040 15.277942
63.045 15.928812
63.050 16.765799
63.055 16.832893
63.060 16.49267
63.065 16.537636
63.070 16.717705
63.075 16.803349
63.080 16.305019
63.085 16.125628
63.090 16.310707
63.095 16.558569
63.100 16.753515
63.105 17.066414
63.110 17.142054
63.115 17.54878
63.120 16.874968
63.125 17.196257
63.130 17.407476
63.135 17.633974
63.140 17.468132
63.145 16.749613
63.150 16.782721
63.155 16.77409
63.160 17.07539
63.165 16.904034
63.170 16.650181
63.175 17.148691
63.180 17.21924
63.185 17.019463
63.190 17.609179
63.195 17.101709
63.200 17.205416
63.205 16.925371
63.210 16.885294
63.215 17.165712
63.220 16.956329
63.225 16.982628
63.230 16.869322
63.235 16.881084
63.240 16.825392
63.245 17.355503
63.250 17.677711
63.255 17.335712
63.260 16.989799
63.265 17.555609
63.270 17.487255
63.275 17.57159
63.280 16.631958
63.285 15.714862
63.290 16.113001
63.295 16.127142
63.300 15.851502
63.305 15.750019
63.310 16.212927
63.315 16.971092
63.320 17.661161
63.325 17.492374
63.330 17.90328
63.335 18.448656
63.340 18.654057
63.345 18.210285
63.350 17.959892
63.355 18.09659
63.360 17.718384
63.365 16.972486
63.370 16.689358
63.375 17.024799
63.380 17.073751
63.385 17.322289
63.390 17.30241
63.395 18.126333
63.400 18.426178
63.405 17.824371
63.410 17.332066
63.415 17.513121
63.420 16.949621
63.425 17.317265
63.430 17.192482
63.435 17.104334
63.440 17.083693
63.445 17.088745
63.450 17.093243
63.455 17.241976
63.460 16.888706
63.465 16.367432
63.470 16.498428
63.475 17.055187
63.480 16.91814
63.485 17.110062
63.490 17.048471
63.495 17.423994
63.500 18.166019
63.505 18.096819
63.510 17.673033
63.515 17.288649
63.520 16.803671
63.525 17.145636
63.530 17.313633
63.535 17.126154
63.540 17.242693
63.545 17.643831
63.550 18.182457
63.555 18.367495
63.560 18.610598
63.565 18.627762
63.570 18.407837
63.575 18.33383
63.580 18.008463
63.585 17.746307
63.590 17.368855
63.595 16.985075
63.600 16.161177
63.605 16.072514
63.610 15.813233
63.615 16.119045
63.620 16.352442
63.625 16.640474
63.630 15.991214
63.635 16.475662
63.640 16.742878
63.645 17.101448
63.650 17.291348
63.655 16.545073
63.660 16.465927
63.665 17.13357
63.670 17.624712
63.675 17.806368
63.680 17.882475
63.685 17.864067
63.690 18.126341
63.695 17.802763
63.700 16.964468
63.705 16.709236
63.710 16.646582
63.715 16.872595
63.720 16.952805
63.725 17.038795
63.730 16.804424
63.735 17.277391
63.740 17.419008
63.745 17.730562
63.750 17.48296
63.755 17.333607
63.760 17.934658
63.765 18.693365
63.770 18.859627
63.775 18.903484
63.780 19.064676
63.785 19.278622
63.790 19.245768
63.795 18.729597
63.800 18.676403
63.805 17.677984
63.810 17.46134
63.815 17.051369
63.820 17.015137
63.825 17.114914
63.830 17.143734
63.835 17.094057
63.840 17.838413
63.845 18.237095
63.850 18.254345
63.855 18.302835
63.860 18.351635
63.865 18.301195
63.870 18.3573
63.875 18.720823
63.880 18.392334
63.885 18.247244
63.890 17.935543
63.895 18.455952
63.900 18.668112
63.905 18.420485
63.910 17.77676
63.915 17.229626
63.920 17.236382
63.925 18.125433
63.930 18.039267
63.935 17.77104
63.940 18.221716
63.945 18.381544
63.950 18.788719
63.955 19.549164
63.960 19.52669
63.965 19.293037
63.970 19.617617
63.975 19.466032
63.980 19.831652
63.985 19.890182
63.990 19.357628
63.995 19.234814
64.000 19.372465
64.005 19.567354
64.010 19.91856
64.015 20.930792
64.020 21.671501
64.025 22.041531
64.030 21.735632
64.035 22.051619
64.040 22.134352
64.045 21.834911
64.050 20.911207
64.055 20.534456
64.060 20.843241
64.065 21.153358
64.070 21.260798
64.075 21.388182
64.080 21.80501
64.085 22.554886
64.090 22.733309
64.095 22.401342
64.100 22.181057
64.105 22.000177
64.110 22.19269
64.115 21.93294
64.120 21.869322
64.125 22.706194
64.130 24.116217
64.135 25.604408
64.140 26.79278
64.145 26.741716
64.150 27.368576
64.155 27.623987
64.160 27.755981
64.165 27.479193
64.170 26.749586
64.175 26.414494
64.180 26.998468
64.185 28.048189
64.190 28.261646
64.195 27.968216
64.200 27.424534
64.205 28.231491
64.210 28.72703
64.215 29.073778
64.220 29.126207
64.225 30.153152
64.230 31.39559
64.235 32.00441
64.240 32.407845
64.245 33.017765
64.250 33.339027
64.255 33.752022
64.260 34.574642
64.265 35.022148
64.270 36.501389
64.275 37.407322
64.280 38.556801
64.285 39.473877
64.290 40.174263
64.295 40.309547
64.300 41.525581
64.305 41.323826
64.310 41.39077
64.315 41.842667
64.320 42.248177
64.325 43.909473
64.330 44.583096
64.335 44.662968
64.340 46.178726
64.345 46.69318
64.350 46.895138
64.355 47.354679
64.360 48.071304
64.365 49.270142
64.370 50.666115
64.375 51.240772
64.380 51.252621
64.385 51.418724
64.390 52.027328
64.395 52.890003
64.400 53.262825
64.405 53.02018
64.410 53.534874
64.415 53.848305
64.420 54.202061
64.425 54.420616
64.430 53.751488
64.435 53.24527
64.440 53.755833
64.445 54.046154
64.450 55.095421
64.455 55.405308
64.460 54.853027
64.465 54.711327
64.470 54.587303
64.475 53.308258
64.480 52.423424
64.485 52.007584
64.490 51.122982
64.495 51.215439
64.500 51.106049
64.505 51.144978
64.510 51.328587
64.515 51.254749
64.520 51.011467
64.525 50.984608
64.530 50.273705
64.535 48.831551
64.540 47.197716
64.545 46.197315
64.550 45.840439
64.555 45.062717
64.560 44.415779
64.565 43.743664
64.570 43.815598
64.575 44.255314
64.580 44.431114
64.585 43.890179
64.590 43.699406
64.595 43.728279
64.600 43.351341
64.605 42.431923
64.610 41.984009
64.615 41.337643
64.620 40.890869
64.625 40.532749
64.630 39.671127
64.635 39.370544
64.640 39.536316
64.645 38.760624
64.650 38.166039
64.655 36.855492
64.660 36.289528
64.665 37.222328
64.670 37.120277
64.675 36.343632
64.680 35.0966
64.685 33.873486
64.690 33.349037
64.695 32.245609
64.700 30.955612
64.705 30.127577
64.710 29.083513
64.715 29.016981
64.720 28.810881
64.725 28.773232
64.730 29.084955
64.735 28.670843
64.740 28.530525
64.745 28.027121
64.750 27.974693
64.755 27.845856
64.760 27.555609
64.765 27.487951
64.770 27.313301
64.775 26.803938
64.780 26.49456
64.785 26.330553
64.790 26.532312
64.795 26.35607
64.800 25.366879
64.805 25.347576
64.810 25.670919
64.815 25.610693
64.820 24.689173
64.825 24.040112
64.830 24.233383
64.835 24.64208
64.840 24.900141
64.845 24.094215
64.850 24.05101
64.855 24.221687
64.860 24.460905
64.865 23.898026
64.870 23.532238
64.875 23.156612
64.880 23.685532
64.885 23.925884
64.890 24.169113
64.895 24.231102
64.900 24.302549
64.905 24.198669
64.910 24.29954
64.915 23.835197
64.920 23.263264
64.925 23.696529
64.930 24.1535
64.935 24.786272
64.940 25.814707
64.945 26.491032
64.950 27.247972
64.955 29.142616
64.960 29.352488
64.965 30.219643
64.970 30.252241
64.975 29.821663
64.980 29.916702
64.985 30.729734
64.990 30.215111
64.995 30.344465
65.000 29.965246
65.005 30.35228
65.010 30.682791
65.015 31.482044
65.020 31.945051
65.025 32.782887
65.030 32.965744
65.035 33.066822
65.040 33.01836
65.045 33.281132
65.050 33.539204
65.055 34.48661
65.060 34.639362
65.065 34.965099
65.070 35.312641
65.075 35.777676
65.080 36.290825
65.085 36.30024
65.090 36.226368
65.095 36.395287
65.100 36.590683
65.105 36.811455
65.110 36.99192
65.115 37.093792
65.120 37.45491
65.125 37.784325
65.130 38.252399
65.135 38.702061
65.140 39.055122
65.145 38.873669
65.150 39.195889
65.155 38.825916
65.160 39.166431
65.165 39.549412
65.170 39.732197
65.175 40.512718
65.180 41.732563
65.185 42.046055
65.190 42.507919
65.195 42.262283
65.200 41.539753
65.205 40.9272
65.210 40.770439
65.215 40.648365
65.220 40.402821
65.225 40.495247
65.230 40.707062
65.235 41.567856
65.240 42.596241
65.245 42.49942
65.250 42.011848
65.255 41.810459
65.260 41.29311
65.265 42.002949
65.270 41.795746
65.275 41.49876
65.280 41.240574
65.285 41.800697
65.290 42.072964
65.295 42.542561
65.300 42.335693
65.305 42.442368
65.310 43.362656
65.315 43.490364
65.320 43.279133
65.325 43.330765
65.330 43.551323
65.335 43.466812
65.340 43.778896
65.345 42.825134
65.350 42.576611
65.355 43.125301
65.360 42.602005
65.365 41.879463
65.370 41.229652
65.375 40.98238
65.380 41.746475
65.385 41.702671
65.390 41.782097
65.395 42.654797
65.400 43.082973
65.405 43.564243
65.410 43.389168
65.415 43.689644
65.420 44.209858
65.425 43.445499
65.430 42.922596
65.435 43.072609
65.440 43.556339
65.445 43.025784
65.450 42.070194
65.455 41.433308
65.460 41.398903
65.465 41.312244
65.470 40.562283
65.475 39.763611
65.480 39.178242
65.485 39.105423
65.490 38.692238
65.495 38.974709
65.500 39.334965
65.505 39.62215
65.510 39.493721
65.515 39.640606
65.520 39.660141
65.525 39.43885
65.530 39.15591
65.535 38.795834
65.540 38.141319
65.545 37.583389
65.550 37.793716
65.555 37.748222
65.560 38.20137
65.565 38.147434
65.570 38.365009
65.575 38.38018
65.580 38.772675
65.585 38.786304
65.590 39.123158
65.595 38.834118
65.600 37.941399
65.605 37.180664
65.610 37.014557
65.615 36.319584
65.620 35.374882
65.625 34.497803
65.630 34.045483
65.635 33.934792
65.640 33.561249
65.645 33.387661
65.650 33.013565
65.655 33.082272
65.660 33.698715
65.665 33.663799
65.670 33.874119
65.675 34.5308
65.680 35.230648
65.685 34.976566
65.690 34.919724
65.695 34.1073
65.700 33.873108
65.705 33.463295
65.710 33.388775
65.715 32.256783
65.720 31.764585
65.725 30.761158
65.730 29.843699
65.735 29.303429
65.740 28.519312
65.745 27.177416
65.750 25.723251
65.755 25.925932
65.760 26.174469
65.765 26.402464
65.770 26.383636
65.775 26.16947
65.780 25.895399
65.785 26.71665
65.790 26.109196
65.795 25.052116
65.800 24.809628
65.805 24.856039
65.810 24.813221
65.815 24.138517
65.820 23.000845
65.825 22.901333
65.830 23.77689
65.835 23.562176
65.840 23.367701
65.845 23.849461
65.850 24.309359
65.855 24.726208
65.860 24.959179
65.865 24.864132
65.870 24.670656
65.875 23.820566
65.880 23.669556
65.885 23.426596
65.890 22.628572
65.895 22.196543
65.900 21.93704
65.905 22.479303
65.910 23.241693
65.915 23.111589
65.920 23.55994
65.925 23.199598
65.930 22.716455
65.935 22.567806
65.940 22.018963
65.945 21.594864
65.950 21.470552
65.955 21.846931
65.960 22.27767
65.965 22.043022
65.970 21.628511
65.975 21.140938
65.980 21.090849
65.985 21.041952
65.990 20.494591
65.995 20.513662
66.000 21.125126
66.005 21.058758
66.010 21.531767
66.015 21.647724
66.020 21.454321
66.025 21.268749
66.030 20.936743
66.035 20.406599
66.040 20.460632
66.045 20.404001
66.050 20.346516
66.055 20.384018
66.060 20.658438
66.065 20.566593
66.070 19.802326
66.075 19.621197
66.080 19.630159
66.085 19.152424
66.090 18.980047
66.095 18.81148
66.100 18.830341
66.105 19.264235
66.110 19.104916
66.115 18.940876
66.120 18.804901
66.125 18.481451
66.130 18.387375
66.135 18.326082
66.140 18.679565
66.145 18.779264
66.150 19.046871
66.155 19.301403
66.160 19.710011
66.165 19.943848
66.170 19.755407
66.175 19.498232
66.180 19.145342
66.185 18.666607
66.190 18.141043
66.195 17.794699
66.200 17.897268
66.205 18.152849
66.210 18.061388
66.215 18.027128
66.220 17.910759
66.225 18.177397
66.230 18.328047
66.235 18.316315
66.240 18.286337
66.245 18.512096
66.250 18.869781
66.255 18.763432
66.260 18.86587
66.265 18.905817
66.270 19.057589
66.275 18.892694
66.280 18.60177
66.285 18.386387
66.290 18.606081
66.295 18.301315
66.300 18.131311
66.305 18.059893
66.310 17.157295
66.315 16.834116
66.320 16.710533
66.325 16.769115
66.330 16.922485
66.335 16.370668
66.340 17.061235
66.345 18.294863
66.350 18.649937
66.355 18.603968
66.360 18.666872
66.365 19.314486
66.370 19.80003
66.375 18.622637
66.380 18.334696
66.385 18.523159
66.390 18.341349
66.395 18.082975
66.400 17.484322
66.405 17.599039
66.410 17.947609
66.415 18.182405
66.420 18.391535
66.425 19.020184
66.430 19.536158
66.435 19.731899
66.440 19.427366
66.445 19.754976
66.450 19.660719
66.455 18.946245
66.460 18.382175
66.465 18.321053
66.470 18.325769
66.475 18.623411
66.480 18.163038
66.485 18.749199
66.490 19.546345
66.495 19.272087
66.500 18.774887
66.505 18.642618
66.510 18.687876
66.515 18.748821
66.520 18.055092
66.525 17.855576
66.530 18.090374
66.535 18.125084
66.540 17.85434
66.545 18.03367
66.550 17.769051
66.555 17.493296
66.560 17.232903
66.565 17.225388
66.570 17.538509
66.575 17.616709
66.580 16.810219
66.585 17.249311
66.590 17.208717
66.595 18.03471
66.600 18.372272
66.605 18.469591
66.610 18.739155
66.615 19.21397
66.620 19.404209
66.625 20.26305
66.630 19.649712
66.635 19.193441
66.640 18.703663
66.645 18.223196
66.650 18.300539
66.655 17.806648
66.660 17.122728
66.665 17.278152
66.670 17.264772
66.675 17.309668
66.680 17.546553
66.685 17.497396
66.690 17.244272
66.695 16.947344
66.700 16.339531
66.705 16.341223
66.710 16.280457
66.715 16.163965
66.720 16.971704
66.725 17.624306
66.730 18.290159
66.735 18.670416
66.740 19.49472
66.745 20.100668
66.750 19.879694
66.755 19.539186
66.760 19.29867
66.765 19.264788
66.770 19.417398
66.775 19.099325
66.780 19.205196
66.785 19.827208
66.790 19.6973
66.795 19.166548
66.800 19.153034
66.805 18.930763
66.810 18.509224
66.815 18.662088
66.820 18.124115
66.825 17.869514
66.830 18.240288
66.835 18.261101
66.840 18.739002
66.845 19.15163
66.850 19.274885
66.855 19.364286
66.860 19.598665
66.865 19.761389
66.870 19.524715
66.875 19.226088
66.880 18.78644
66.885 18.151751
66.890 17.765623
66.895 17.336166
66.900 17.327621
66.905 17.470844
66.910 17.79497
66.915 17.960043
66.920 18.330259
66.925 18.06673
66.930 18.053617
66.935 17.421585
66.940 17.435244
66.945 17.179169
66.950 16.597586
66.955 16.280485
66.960 16.698626
66.965 16.955063
66.970 17.622128
66.975 17.09906
66.980 17.073786
66.985 17.384153
66.990 17.999378
66.995 17.602865
67.000 17.63884
67.005 17.779654
67.010 17.881308
67.015 17.547966
67.020 17.444956
67.025 16.914186
67.030 17.125309
67.035 17.207834
67.040 16.889149
67.045 17.098339
67.050 17.66254
67.055 17.533197
67.060 18.458735
67.065 18.943815
67.070 19.037777
67.075 19.44035
67.080 19.732353
67.085 19.266502
67.090 19.533869
67.095 18.73122
67.100 18.590078
67.105 18.746084
67.110 18.651901
67.115 18.528492
67.120 18.771152
67.125 18.761786
67.130 19.075052
67.135 18.924641
67.140 19.169201
67.145 19.302963
67.150 18.907749
67.155 18.721188
67.160 18.753098
67.165 19.231392
67.170 19.204889
67.175 18.762877
67.180 18.514973
67.185 19.009953
67.190 18.982126
67.195 18.647011
67.200 17.927473
67.205 18.002558
67.210 18.313116
67.215 17.650404
67.220 17.46279
67.225 17.782698
67.230 18.238049
67.235 18.295275
67.240 17.334703
67.245 16.708035
67.250 17.345289
67.255 17.425617
67.260 17.457386
67.265 17.001514
67.270 16.949074
67.275 17.603891
67.280 18.030714
67.285 17.918999
67.290 17.779278
67.295 17.692028
67.300 17.353409
67.305 17.374935
67.310 17.724453
67.315 17.442144
67.320 17.27939
67.325 16.803371
67.330 16.96327
67.335 17.368954
67.340 17.758589
67.345 18.256641
67.350 18.502686
67.355 18.896372
67.360 19.819511
67.365 19.78619
67.370 19.902647
67.375 19.471851
67.380 18.67214
67.385 18.275133
67.390 17.83408
67.395 17.573946
67.400 16.954239
67.405 16.691866
67.410 17.142429
67.415 17.522549
67.420 18.027222
67.425 18.228851
67.430 18.138805
67.435 18.550018
67.440 18.264719
67.445 17.713152
67.450 17.182392
67.455 17.170937
67.460 16.809263
67.465 16.937546
67.470 17.400795
67.475 17.718
67.480 17.646721
67.485 17.754505
67.490 17.770164
67.495 17.926796
67.500 17.392157
67.505 16.75078
67.510 16.659264
67.515 17.142334
67.520 16.886475
67.525 16.401718
67.530 15.840756
67.535 15.842246
67.540 15.901161
67.545 16.054123
67.550 15.542332
67.555 16.092871
67.560 17.224039
67.565 18.080351
67.570 18.58473
67.575 19.065983
67.580 19.458788
67.585 19.730942
67.590 19.671717
67.595 19.204575
67.600 19.215446
67.605 19.150072
67.610 18.939541
67.615 18.963018
67.620 19.474701
67.625 19.12962
67.630 19.234728
67.635 18.853001
67.640 18.887779
67.645 18.875799
67.650 18.644222
67.655 18.068245
67.660 18.705013
67.665 18.660454
67.670 18.487667
67.675 18.844566
67.680 19.186085
67.685 18.920525
67.690 19.470655
67.695 19.390211
67.700 19.159298
67.705 19.081589
67.710 18.814798
67.715 18.644691
67.720 18.816437
67.725 18.344166
67.730 18.491684
67.735 18.875328
67.740 19.074495
67.745 18.812654
67.750 18.7479
67.755 18.896147
67.760 18.728352
67.765 18.423895
67.770 18.514236
67.775 18.660841
67.780 18.33297
67.785 18.177912
67.790 18.353811
67.795 18.960117
67.800 19.006395
67.805 18.667585
67.810 18.207727
67.815 18.639355
67.820 18.710316
67.825 18.461927
67.830 18.206041
67.835 18.503048
67.840 18.649931
67.845 18.994461
67.850 19.474695
67.855 19.850616
67.860 19.931717
67.865 19.153454
67.870 18.835327
67.875 19.00243
67.880 18.531099
67.885 18.276577
67.890 17.937563
67.895 18.018095
67.900 18.268555
67.905 18.517879
67.910 18.602339
67.915 18.576252
67.920 18.287331
67.925 18.277775
67.930 18.458111
67.935 18.340458
67.940 18.467712
67.945 19.468044
67.950 20.113813
67.955 19.921898
67.960 19.814341
67.965 19.661438
67.970 19.868542
67.975 19.579508
67.980 18.998888
67.985 18.699793
67.990 19.04722
67.995 19.250908
68.000 19.508238
68.005 19.729755
68.010 19.722103
68.015 19.450941
68.020 19.720882
68.025 19.987535
68.030 19.947367
68.035 20.307564
68.040 20.505966
68.045 20.462179
68.050 20.381332
68.055 20.279789
68.060 20.243057
68.065 20.007959
68.070 19.483631
68.075 19.541433
68.080 19.866611
68.085 20.493828
68.090 20.584862
68.095 20.218416
68.100 20.726196
68.105 20.684305
68.110 20.910686
68.115 20.947916
68.120 21.282581
68.125 20.976755
68.130 21.057022
68.135 20.899204
68.140 20.770849
68.145 20.260168
68.150 19.739639
68.155 19.696529
68.160 19.758184
68.165 19.714123
68.170 19.62318
68.175 19.496561
68.180 20.140779
68.185 19.864035
68.190 20.004681
68.195 20.59737
68.200 21.002548
68.205 21.912046
68.210 22.071201
68.215 21.794567
68.220 22.348478
68.225 22.575327
68.230 22.184263
68.235 22.253036
68.240 22.194395
68.245 23.000261
68.250 23.847872
68.255 23.84535
68.260 24.28191
68.265 25.242455
68.270 25.521709
68.275 25.924854
68.280 26.445723
68.285 26.426239
68.290 26.060503
68.295 25.871716
68.300 25.52441
68.305 25.215837
68.310 24.922787
68.315 25.099291
68.320 24.538744
68.325 24.829124
68.330 25.226528
68.335 25.076773
68.340 26.066349
68.345 26.307199
68.350 26.883808
68.355 27.839287
68.360 28.607067
68.365 28.478004
68.370 29.529297
68.375 29.920534
68.380 30.510967
68.385 30.532005
68.390 30.955978
68.395 31.500254
68.400 32.257633
68.405 32.384827
68.410 32.288536
68.415 33.024307
68.420 33.379349
68.425 33.490707
68.430 33.884983
68.435 33.380096
68.440 33.528587
68.445 33.999554
68.450 33.964909
68.455 34.911774
68.460 35.507824
68.465 36.050907
68.470 36.160545
68.475 36.083233
68.480 35.979584
68.485 36.503811
68.490 36.03886
68.495 35.908268
68.500 35.394886
68.505 35.480072
68.510 35.197384
68.515 35.032154
68.520 34.978455
68.525 35.384998
68.530 35.486488
68.535 36.090881
68.540 36.667355
68.545 37.312725
68.550 37.026466
68.555 37.044376
68.560 37.485081
68.565 37.412338
68.570 37.943455
68.575 37.859901
68.580 37.532585
68.585 38.398071
68.590 38.071156
68.595 36.318886
68.600 35.233978
68.605 34.596348
68.610 34.443264
68.615 34.7328
68.620 34.391392
68.625 34.911274
68.630 36.284142
68.635 37.032799
68.640 37.919907
68.645 38.266132
68.650 38.204056
68.655 38.571972
68.660 38.153866
68.665 38.855206
68.670 39.060577
68.675 38.414722
68.680 37.596451
68.685 36.907818
68.690 36.173874
68.695 36.863304
68.700 36.467869
68.705 36.000298
68.710 36.975792
68.715 37.67535
68.720 37.555191
68.725 36.972942
68.730 35.713959
68.735 35.770805
68.740 35.514339
68.745 34.73357
68.750 34.728565
68.755 34.796673
68.760 35.384995
68.765 35.808105
68.770 34.982998
68.775 34.354305
68.780 34.019356
68.785 34.045856
68.790 33.962452
68.795 33.761848
68.800 33.960346
68.805 34.704746
68.810 34.826969
68.815 34.001049
68.820 34.014626
68.825 34.545345
68.830 34.103767
68.835 33.486992
68.840 33.023003
68.845 33.04528
68.850 32.975689
68.855 32.309792
68.860 31.839457
68.865 31.263418
68.870 31.324211
68.875 30.860165
68.880 30.742104
68.885 30.126961
68.890 29.884857
68.895 29.931114
68.900 29.499868
68.905 29.087111
68.910 28.98332
68.915 29.097748
68.920 29.356138
68.925 29.48444
68.930 28.648123
68.935 28.103352
68.940 28.382172
68.945 27.869221
68.950 28.019897
68.955 27.646986
68.960 28.046743
68.965 28.235556
68.970 28.087122
68.975 26.962214
68.980 27.185804
68.985 26.950548
68.990 26.904089
68.995 26.790617
69.000 27.494005
69.005 27.285185
69.010 27.416094
69.015 26.446848
69.020 26.302731
69.025 26.103022
69.030 25.643553
69.035 25.470974
69.040 25.854883
69.045 25.737862
69.050 25.970762
69.055 26.34252
69.060 25.974916
69.065 25.491446
69.070 24.943344
69.075 25.490316
69.080 26.490171
69.085 27.026905
69.090 26.609289
69.095 26.421724
69.100 26.716816
69.105 25.907812
69.110 25.316769
69.115 24.6812
69.120 23.71179
69.125 23.806301
69.130 23.659479
69.135 23.831371
69.140 23.829283
69.145 23.540312
69.150 23.04879
69.155 23.116457
69.160 22.646765
69.165 22.563448
69.170 22.252642
69.175 22.375105
69.180 22.089319
69.185 22.212456
69.190 21.511909
69.195 21.319149
69.200 21.634874
69.205 21.772148
69.210 21.310001
69.215 21.193617
69.220 20.829025
69.225 21.075544
69.230 20.732233
69.235 20.525061
69.240 20.141148
69.245 20.1635
69.250 20.018528
69.255 19.954271
69.260 20.355583
69.265 20.347219
69.270 20.115297
69.275 19.990358
69.280 20.208801
69.285 20.442799
69.290 20.367502
69.295 20.415516
69.300 20.603554
69.305 20.3878
69.310 20.296356
69.315 19.783627
69.320 20.011103
69.325 19.881641
69.330 19.668001
69.335 19.0527
69.340 18.759846
69.345 18.536604
69.350 18.529675
69.355 18.415867
69.360 18.340769
69.365 18.519949
69.370 18.56575
69.375 18.692371
69.380 19.355862
69.385 19.162508
69.390 19.256834
69.395 19.107763
69.400 18.823238
69.405 18.992037
69.410 19.356871
69.415 19.671057
69.420 19.803761
69.425 19.455173
69.430 19.992718
69.435 20.516138
69.440 20.733431
69.445 20.671555
69.450 20.075687
69.455 19.251644
69.460 19.367912
69.465 19.271036
69.470 18.763247
69.475 18.61491
69.480 18.814314
69.485 19.04752
69.490 19.791759
69.495 20.021254
69.500 19.662682
69.505 19.730928
69.510 19.207769
69.515 19.116159
69.520 19.09549
69.525 18.90803
69.530 18.554861
69.535 18.638741
69.540 18.773056
69.545 19.203339
69.550 19.469803
69.555 19.498556
69.560 20.125135
69.565 20.307632
69.570 19.988382
69.575 19.824537
69.580 19.322205
69.585 19.089764
69.590 18.72504
69.595 18.115732
69.600 17.970963
69.605 18.66534
69.610 19.055746
69.615 18.671707
69.620 17.911638
69.625 17.653555
69.630 17.479933
69.635 17.815474
69.640 17.622478
69.645 17.054337
69.650 17.343998
69.655 18.277325
69.660 18.658417
69.665 18.581688
69.670 18.471666
69.675 18.670362
69.680 19.301712
69.685 19.581558
69.690 19.242723
69.695 19.178017
69.700 19.249588
69.705 18.765724
69.710 18.607758
69.715 18.032801
69.720 17.492563
69.725 17.499943
69.730 17.824278
69.735 17.699865
69.740 17.709538
69.745 17.668266
69.750 17.811329
69.755 17.216328
69.760 17.532118
69.765 17.361151
69.770 17.655939
69.775 17.612474
69.780 17.420994
69.785 18.066891
69.790 18.763884
69.795 18.320137
69.800 18.456564
69.805 17.975351
69.810 18.269884
69.815 18.367575
69.820 18.108606
69.825 18.029238
69.830 18.611553
69.835 18.620234
69.840 18.692482
69.845 18.343046
69.850 18.323343
69.855 18.420151
69.860 18.083363
69.865 18.053545
69.870 18.440046
69.875 18.516356
69.880 18.750107
69.885 19.24365
69.890 19.229015
69.895 19.05517
69.900 18.598354
69.905 18.592224
69.910 19.501999
69.915 19.211151
69.920 18.542492
69.925 18.70817
69.930 19.204782
69.935 19.188559
69.940 18.907362
69.945 18.317764
69.950 18.811754
69.955 19.062618
69.960 18.851381
69.965 18.834709
69.970 18.589586
69.975 18.090689
69.980 17.991173
69.985 17.933472
69.990 17.957441
69.995 18.033983
70.000 18.659
70.005 19.571737
70.010 19.71343
70.015 19.732075
70.020 19.240576
70.025 19.349825
70.030 19.457657
70.035 18.671038
70.040 18.279327
70.045 18.707897
70.050 18.967875
70.055 18.846689
70.060 18.769039
70.065 18.584669
70.070 18.585371
70.075 18.276115
70.080 18.003912
70.085 17.828341
70.090 18.059706
70.095 17.712135
70.100 17.54878
70.105 17.333916
70.110 16.889208
70.115 16.617752
70.120 16.557947
70.125 16.317539
70.130 16.626413
70.135 17.46019
70.140 18.124434
70.145 18.852695
70.150 19.400784
70.155 19.40686
70.160 19.644226
70.165 19.58663
70.170 18.630342
70.175 18.723684
70.180 18.357649
70.185 18.268015
70.190 18.508017
70.195 18.502466
70.200 18.197372
70.205 18.27627
70.210 18.229124
70.215 18.713942
70.220 19.295414
70.225 19.483433
70.230 19.458742
70.235 19.615143
70.240 20.345329
70.245 20.537195
70.250 20.38545
70.255 19.716423
70.260 19.190353
70.265 19.025034
70.270 18.844044
70.275 18.695942
70.280 18.538656
70.285 18.208471
70.290 18.021679
70.295 18.024731
70.300 17.90963
70.305 17.815735
70.310 17.45743
70.315 17.101871
70.320 17.48295
70.325 17.575296
70.330 17.241468
70.335 17.067301
70.340 17.131357
70.345 17.211864
70.350 17.442902
70.355 16.941938
70.360 16.978439
70.365 17.742382
70.370 17.724709
70.375 17.707779
70.380 17.580683
70.385 17.210552
70.390 17.17815
70.395 17.163313
70.400 16.861776
70.405 16.405668
70.410 16.201912
70.415 16.330408
70.420 16.382244
70.425 16.325056
70.430 16.467117
70.435 17.106501
70.440 17.757645
70.445 17.307564
70.450 17.862888
70.455 18.50614
70.460 18.348717
70.465 17.993286
70.470 18.059565
70.475 18.455706
70.480 18.647961
70.485 18.087185
70.490 17.74029
70.495 18.326202
70.500 18.764751
70.505 18.538654
70.510 18.420048
70.515 18.233671
70.520 17.870914
70.525 17.811605
70.530 17.932976
70.535 17.967833
70.540 17.803606
70.545 17.92321
70.550 18.532349
70.555 18.975346
70.560 18.808018
70.565 18.627058
70.570 18.25028
70.575 18.563379
70.580 18.649244
70.585 18.201149
70.590 18.365608
70.595 18.755936
70.600 18.441654
70.605 18.374361
70.610 18.432781
70.615 18.380777
70.620 18.009846
70.625 17.3304
70.630 16.826797
70.635 17.077272
70.640 16.858986
70.645 16.570475
70.650 17.158194
70.655 17.50161
70.660 17.700195
70.665 18.193558
70.670 18.766005
70.675 18.863581
70.680 18.309282
70.685 18.140675
70.690 18.052471
70.695 18.664948
70.700 18.09951
70.705 17.599653
70.710 17.601637
70.715 17.891758
70.720 17.674776
70.725 17.67091
70.730 17.056982
70.735 17.502054
70.740 17.839302
70.745 17.552557
70.750 17.906336
70.755 17.510256
70.760 17.777542
70.765 18.176485
70.770 17.702963
70.775 17.93331
70.780 17.869726
70.785 17.31333
70.790 17.92421
70.795 17.984392
70.800 18.157747
70.805 18.052181
70.810 17.666529
70.815 17.7931
70.820 18.668344
70.825 18.250902
70.830 18.021564
70.835 17.911976
70.840 18.26182
70.845 18.38987
70.850 19.097364
70.855 18.70771
70.860 19.062222
70.865 19.278221
70.870 19.349895
70.875 19.740793
70.880 19.786488
70.885 19.297436
70.890 19.211691
70.895 19.127329
70.900 19.109196
70.905 19.349224
70.910 19.004124
70.915 18.542757
70.920 18.121618
70.925 18.194654
70.930 18.134468
70.935 18.002388
70.940 17.583559
70.945 17.646765
70.950 17.907894
70.955 17.857323
70.960 18.031139
70.965 17.555498
70.970 17.792841
70.975 17.588932
70.980 17.533775
70.985 17.967484
70.990 18.088337
70.995 18.265642
71.000 18.610348
71.005 18.912931
71.010 19.09767
71.015 19.277845
71.020 18.712881
71.025 18.306738
71.030 17.853769
71.035 17.345955
71.040 17.037132
71.045 17.235598
71.050 17.016527
71.055 17.273119
71.060 17.661612
71.065 17.870388
71.070 17.944561
71.075 17.791502
71.080 18.305899
71.085 19.107813
71.090 19.138954
71.095 18.683487
71.100 17.756664
71.105 17.70789
71.110 17.816256
71.115 17.204311
71.120 16.967968
71.125 16.993845
71.130 17.464287
71.135 17.880386
71.140 18.114576
71.145 17.737553
71.150 17.716352
71.155 17.389572
71.160 17.264114
71.165 17.860794
71.170 18.049458
71.175 17.883615
71.180 17.919649
71.185 17.924129
71.190 18.598627
71.195 18.241879
71.200 18.296408
71.205 18.472603
71.210 18.827642
71.215 18.575169
71.220 18.447075
71.225 18.144579
71.230 18.122875
71.235 17.83145
71.240 17.894732
71.245 17.782967
71.250 18.366148
71.255 17.839014
71.260 17.82719
71.265 17.947901
71.270 17.28573
71.275 16.860167
71.280 16.865713
71.285 16.918659
71.290 17.327652
71.295 17.713219
71.300 17.787069
71.305 18.415876
71.310 18.889549
71.315 18.842505
71.320 18.495619
71.325 18.294544
71.330 17.429249
71.335 17.20405
71.340 16.86511
71.345 16.678423
71.350 16.181007
71.355 16.318041
71.360 16.654449
71.365 17.246681
71.370 17.566822
71.375 17.274588
71.380 16.931784
71.385 17.488659
71.390 17.402597
71.395 17.864286
71.400 18.471483
71.405 18.978867
71.410 19.54822
71.415 19.952312
71.420 19.878353
71.425 20.142206
71.430 19.310606
71.435 19.132889
71.440 18.621695
71.445 18.52389
71.450 19.033777
71.455 19.008694
71.460 18.986673
71.465 19.265936
71.470 18.44721
71.475 18.234722
71.480 18.142092
71.485 17.556782
71.490 17.312143
71.495 17.229364
71.500 17.004421
71.505 17.121521
71.510 17.170195
71.515 17.693363
71.520 18.183653
71.525 18.0511
71.530 17.252169
71.535 17.724318
71.540 17.909258
71.545 17.678442
71.550 17.50178
71.555 17.181736
71.560 17.920811
71.565 18.374065
71.570 18.323364
71.575 18.83243
71.580 18.314011
71.585 18.259682
71.590 18.242647
71.595 18.373251
71.600 18.879808
71.605 18.777393
71.610 18.387524
71.615 18.324984
71.620 18.279541
71.625 17.705849
71.630 17.729607
71.635 17.55463
71.640 17.37487
71.645 17.456305
71.650 17.286583
71.655 17.079741
71.660 17.183365
71.665 17.13032
71.670 17.096914
71.675 17.502457
71.680 17.864914
71.685 18.331898
71.690 18.759573
71.695 19.026421
71.700 18.789415
71.705 18.153166
71.710 18.181892
71.715 18.278267
71.720 18.139763
71.725 17.509068
71.730 16.806833
71.735 16.786333
71.740 17.215136
71.745 16.640942
71.750 16.72155
71.755 16.830212
71.760 17.434914
71.765 17.894388
71.770 18.238651
71.775 18.473566
71.780 18.774403
71.785 18.758076
71.790 18.824894
71.795 18.922956
71.800 19.065886
71.805 18.829872
71.810 19.199816
71.815 18.635836
71.820 18.086205
71.825 17.556145
71.830 17.215729
71.835 16.854776
71.840 17.282475
71.845 17.53603
71.850 17.771746
71.855 18.009722
71.860 18.310118
71.865 18.624197
71.870 18.464565
71.875 18.227932
71.880 18.486898
71.885 19.338987
71.890 19.084738
71.895 18.857635
71.900 18.797167
71.905 18.88385
71.910 18.288919
71.915 17.21534
71.920 16.868372
71.925 16.819265
71.930 16.642008
71.935 16.740417
71.940 16.503868
71.945 16.660265
71.950 17.380236
71.955 16.723429
71.960 16.842789
71.965 16.45295
71.970 16.611591
71.975 17.372713
71.980 17.573984
71.985 17.936142
71.990 18.362383
71.995 18.7862
72.000 19.051346
72.005 18.986189
72.010 19.030722
72.015 18.693821
72.020 18.544857
72.025 18.838148
72.030 19.008442
72.035 19.073029
72.040 18.71044
72.045 18.378523
72.050 18.193022
72.055 17.948748
72.060 17.242113
72.065 16.886623
72.070 16.891928
72.075 17.379843
72.080 18.418688
72.085 18.56942
72.090 18.907291
72.095 19.557362
72.100 19.857674
72.105 19.482435
72.110 18.862936
72.115 18.165806
72.120 18.195002
72.125 17.620895
72.130 17.448992
72.135 17.438396
72.140 17.457266
72.145 17.287676
72.150 17.446856
72.155 18.196798
72.160 17.987486
72.165 18.493671
72.170 18.543344
72.175 18.644197
72.180 19.076462
72.185 18.792719
72.190 18.779974
72.195 18.865892
72.200 18.200527
72.205 17.803419
72.210 17.791553
72.215 16.988091
72.220 16.670116
72.225 16.602461
72.230 16.818287
72.235 17.537167
72.240 18.178556
72.245 18.421963
72.250 18.641525
72.255 18.688894
72.260 18.671635
72.265 18.728519
72.270 18.124687
72.275 17.93906
72.280 17.784311
72.285 17.601645
72.290 17.782566
72.295 17.904398
72.300 17.9387
72.305 17.819698
72.310 17.761971
72.315 18.148903
72.320 18.407568
72.325 18.50131
72.330 18.330137
72.335 18.969196
72.340 18.802599
72.345 19.060352
72.350 19.226221
72.355 19.269352
72.360 19.185934
72.365 19.259441
72.370 18.938057
72.375 19.13748
72.380 18.975096
72.385 18.517963
72.390 17.923988
72.395 17.762695
72.400 17.578491
72.405 17.773352
72.410 17.472231
72.415 17.392643
72.420 17.52186
72.425 17.425369
72.430 17.403622
72.435 16.89744
72.440 16.640783
72.445 16.688719
72.450 16.745415
72.455 16.412264
72.460 16.84347
72.465 16.993435
72.470 17.024929
72.475 17.114016
72.480 16.887819
72.485 16.761875
72.490 16.745718
72.495 16.237627
72.500 16.314688
72.505 16.255642
72.510 16.379246
72.515 16.884373
72.520 17.723692
72.525 18.743473
72.530 18.471504
72.535 18.023363
72.540 17.979599
72.545 17.790289
72.550 17.090988
72.555 16.335556
72.560 16.0373
72.565 16.143272
72.570 16.336218
72.575 16.972939
72.580 17.272327
72.585 17.504217
72.590 17.220722
72.595 17.169886
72.600 17.636135
72.605 17.371628
72.610 16.790512
72.615 16.738695
72.620 17.167076
72.625 17.405453
72.630 17.540686
72.635 17.625589
72.640 17.833729
72.645 17.739222
72.650 17.547905
72.655 17.179684
72.660 17.204308
72.665 16.974081
72.670 17.010691
72.675 17.628004
72.680 17.720453
72.685 18.034657
72.690 18.198471
72.695 18.328894
72.700 18.227047
72.705 18.014803
72.710 17.330271
72.715 17.125076
72.720 17.117033
72.725 17.377817
72.730 17.103466
72.735 16.92222
72.740 17.376711
72.745 17.571194
72.750 17.831789
72.755 17.947952
72.760 18.069754
72.765 18.570578
72.770 18.031723
72.775 17.79973
72.780 17.800943
72.785 17.330824
72.790 16.68285
72.795 16.38361
72.800 16.784105
72.805 16.792866
72.810 16.389482
72.815 16.347494
72.820 16.434439
72.825 16.838118
72.830 16.080437
72.835 16.217161
72.840 16.769451
72.845 17.210052
72.850 16.992773
72.855 16.514492
72.860 16.193871
72.865 16.1565
72.870 15.72566
72.875 15.446598
72.880 15.664053
72.885 16.012135
72.890 16.230595
72.895 16.894777
72.900 17.446308
72.905 17.332073
72.910 17.220676
72.915 17.264023
72.920 17.621387
72.925 18.466803
72.930 18.358168
72.935 17.906368
72.940 18.22576
72.945 18.139174
72.950 17.972389
72.955 18.093388
72.960 17.410425
72.965 17.726059
72.970 17.436247
72.975 17.872509
72.980 18.130999
72.985 17.818245
72.990 17.479717
72.995 16.972782
73.000 16.920572
