!@!!GADDS PLOTSO FILE: Chi integration type
!@!!Title/SampleName: map-7d
!@!!Comment: ?
!@!!User: Bruker Instrument Administrator
!@!!Site: University of Illinois Chicago
!@!!Frame: map-7d_01_000.gfrm
!@!!Wavelengths    1.54184   1.54056   1.54439
!@!!Frame angles: 2Theta: 63.000 Omega: 50.000 Phi: 0.000 Chi: 90.000
!@!!Integration range: 2Theta: 53.000 to 73.000  Gamma: -105.000 to -75.000
!@!!Integration method: bin normalized
!@!N
!@!SS
!@!M
!@!L 0.0 0.0 0.0 0.0
!@!XDegrees
!@!YCounts
53.000 5.640163
53.005 5.406415
53.010 5.604537
53.015 5.722436
53.020 5.547382
53.025 5.583405
53.030 5.603465
53.035 6.267045
53.040 6.541145
53.045 6.59757
53.050 6.748479
53.055 6.745311
53.060 6.977474
53.065 7.18444
53.070 7.052375
53.075 7.074838
53.080 7.25042
53.085 7.966476
53.090 8.443536
53.095 8.655276
53.100 8.570539
53.105 8.797078
53.110 9.055399
53.115 9.039721
53.120 8.730933
53.125 8.054548
53.130 7.117797
53.135 6.743824
53.140 6.46601
53.145 5.845446
53.150 5.000692
53.155 4.961957
53.160 5.811989
53.165 6.639916
53.170 6.950441
53.175 7.16186
53.180 7.596648
53.185 7.842216
53.190 7.657444
53.195 7.219311
53.200 7.205942
53.205 6.958375
53.210 6.772939
53.215 6.796142
53.220 6.870569
53.225 6.722516
53.230 6.565957
53.235 6.434344
53.240 6.524948
53.245 6.552124
53.250 6.18333
53.255 6.546338
53.260 6.954439
53.265 6.94138
53.270 7.071714
53.275 7.253514
53.280 7.296802
53.285 7.218293
53.290 6.757746
53.295 6.614411
53.300 6.492386
53.305 6.262815
53.310 6.119221
53.315 6.131962
53.320 6.482278
53.325 6.807786
53.330 6.637331
53.335 6.797082
53.340 6.80668
53.345 6.610463
53.350 6.717034
53.355 6.676622
53.360 6.803477
53.365 7.146168
53.370 7.555199
53.375 8.086428
53.380 8.33757
53.385 8.177778
53.390 7.864577
53.395 7.564116
53.400 7.595725
53.405 7.585936
53.410 7.119499
53.415 6.987953
53.420 7.031302
53.425 7.241462
53.430 7.314687
53.435 7.160479
53.440 6.951677
53.445 7.275158
53.450 7.632929
53.455 8.131245
53.460 8.631208
53.465 9.066556
53.470 9.129255
53.475 9.202073
53.480 9.236184
53.485 9.1851
53.490 8.720595
53.495 8.124646
53.500 7.635819
53.505 7.300447
53.510 7.627695
53.515 7.551687
53.520 7.108882
53.525 7.315287
53.530 7.57848
53.535 8.011791
53.540 7.889822
53.545 7.735476
53.550 7.96901
53.555 7.894891
53.560 7.635282
53.565 7.319934
53.570 7.133514
53.575 7.295556
53.580 7.251067
53.585 7.112406
53.590 7.071142
53.595 6.927957
53.600 7.063666
53.605 7.502719
53.610 7.535473
53.615 7.482686
53.620 7.574175
53.625 8.083539
53.630 8.561206
53.635 8.761675
53.640 8.176238
53.645 8.097284
53.650 8.143588
53.655 7.91039
53.660 7.304184
53.665 7.055539
53.670 6.540594
53.675 6.40379
53.680 6.499035
53.685 6.879461
53.690 7.582164
53.695 7.606407
53.700 7.561307
53.705 7.919626
53.710 8.185052
53.715 8.125714
53.720 7.948753
53.725 8.08363
53.730 8.366323
53.735 8.327037
53.740 8.198808
53.745 8.396864
53.750 8.464525
53.755 8.037009
53.760 7.615398
53.765 8.170167
53.770 8.42456
53.775 8.506682
53.780 8.544693
53.785 8.889884
53.790 9.191053
53.795 9.051216
53.800 8.844524
53.805 9.388774
53.810 9.410298
53.815 9.227806
53.820 9.128059
53.825 9.208636
53.830 9.404595
53.835 9.009445
53.840 8.498104
53.845 8.341258
53.850 8.086568
53.855 7.832087
53.860 7.891687
53.865 7.862203
53.870 7.901904
53.875 7.748751
53.880 7.567462
53.885 7.860813
53.890 7.932464
53.895 7.931838
53.900 7.527407
53.905 7.796105
53.910 7.843786
53.915 7.863157
53.920 7.845165
53.925 7.540079
53.930 7.431816
53.935 7.459445
53.940 7.199624
53.945 7.659461
53.950 7.537034
53.955 7.223115
53.960 7.5068
53.965 7.717093
53.970 7.888985
53.975 7.93507
53.980 7.847304
53.985 8.069714
53.990 8.326448
53.995 8.512303
54.000 8.2692
54.005 8.41737
54.010 8.320534
54.015 8.294215
54.020 8.124398
54.025 8.098843
54.030 8.168057
54.035 8.266424
54.040 7.763567
54.045 7.506807
54.050 7.700028
54.055 8.007997
54.060 7.967965
54.065 7.991928
54.070 8.013441
54.075 8.322688
54.080 8.669806
54.085 8.659427
54.090 8.685332
54.095 9.113447
54.100 9.080241
54.105 9.304523
54.110 9.359603
54.115 9.306248
54.120 8.962836
54.125 8.660268
54.130 7.981257
54.135 8.144232
54.140 8.265983
54.145 7.938582
54.150 8.13496
54.155 8.210649
54.160 8.076973
54.165 8.383658
54.170 7.980821
54.175 7.785056
54.180 7.998234
54.185 7.880693
54.190 7.748481
54.195 7.968853
54.200 7.960712
54.205 8.096205
54.210 7.872517
54.215 7.71458
54.220 7.660338
54.225 8.145784
54.230 8.511208
54.235 8.731001
54.240 8.887288
54.245 9.557796
54.250 9.666112
54.255 9.382384
54.260 9.305099
54.265 9.05172
54.270 9.284689
54.275 9.777445
54.280 9.650028
54.285 9.719182
54.290 9.946692
54.295 9.524675
54.300 8.965415
54.305 8.328358
54.310 8.132312
54.315 8.336985
54.320 8.528023
54.325 8.724596
54.330 9.376294
54.335 9.688751
54.340 9.759211
54.345 9.325784
54.350 9.371305
54.355 9.371812
54.360 9.203178
54.365 8.966971
54.370 9.142033
54.375 9.299328
54.380 8.747408
54.385 8.147983
54.390 8.33905
54.395 8.595192
54.400 9.04754
54.405 9.020385
54.410 8.885209
54.415 9.269361
54.420 9.168388
54.425 9.164393
54.430 8.955328
54.435 8.696297
54.440 9.02015
54.445 9.362577
54.450 9.890785
54.455 10.109564
54.460 9.89543
54.465 9.438652
54.470 8.908313
54.475 8.381311
54.480 8.162691
54.485 7.567435
54.490 7.255794
54.495 7.127874
54.500 7.19877
54.505 7.230803
54.510 7.961257
54.515 7.880235
54.520 8.171554
54.525 8.232804
54.530 8.117508
54.535 8.016229
54.540 8.000172
54.545 7.756292
54.550 7.745659
54.555 7.969358
54.560 8.306899
54.565 8.576452
54.570 8.768484
54.575 8.472797
54.580 8.771508
54.585 9.498329
54.590 9.454766
54.595 9.273293
54.600 8.973249
54.605 9.335962
54.610 9.351699
54.615 9.15104
54.620 8.338867
54.625 8.458423
54.630 8.86978
54.635 9.393148
54.640 9.010637
54.645 8.705216
54.650 8.360639
54.655 8.57261
54.660 8.394357
54.665 8.148016
54.670 8.031109
54.675 7.731489
54.680 7.696055
54.685 7.829115
54.690 7.729239
54.695 7.540701
54.700 7.683569
54.705 8.162848
54.710 9.004676
54.715 9.537207
54.720 9.481502
54.725 9.563049
54.730 9.852197
54.735 9.443454
54.740 8.950665
54.745 8.694448
54.750 8.568224
54.755 8.865993
54.760 8.997831
54.765 8.769408
54.770 8.895145
54.775 8.828141
54.780 8.971285
54.785 9.387936
54.790 9.352031
54.795 9.270277
54.800 9.256319
54.805 9.469134
54.810 9.759829
54.815 9.721394
54.820 9.486264
54.825 9.54886
54.830 9.474524
54.835 9.56685
54.840 9.343118
54.845 9.235798
54.850 9.146026
54.855 9.293392
54.860 9.682827
54.865 10.166535
54.870 10.206023
54.875 10.173461
54.880 10.333813
54.885 10.230844
54.890 9.796453
54.895 9.319525
54.900 8.931475
54.905 9.195992
54.910 9.203815
54.915 8.797764
54.920 8.696745
54.925 8.833656
54.930 9.039444
54.935 9.177753
54.940 9.437078
54.945 9.827873
54.950 10.288951
54.955 10.327813
54.960 10.18515
54.965 9.995239
54.970 9.859771
54.975 9.654274
54.980 9.784485
54.985 9.569971
54.990 9.762587
54.995 9.836862
55.000 10.252584
55.005 10.342334
55.010 10.131165
55.015 10.060219
55.020 10.306327
55.025 10.220959
55.030 10.120652
55.035 9.940989
55.040 9.440447
55.045 9.307969
55.050 9.407023
55.055 9.261582
55.060 9.488541
55.065 9.496427
55.070 9.685809
55.075 10.173289
55.080 10.188912
55.085 9.715967
55.090 9.259211
55.095 9.161071
55.100 9.066316
55.105 9.137888
55.110 8.974032
55.115 9.137968
55.120 9.119897
55.125 9.065554
55.130 8.870207
55.135 8.887024
55.140 8.946102
55.145 8.958371
55.150 8.940421
55.155 9.755838
55.160 10.473434
55.165 10.685298
55.170 10.264689
55.175 9.925687
55.180 9.606546
55.185 9.632093
55.190 9.34408
55.195 9.055558
55.200 9.124914
55.205 9.524461
55.210 9.311505
55.215 9.85113
55.220 9.957659
55.225 9.821037
55.230 10.118103
55.235 10.499697
55.240 10.734319
55.245 10.919768
55.250 10.482425
55.255 10.438281
55.260 10.307306
55.265 9.844418
55.270 9.146681
55.275 8.947803
55.280 8.992257
55.285 8.855148
55.290 8.78491
55.295 8.885764
55.300 9.072687
55.305 8.914509
55.310 9.19527
55.315 9.176873
55.320 9.656047
55.325 9.683712
55.330 9.304493
55.335 9.021125
55.340 9.033929
55.345 8.515972
55.350 8.150255
55.355 8.030777
55.360 8.414727
55.365 8.749059
55.370 9.051786
55.375 9.327689
55.380 9.752654
55.385 9.771856
55.390 9.445101
55.395 9.404603
55.400 9.074457
55.405 9.551157
55.410 9.35432
55.415 9.340906
55.420 9.405825
55.425 9.153441
55.430 9.159066
55.435 9.377917
55.440 9.278645
55.445 9.813341
55.450 10.186867
55.455 10.132423
55.460 10.346231
55.465 10.729544
55.470 10.731764
55.475 10.941168
55.480 10.816123
55.485 10.564317
55.490 10.80215
55.495 10.842515
55.500 10.140472
55.505 9.89605
55.510 9.868687
55.515 9.753056
55.520 10.104397
55.525 10.303216
55.530 10.084949
55.535 10.294012
55.540 10.245901
55.545 10.337764
55.550 10.332259
55.555 10.215391
55.560 9.849887
55.565 10.145219
55.570 10.607565
55.575 10.578251
55.580 10.16475
55.585 10.405513
55.590 10.675242
55.595 10.848869
55.600 10.875783
55.605 10.561745
55.610 10.555195
55.615 10.649508
55.620 10.000168
55.625 9.762428
55.630 9.49249
55.635 9.270918
55.640 9.667683
55.645 9.653522
55.650 9.812307
55.655 10.060212
55.660 9.659814
55.665 9.732436
55.670 9.302895
55.675 9.313848
55.680 9.756169
55.685 9.716288
55.690 9.604457
55.695 9.580947
55.700 9.826346
55.705 10.059218
55.710 9.603264
55.715 9.081461
55.720 8.919588
55.725 9.195768
55.730 9.717369
55.735 10.185218
55.740 10.391505
55.745 11.27931
55.750 11.720387
55.755 12.102627
55.760 11.854567
55.765 11.450521
55.770 10.868447
55.775 10.548092
55.780 9.788214
55.785 9.562969
55.790 9.383233
55.795 9.282399
55.800 9.147802
55.805 9.317444
55.810 9.840433
55.815 10.350596
55.820 10.842954
55.825 11.036423
55.830 11.049991
55.835 11.925002
55.840 12.140323
55.845 11.625279
55.850 11.162457
55.855 10.983067
55.860 10.932235
55.865 11.024019
55.870 10.118405
55.875 10.006233
55.880 10.368546
55.885 10.376859
55.890 10.751841
55.895 11.335596
55.900 11.19521
55.905 11.439973
55.910 11.582358
55.915 11.683874
55.920 11.742404
55.925 11.658851
55.930 11.432045
55.935 12.156217
55.940 12.541249
55.945 12.629153
55.950 12.231752
55.955 12.221239
55.960 11.826475
55.965 11.595558
55.970 11.079552
55.975 10.522392
55.980 10.261851
55.985 10.511233
55.990 10.025219
55.995 9.74953
56.000 9.572667
56.005 9.81517
56.010 10.154963
56.015 10.162757
56.020 10.021482
56.025 10.442821
56.030 11.086547
56.035 11.441141
56.040 11.258932
56.045 11.127717
56.050 11.158068
56.055 11.259691
56.060 10.762505
56.065 10.41012
56.070 10.05065
56.075 10.015534
56.080 9.917647
56.085 10.10855
56.090 10.316376
56.095 11.258542
56.100 11.567174
56.105 11.440001
56.110 11.10193
56.115 11.110863
56.120 11.106483
56.125 10.798814
56.130 10.085147
56.135 9.851914
56.140 10.025169
56.145 10.203336
56.150 10.537601
56.155 10.59155
56.160 10.709251
56.165 10.756535
56.170 11.106362
56.175 11.139223
56.180 11.127283
56.185 10.542217
56.190 10.611146
56.195 10.383026
56.200 10.15946
56.205 9.587557
56.210 9.570846
56.215 10.197185
56.220 10.475429
56.225 10.235741
56.230 10.911647
56.235 11.03269
56.240 11.596307
56.245 11.578367
56.250 11.694789
56.255 11.722297
56.260 11.755596
56.265 11.598757
56.270 11.496592
56.275 11.10701
56.280 10.839323
56.285 10.514392
56.290 10.646418
56.295 10.631715
56.300 10.372195
56.305 10.856199
56.310 10.976174
56.315 10.408866
56.320 10.171436
56.325 9.682167
56.330 9.979738
56.335 10.09301
56.340 9.745327
56.345 10.021546
56.350 10.567144
56.355 10.853828
56.360 11.403085
56.365 11.429087
56.370 11.584723
56.375 11.874697
56.380 12.170988
56.385 12.396828
56.390 11.967045
56.395 11.367703
56.400 10.811376
56.405 10.578469
56.410 10.38464
56.415 10.297224
56.420 10.250527
56.425 10.558159
56.430 11.082973
56.435 11.215237
56.440 11.391938
56.445 11.084496
56.450 10.677341
56.455 11.083476
56.460 10.917731
56.465 10.827332
56.470 10.874487
56.475 11.154214
56.480 11.247971
56.485 11.052723
56.490 11.039646
56.495 10.688807
56.500 10.461368
56.505 10.595192
56.510 10.371872
56.515 10.493455
56.520 11.019877
56.525 10.906765
56.530 11.505473
56.535 11.472814
56.540 11.208057
56.545 11.599232
56.550 11.657189
56.555 11.529036
56.560 11.320851
56.565 10.966042
56.570 11.105282
56.575 11.286863
56.580 11.027079
56.585 10.915606
56.590 10.662706
56.595 11.042322
56.600 11.269517
56.605 10.93714
56.610 10.633474
56.615 10.901288
56.620 11.134492
56.625 11.779366
56.630 11.603261
56.635 11.663384
56.640 11.85381
56.645 11.62323
56.650 11.564477
56.655 11.478611
56.660 10.837985
56.665 10.725354
56.670 10.711515
56.675 10.673558
56.680 10.66608
56.685 10.476393
56.690 10.344769
56.695 10.419135
56.700 10.188507
56.705 10.235803
56.710 10.845326
56.715 11.253118
56.720 11.904578
56.725 12.462808
56.730 12.462035
56.735 13.187573
56.740 13.179944
56.745 12.723348
56.750 12.507173
56.755 12.006896
56.760 11.941703
56.765 11.840649
56.770 11.480328
56.775 11.746577
56.780 12.10061
56.785 12.047403
56.790 12.13735
56.795 12.03395
56.800 12.214762
56.805 12.196484
56.810 11.829166
56.815 12.102262
56.820 11.908316
56.825 11.770056
56.830 12.13229
56.835 12.090195
56.840 12.136604
56.845 12.069084
56.850 12.22733
56.855 12.264527
56.860 12.02897
56.865 11.37984
56.870 11.567337
56.875 11.723388
56.880 11.376065
56.885 11.053734
56.890 11.550006
56.895 11.757386
56.900 11.993168
56.905 12.082734
56.910 12.366216
56.915 12.765862
56.920 12.635221
56.925 12.724216
56.930 12.916603
56.935 12.698545
56.940 12.320391
56.945 12.171906
56.950 11.813967
56.955 11.870559
56.960 11.663959
56.965 11.686665
56.970 12.324656
56.975 12.413161
56.980 12.197608
56.985 12.287529
56.990 12.053792
56.995 12.045024
57.000 12.072333
57.005 11.915619
57.010 11.83228
57.015 12.284621
57.020 12.292459
57.025 12.33544
57.030 12.399149
57.035 12.474318
57.040 12.461691
57.045 13.089697
57.050 12.831568
57.055 12.597828
57.060 12.315195
57.065 12.334328
57.070 12.160265
57.075 12.143221
57.080 11.999879
57.085 12.291629
57.090 12.380322
57.095 11.913242
57.100 11.553805
57.105 11.470411
57.110 11.240786
57.115 10.681006
57.120 10.672058
57.125 11.1301
57.130 11.810366
57.135 11.796178
57.140 11.999061
57.145 11.854894
57.150 12.034627
57.155 12.773705
57.160 12.505224
57.165 13.002754
57.170 13.473023
57.175 13.534897
57.180 13.710362
57.185 13.292081
57.190 12.883592
57.195 13.057071
57.200 12.421873
57.205 12.018977
57.210 12.105228
57.215 11.843995
57.220 11.764167
57.225 11.529251
57.230 11.399115
57.235 11.416954
57.240 11.741064
57.245 11.654729
57.250 11.781289
57.255 11.985608
57.260 11.990865
57.265 11.654735
57.270 11.354842
57.275 11.568784
57.280 12.00598
57.285 11.955001
57.290 11.938087
57.295 12.175364
57.300 12.726649
57.305 12.80509
57.310 12.472197
57.315 12.627793
57.320 12.870747
57.325 12.77501
57.330 12.400845
57.335 12.35469
57.340 12.375546
57.345 11.746173
57.350 11.637987
57.355 11.450686
57.360 11.376732
57.365 11.846385
57.370 11.732791
57.375 12.021088
57.380 12.491703
57.385 12.084249
57.390 11.761907
57.395 11.610864
57.400 11.429475
57.405 11.352726
57.410 11.262261
57.415 11.3217
57.420 11.691462
57.425 12.445193
57.430 12.409336
57.435 12.289106
57.440 12.774824
57.445 13.018667
57.450 12.876719
57.455 12.597134
57.460 12.333693
57.465 12.774961
57.470 12.870776
57.475 12.637745
57.480 12.922216
57.485 13.402775
57.490 14.034961
57.495 14.578576
57.500 14.309422
57.505 13.981718
57.510 13.511131
57.515 13.055983
57.520 12.857313
57.525 12.5309
57.530 11.967547
57.535 11.902029
57.540 11.853103
57.545 11.997988
57.550 11.666272
57.555 11.623024
57.560 11.683642
57.565 11.448604
57.570 11.681385
57.575 12.047044
57.580 11.798474
57.585 11.585754
57.590 11.656664
57.595 12.591323
57.600 13.391667
57.605 13.111363
57.610 12.837661
57.615 13.007605
57.620 13.43047
57.625 13.14275
57.630 12.505682
57.635 12.285558
57.640 12.418898
57.645 13.077107
57.650 13.480709
57.655 13.35002
57.660 13.056228
57.665 12.829102
57.670 12.517036
57.675 12.707443
57.680 12.472411
57.685 12.173769
57.690 12.612424
57.695 12.768719
57.700 13.10383
57.705 13.719323
57.710 13.693095
57.715 13.345778
57.720 13.693407
57.725 13.191883
57.730 13.657102
57.735 13.707057
57.740 13.599689
57.745 13.585231
57.750 13.495971
57.755 13.366123
57.760 13.461524
57.765 13.181732
57.770 13.167802
57.775 13.336901
57.780 13.463182
57.785 13.638097
57.790 13.731723
57.795 13.750854
57.800 13.895928
57.805 13.786777
57.810 13.358796
57.815 13.827971
57.820 14.059641
57.825 13.719825
57.830 13.640277
57.835 13.200484
57.840 12.929438
57.845 13.052968
57.850 12.84838
57.855 12.914952
57.860 13.182695
57.865 12.963605
57.870 13.025384
57.875 13.044549
57.880 13.194895
57.885 13.208733
57.890 13.441174
57.895 13.497725
57.900 13.396511
57.905 13.872386
57.910 14.296819
57.915 14.020376
57.920 13.791206
57.925 13.50621
57.930 13.297175
57.935 13.726357
57.940 13.187269
57.945 13.025375
57.950 13.133057
57.955 13.243783
57.960 13.070814
57.965 13.173478
57.970 13.910904
57.975 14.244345
57.980 14.458315
57.985 14.54884
57.990 14.576837
57.995 14.120061
58.000 14.046908
58.005 13.686271
58.010 13.59128
58.015 13.146982
58.020 12.743257
58.025 13.103036
58.030 13.858324
58.035 13.561856
58.040 13.888991
58.045 13.605606
58.050 13.626558
58.055 14.142617
58.060 13.81437
58.065 14.140724
58.070 14.236415
58.075 13.928515
58.080 14.279592
58.085 14.438089
58.090 14.182949
58.095 13.823932
58.100 13.572061
58.105 14.463482
58.110 14.244203
58.115 14.60754
58.120 14.59144
58.125 14.510897
58.130 14.730345
58.135 14.839742
58.140 14.409704
58.145 14.534717
58.150 13.613395
58.155 13.520168
58.160 13.635358
58.165 14.026213
58.170 13.936712
58.175 13.621614
58.180 13.693824
58.185 13.659691
58.190 13.670312
58.195 13.297631
58.200 13.264867
58.205 13.16692
58.210 13.102731
58.215 12.828706
58.220 13.604878
58.225 14.058228
58.230 13.960773
58.235 13.342715
58.240 13.094171
58.245 13.002842
58.250 12.732497
58.255 12.190504
58.260 11.791224
58.265 11.681569
58.270 12.042036
58.275 12.190144
58.280 12.339924
58.285 12.872184
58.290 13.056414
58.295 12.927932
58.300 13.039128
58.305 13.012071
58.310 13.091833
58.315 13.054181
58.320 12.429706
58.325 12.208169
58.330 12.725204
58.335 12.860022
58.340 12.866648
58.345 12.667229
58.350 12.40795
58.355 12.677656
58.360 13.097862
58.365 13.228111
58.370 13.185802
58.375 13.246816
58.380 13.240903
58.385 14.26577
58.390 14.407069
58.395 14.300563
58.400 14.455778
58.405 14.918672
58.410 14.310957
58.415 13.780738
58.420 13.173687
58.425 12.882334
58.430 12.99755
58.435 12.492311
58.440 11.713481
58.445 11.938511
58.450 12.30019
58.455 12.771319
58.460 12.847832
58.465 12.432706
58.470 12.246423
58.475 12.636532
58.480 12.897483
58.485 12.750458
58.490 12.24898
58.495 12.283365
58.500 12.393525
58.505 12.844485
58.510 13.366823
58.515 13.37825
58.520 13.597099
58.525 13.782867
58.530 13.992998
58.535 14.050824
58.540 14.123625
58.545 14.077088
58.550 14.390415
58.555 14.430614
58.560 14.325256
58.565 14.407558
58.570 14.184344
58.575 13.966692
58.580 13.107858
58.585 12.41549
58.590 12.701592
58.595 12.686931
58.600 12.884331
58.605 13.168656
58.610 13.155464
58.615 13.829024
58.620 13.847782
58.625 13.664193
58.630 13.558606
58.635 13.045721
58.640 13.383827
58.645 13.341569
58.650 13.083261
58.655 13.917806
58.660 14.280697
58.665 14.25928
58.670 14.356677
58.675 14.184911
58.680 14.589476
58.685 14.645837
58.690 14.154162
58.695 14.573661
58.700 14.681068
58.705 14.275414
58.710 13.339843
58.715 13.336784
58.720 13.243217
58.725 12.829605
58.730 12.298913
58.735 12.331564
58.740 13.615851
58.745 14.515788
58.750 14.443314
58.755 14.793036
58.760 15.259208
58.765 15.174135
58.770 14.778476
58.775 14.241728
58.780 14.055567
58.785 14.067811
58.790 13.991476
58.795 14.013653
58.800 14.466281
58.805 14.488532
58.810 14.441946
58.815 14.229803
58.820 13.716307
58.825 13.727171
58.830 13.64135
58.835 13.941932
58.840 14.372398
58.845 14.29708
58.850 14.062391
58.855 14.210273
58.860 13.953435
58.865 13.386715
58.870 13.468097
58.875 13.881312
58.880 13.888459
58.885 13.930551
58.890 14.305499
58.895 14.604273
58.900 15.098085
58.905 14.526091
58.910 14.369474
58.915 14.44253
58.920 14.560135
58.925 14.077311
58.930 14.118995
58.935 14.239361
58.940 14.28746
58.945 14.546085
58.950 14.740473
58.955 14.706083
58.960 15.042759
58.965 15.130087
58.970 14.742885
58.975 14.87807
58.980 14.876043
58.985 15.056874
58.990 14.869255
58.995 14.437864
59.000 14.273999
59.005 14.432548
59.010 13.764736
59.015 13.010034
59.020 12.892138
59.025 13.770885
59.030 14.075818
59.035 14.05477
59.040 14.868516
59.045 16.276752
59.050 16.508846
59.055 16.106295
59.060 15.828687
59.065 16.119871
59.070 16.038216
59.075 15.076603
59.080 14.475619
59.085 14.732677
59.090 14.863199
59.095 14.729877
59.100 14.788001
59.105 15.355047
59.110 15.41458
59.115 15.13464
59.120 15.008207
59.125 15.021134
59.130 14.789417
59.135 14.387747
59.140 13.869599
59.145 13.65271
59.150 13.714473
59.155 13.504773
59.160 14.078787
59.165 14.310026
59.170 14.909851
59.175 15.154868
59.180 15.765388
59.185 15.679227
59.190 15.83166
59.195 15.522657
59.200 15.480742
59.205 14.918075
59.210 14.744493
59.215 14.480253
59.220 14.473392
59.225 14.428534
59.230 14.064036
59.235 13.912974
59.240 13.85876
59.245 13.653915
59.250 13.563225
59.255 13.178776
59.260 12.834824
59.265 12.458209
59.270 12.84444
59.275 13.42638
59.280 13.119604
59.285 13.050884
59.290 13.38265
59.295 14.147305
59.300 14.872092
59.305 14.65907
59.310 14.706917
59.315 14.756697
59.320 14.669294
59.325 14.64712
59.330 14.115375
59.335 13.636111
59.340 13.758124
59.345 13.647526
59.350 13.786407
59.355 13.796281
59.360 14.354264
59.365 14.865376
59.370 14.924877
59.375 14.892685
59.380 14.903086
59.385 15.270635
59.390 15.584089
59.395 15.424323
59.400 15.659587
59.405 15.782079
59.410 15.317963
59.415 15.697891
59.420 15.758404
59.425 15.421572
59.430 15.334233
59.435 14.840024
59.440 14.714725
59.445 15.136621
59.450 14.602939
59.455 14.686328
59.460 14.764432
59.465 14.20348
59.470 14.093397
59.475 14.035907
59.480 13.850428
59.485 14.207157
59.490 14.348863
59.495 14.977813
59.500 15.667089
59.505 15.965083
59.510 16.027254
59.515 16.088238
59.520 15.97179
59.525 15.904725
59.530 15.632128
59.535 15.529779
59.540 15.492828
59.545 15.75923
59.550 15.618446
59.555 15.71711
59.560 15.689246
59.565 15.815212
59.570 16.060503
59.575 16.099173
59.580 15.625983
59.585 15.725761
59.590 15.767349
59.595 16.199085
59.600 16.173689
59.605 16.062008
59.610 16.496981
59.615 16.427389
59.620 16.59684
59.625 16.201775
59.630 15.415884
59.635 15.09983
59.640 14.700769
59.645 14.17366
59.650 14.392205
59.655 14.493677
59.660 14.477498
59.665 14.818299
59.670 15.344975
59.675 15.921764
59.680 16.113102
59.685 16.519997
59.690 16.489983
59.695 16.680153
59.700 16.919163
59.705 16.387863
59.710 16.163637
59.715 16.231894
59.720 16.221863
59.725 16.125626
59.730 15.851389
59.735 14.887702
59.740 15.523773
59.745 15.442739
59.750 15.480795
59.755 15.362659
59.760 15.359067
59.765 15.810923
59.770 16.523815
59.775 16.777945
59.780 16.768854
59.785 16.460112
59.790 16.550945
59.795 17.13817
59.800 17.679623
59.805 17.438427
59.810 16.915424
59.815 16.682552
59.820 16.867182
59.825 16.941416
59.830 16.567022
59.835 16.058134
59.840 16.477182
59.845 16.403555
59.850 16.502598
59.855 16.782373
59.860 16.258097
59.865 16.163553
59.870 16.148478
59.875 15.898898
59.880 16.244062
59.885 16.466387
59.890 16.949236
59.895 17.202446
59.900 17.356331
59.905 17.028368
59.910 16.705664
59.915 16.545567
59.920 16.131624
59.925 15.840886
59.930 15.848244
59.935 15.927659
59.940 16.419416
59.945 16.75869
59.950 17.134668
59.955 17.813133
59.960 17.867535
59.965 17.97106
59.970 18.002592
59.975 18.226103
59.980 18.609119
59.985 18.344954
59.990 18.101036
59.995 17.861599
60.000 17.905003
60.005 18.145826
60.010 18.365477
60.015 19.039284
60.020 19.136253
60.025 18.938511
60.030 19.086559
60.035 18.721416
60.040 18.211544
60.045 17.921516
60.050 17.479286
60.055 17.150349
60.060 17.468006
60.065 17.4923
60.070 17.910992
60.075 18.403692
60.080 18.389473
60.085 18.846983
60.090 19.894709
60.095 20.194986
60.100 20.611557
60.105 21.266329
60.110 20.857838
60.115 20.838722
60.120 20.503391
60.125 20.057178
60.130 19.969816
60.135 20.044144
60.140 19.805061
60.145 19.983788
60.150 20.1824
60.155 19.822905
60.160 19.683857
60.165 19.521578
60.170 19.385763
60.175 18.6194
60.180 18.869198
60.185 18.754862
60.190 18.586916
60.195 18.725233
60.200 18.820627
60.205 18.568817
60.210 19.024363
60.215 18.995773
60.220 18.922729
60.225 20.188246
60.230 20.120367
60.235 19.690731
60.240 19.584045
60.245 19.339642
60.250 19.465441
60.255 19.313919
60.260 18.692524
60.265 18.649706
60.270 18.622999
60.275 18.851582
60.280 19.750303
60.285 19.955614
60.290 19.98369
60.295 19.232061
60.300 19.917339
60.305 20.115294
60.310 20.236549
60.315 19.802299
60.320 19.43685
60.325 19.307335
60.330 19.325808
60.335 18.556637
60.340 18.254293
60.345 17.976053
60.350 18.007143
60.355 18.465885
60.360 19.175081
60.365 19.804689
60.370 20.483732
60.375 20.874027
60.380 21.200785
60.385 20.959743
60.390 20.102142
60.395 20.166786
60.400 20.139816
60.405 19.639025
60.410 19.735161
60.415 19.309256
60.420 19.519665
60.425 20.172419
60.430 20.331137
60.435 19.964609
60.440 19.792873
60.445 19.969017
60.450 19.742117
60.455 19.380163
60.460 19.098654
60.465 19.138163
60.470 19.642506
60.475 19.791357
60.480 19.487854
60.485 19.58379
60.490 19.24264
60.495 18.82024
60.500 18.559187
60.505 19.028162
60.510 19.444603
60.515 19.339533
60.520 19.278126
60.525 19.459126
60.530 19.663628
60.535 18.946396
60.540 18.578602
60.545 18.196304
60.550 18.280668
60.555 18.670979
60.560 18.796499
60.565 18.996965
60.570 19.3486
60.575 19.38722
60.580 19.158201
60.585 18.750343
60.590 18.670624
60.595 18.949919
60.600 19.31056
60.605 19.713596
60.610 19.734339
60.615 19.909628
60.620 20.353079
60.625 20.183144
60.630 19.961641
60.635 19.192305
60.640 18.265324
60.645 18.25559
60.650 18.647285
60.655 18.192396
60.660 18.200924
60.665 17.693645
60.670 17.977982
60.675 18.520266
60.680 18.213938
60.685 17.924904
60.690 17.953579
60.695 17.760283
60.700 17.857231
60.705 17.803963
60.710 17.367699
60.715 16.394485
60.720 16.458265
60.725 16.211121
60.730 15.772175
60.735 16.261284
60.740 16.729116
60.745 17.793156
60.750 18.618582
60.755 18.87669
60.760 19.261286
60.765 19.835405
60.770 19.169462
60.775 18.728664
60.780 18.417612
60.785 18.087927
60.790 17.787491
60.795 17.710146
60.800 17.975451
60.805 18.210133
60.810 18.33988
60.815 17.768925
60.820 17.458944
60.825 17.790857
60.830 17.709288
60.835 16.859077
60.840 16.953785
60.845 16.59741
60.850 17.210554
60.855 17.70969
60.860 17.395681
60.865 17.677589
60.870 17.794645
60.875 18.104195
60.880 18.257824
60.885 18.183758
60.890 18.110977
60.895 18.142368
60.900 17.782574
60.905 17.873354
60.910 17.579885
60.915 16.844654
60.920 15.965767
60.925 15.894587
60.930 16.289394
60.935 16.30344
60.940 16.450842
60.945 16.333944
60.950 16.645041
60.955 17.218113
60.960 17.260973
60.965 16.088982
60.970 15.776656
60.975 15.372536
60.980 16.107038
60.985 16.061419
60.990 15.620242
60.995 15.438849
61.000 16.079599
61.005 15.984375
61.010 16.091562
61.015 15.552925
61.020 15.874419
61.025 15.996741
61.030 16.117655
61.035 16.50312
61.040 16.966795
61.045 16.883068
61.050 16.871969
61.055 16.019247
61.060 15.549314
61.065 14.974581
61.070 14.497932
61.075 14.349387
61.080 14.368744
61.085 14.580575
61.090 14.928232
61.095 15.613577
61.100 16.194534
61.105 16.551195
61.110 17.201591
61.115 17.234085
61.120 17.137369
61.125 17.608385
61.130 17.425039
61.135 17.109327
61.140 16.781433
61.145 16.514221
61.150 16.039522
61.155 15.47926
61.160 14.682475
61.165 14.268124
61.170 14.531446
61.175 14.665085
61.180 14.223331
61.185 14.835515
61.190 15.535925
61.195 16.495754
61.200 17.142574
61.205 17.433638
61.210 17.652267
61.215 17.94108
61.220 17.654581
61.225 17.810474
61.230 17.527073
61.235 17.159126
61.240 16.507767
61.245 16.034784
61.250 16.190048
61.255 16.564352
61.260 17.025913
61.265 17.318903
61.270 17.464228
61.275 17.303308
61.280 17.447426
61.285 16.925291
61.290 16.504656
61.295 15.586268
61.300 15.614805
61.305 15.916549
61.310 16.195574
61.315 16.34614
61.320 16.613316
61.325 16.356228
61.330 16.086863
61.335 15.659464
61.340 15.40982
61.345 15.263887
61.350 15.456946
61.355 15.224949
61.360 15.958491
61.365 16.738169
61.370 16.272646
61.375 15.946766
61.380 15.776883
61.385 15.517216
61.390 15.737293
61.395 15.711298
61.400 14.997911
61.405 15.241538
61.410 15.856529
61.415 16.295858
61.420 16.515766
61.425 16.293001
61.430 15.768866
61.435 15.789124
61.440 15.457875
61.445 15.372212
61.450 15.349162
61.455 15.367328
61.460 15.237899
61.465 15.412754
61.470 15.589643
61.475 15.925533
61.480 16.15204
61.485 16.174801
61.490 15.88098
61.495 15.659089
61.500 15.456
61.505 15.142241
61.510 15.50841
61.515 15.3865
61.520 15.303433
61.525 15.900351
61.530 16.194702
61.535 16.792337
61.540 16.976013
61.545 16.380604
61.550 16.046225
61.555 16.186178
61.560 16.301023
61.565 16.71493
61.570 16.788176
61.575 17.471163
61.580 17.688776
61.585 17.959805
61.590 17.526091
61.595 17.458883
61.600 17.295885
61.605 17.419786
61.610 17.434057
61.615 17.499062
61.620 17.441694
61.625 17.431744
61.630 16.837484
61.635 16.592909
61.640 16.318438
61.645 16.00699
61.650 15.403643
61.655 15.417797
61.660 15.657234
61.665 15.943521
61.670 15.507905
61.675 15.191833
61.680 15.15775
61.685 15.413902
61.690 15.458167
61.695 15.278852
61.700 15.475371
61.705 15.814391
61.710 15.706371
61.715 15.911551
61.720 16.392189
61.725 16.264925
61.730 16.311588
61.735 16.200291
61.740 16.182692
61.745 16.397224
61.750 15.847817
61.755 15.200303
61.760 15.241941
61.765 15.206583
61.770 15.335485
61.775 15.255727
61.780 15.192712
61.785 15.892049
61.790 16.166548
61.795 16.190676
61.800 16.386415
61.805 16.507013
61.810 16.974474
61.815 17.023598
61.820 17.151958
61.825 17.045925
61.830 16.760849
61.835 16.623516
61.840 16.681974
61.845 16.67725
61.850 16.946669
61.855 16.295195
61.860 16.555405
61.865 17.078241
61.870 17.247839
61.875 17.146662
61.880 17.489651
61.885 17.37924
61.890 17.330114
61.895 17.04224
61.900 16.877464
61.905 16.453974
61.910 16.387068
61.915 16.051418
61.920 16.13349
61.925 16.544016
61.930 16.748821
61.935 17.365259
61.940 18.158075
61.945 18.089186
61.950 17.594746
61.955 17.67569
61.960 17.466057
61.965 17.145615
61.970 16.569403
61.975 16.310314
61.980 16.355305
61.985 16.154356
61.990 15.708145
61.995 15.533227
62.000 15.224833
62.005 15.317842
62.010 14.934083
62.015 15.213582
62.020 15.245476
62.025 15.716865
62.030 15.894032
62.035 16.41988
62.040 16.423634
62.045 16.160162
62.050 15.516989
62.055 15.420962
62.060 15.109862
62.065 14.65687
62.070 14.431579
62.075 14.364917
62.080 14.696451
62.085 14.905058
62.090 15.346085
62.095 15.161094
62.100 15.178331
62.105 14.754766
62.110 14.521181
62.115 14.9654
62.120 15.220383
62.125 15.308548
62.130 15.727938
62.135 16.049946
62.140 16.621635
62.145 16.441099
62.150 16.426552
62.155 16.419851
62.160 16.170979
62.165 15.975788
62.170 15.83523
62.175 15.430532
62.180 15.523062
62.185 15.2026
62.190 15.361295
62.195 15.700572
62.200 15.646971
62.205 15.565166
62.210 15.729205
62.215 15.932983
62.220 16.376448
62.225 16.259661
62.230 16.163576
62.235 16.19372
62.240 16.517454
62.245 16.784252
62.250 16.616457
62.255 15.514042
62.260 15.202163
62.265 15.290881
62.270 15.480544
62.275 16.090025
62.280 15.481575
62.285 15.727428
62.290 16.401976
62.295 16.219347
62.300 16.181049
62.305 15.731579
62.310 14.579621
62.315 14.694325
62.320 14.268059
62.325 14.413252
62.330 14.888505
62.335 15.152234
62.340 15.884108
62.345 15.965386
62.350 15.807051
62.355 16.052193
62.360 16.375309
62.365 16.686823
62.370 16.385166
62.375 16.307936
62.380 16.271885
62.385 16.173677
62.390 15.854206
62.395 15.575872
62.400 14.948004
62.405 14.838433
62.410 15.298499
62.415 15.695106
62.420 15.979722
62.425 16.113295
62.430 15.969532
62.435 16.360233
62.440 16.000072
62.445 15.409875
62.450 15.238807
62.455 15.459962
62.460 15.521581
62.465 15.414183
62.470 15.590394
62.475 16.30434
62.480 16.397907
62.485 16.362444
62.490 15.96988
62.495 16.073545
62.500 16.16485
62.505 15.987617
62.510 15.387774
62.515 14.568395
62.520 14.568563
62.525 14.783351
62.530 14.733315
62.535 14.767929
62.540 14.86512
62.545 15.302039
62.550 15.841772
62.555 15.925592
62.560 15.631054
62.565 15.344153
62.570 15.27352
62.575 15.239924
62.580 15.10968
62.585 14.97704
62.590 15.055784
62.595 15.396276
62.600 15.617939
62.605 15.794871
62.610 15.993355
62.615 15.845609
62.620 16.466038
62.625 16.869879
62.630 17.328917
62.635 17.29841
62.640 16.834417
62.645 16.419554
62.650 16.491329
62.655 16.152599
62.660 16.123756
62.665 15.57438
62.670 15.889435
62.675 16.366665
62.680 16.156782
62.685 15.758077
62.690 15.663373
62.695 14.810159
62.700 14.621241
62.705 14.322469
62.710 14.46287
62.715 15.157948
62.720 15.585662
62.725 15.986171
62.730 16.718925
62.735 16.813932
62.740 16.607975
62.745 16.691166
62.750 16.968437
62.755 17.172401
62.760 16.462585
62.765 16.17351
62.770 16.394754
62.775 16.540405
62.780 16.224283
62.785 15.665263
62.790 15.31708
62.795 15.512075
62.800 15.118159
62.805 14.983778
62.810 14.924294
62.815 15.004917
62.820 15.365877
62.825 15.595223
62.830 15.898252
62.835 15.809034
62.840 16.098663
62.845 16.520897
62.850 16.463184
62.855 16.332691
62.860 16.259661
62.865 16.15778
62.870 16.249537
62.875 15.911064
62.880 15.590901
62.885 15.534418
62.890 15.392925
62.895 15.382179
62.900 15.861119
62.905 16.031235
62.910 16.070848
62.915 15.998366
62.920 15.83323
62.925 15.78781
62.930 15.682757
62.935 15.853202
62.940 15.654094
62.945 15.556228
62.950 15.877105
62.955 15.985351
62.960 16.150385
62.965 16.45742
62.970 16.773643
62.975 17.763084
62.980 18.181561
62.985 18.488371
62.990 19.323431
62.995 19.426748
63.000 19.442537
63.005 18.932476
63.010 18.145536
63.015 18.31743
63.020 17.802084
63.025 16.879862
63.030 16.328785
63.035 16.13217
63.040 16.492271
63.045 17.266644
63.050 17.169651
63.055 17.126123
63.060 17.053131
63.065 17.356482
63.070 17.517864
63.075 17.179838
63.080 16.346552
63.085 15.91068
63.090 15.836167
63.095 15.863936
63.100 16.059908
63.105 16.344622
63.110 16.274845
63.115 16.623047
63.120 16.697298
63.125 17.248482
63.130 17.398359
63.135 16.979195
63.140 16.86758
63.145 17.879519
63.150 18.369383
63.155 18.725214
63.160 18.538465
63.165 18.791798
63.170 18.907465
63.175 18.264231
63.180 17.243679
63.185 16.921431
63.190 16.538773
63.195 16.307791
63.200 15.853801
63.205 15.859414
63.210 16.204784
63.215 16.242605
63.220 16.165695
63.225 16.656937
63.230 17.102533
63.235 17.61726
63.240 17.745201
63.245 17.12051
63.250 16.691166
63.255 16.56613
63.260 15.935356
63.265 15.210221
63.270 14.64467
63.275 14.655166
63.280 15.272683
63.285 15.045671
63.290 14.338096
63.295 14.770839
63.300 15.274721
63.305 15.47869
63.310 16.032341
63.315 16.082832
63.320 16.521832
63.325 16.549328
63.330 16.530186
63.335 17.188084
63.340 17.587521
63.345 17.213728
63.350 16.715904
63.355 16.75507
63.360 17.503023
63.365 17.470573
63.370 16.526646
63.375 16.248705
63.380 16.487112
63.385 16.43881
63.390 16.626225
63.395 16.486818
63.400 16.226755
63.405 16.751698
63.410 16.584518
63.415 16.427637
63.420 16.758493
63.425 16.475239
63.430 16.20159
63.435 16.974396
63.440 16.97728
63.445 17.272686
63.450 17.946989
63.455 17.733295
63.460 17.951183
63.465 17.838209
63.470 17.476036
63.475 17.381027
63.480 17.272903
63.485 16.899031
63.490 17.066999
63.495 17.185461
63.500 17.80744
63.505 17.881802
63.510 17.675591
63.515 17.358713
63.520 17.55328
63.525 17.643707
63.530 17.352177
63.535 17.131655
63.540 16.87023
63.545 17.302303
63.550 17.222792
63.555 16.616449
63.560 16.782614
63.565 17.023344
63.570 16.93428
63.575 16.268412
63.580 15.880286
63.585 16.266283
63.590 16.388113
63.595 16.246733
63.600 16.034908
63.605 16.006283
63.610 16.462379
63.615 16.543362
63.620 16.259245
63.625 16.085793
63.630 16.581833
63.635 17.153137
63.640 16.854219
63.645 17.134359
63.650 17.035131
63.655 17.151928
63.660 17.238146
63.665 17.155317
63.670 17.016937
63.675 17.454773
63.680 17.49791
63.685 17.83795
63.690 17.691278
63.695 17.366726
63.700 16.396458
63.705 16.373121
63.710 15.709914
63.715 15.239532
63.720 15.307632
63.725 15.302724
63.730 15.436278
63.735 15.886065
63.740 15.795399
63.745 16.267109
63.750 16.212452
63.755 15.934278
63.760 15.77927
63.765 15.867427
63.770 15.495088
63.775 15.220329
63.780 14.965227
63.785 14.961871
63.790 14.629084
63.795 14.557402
63.800 14.959134
63.805 15.359187
63.810 15.610081
63.815 16.199154
63.820 16.816227
63.825 17.872408
63.830 18.292294
63.835 18.278173
63.840 18.823368
63.845 19.291164
63.850 18.827875
63.855 18.44187
63.860 17.596331
63.865 17.455305
63.870 16.842417
63.875 16.15873
63.880 15.552181
63.885 15.726981
63.890 16.001848
63.895 16.282885
63.900 16.620478
63.905 17.224308
63.910 17.150806
63.915 17.043779
63.920 16.896717
63.925 16.657305
63.930 16.835701
63.935 16.496933
63.940 16.185888
63.945 16.36256
63.950 16.49321
63.955 16.849661
63.960 16.939547
63.965 17.157057
63.970 16.983496
63.975 17.023861
63.980 17.993921
63.985 18.804123
63.990 18.730755
63.995 19.061907
64.000 19.290916
64.005 20.295687
64.010 21.185492
64.015 20.458261
64.020 20.161409
64.025 20.189445
64.030 19.920145
64.035 19.868975
64.040 19.530598
64.045 18.942787
64.050 18.906052
64.055 18.14884
64.060 17.805227
64.065 18.1744
64.070 18.370167
64.075 18.010004
64.080 17.988846
64.085 18.095911
64.090 18.253052
64.095 17.894978
64.100 17.02924
64.105 16.812464
64.110 17.371771
64.115 17.388124
64.120 17.249269
64.125 17.727623
64.130 18.435675
64.135 19.057253
64.140 18.655558
64.145 18.002085
64.150 17.388912
64.155 17.624653
64.160 17.020994
64.165 16.555143
64.170 16.459187
64.175 16.659803
64.180 16.970388
64.185 17.779139
64.190 17.644112
64.195 17.717447
64.200 17.593687
64.205 17.621386
64.210 17.783413
64.215 17.507456
64.220 17.035042
64.225 17.17609
64.230 17.362585
64.235 17.605001
64.240 16.994614
64.245 17.07295
64.250 17.279364
64.255 17.545675
64.260 17.709261
64.265 17.601719
64.270 17.164242
64.275 17.533203
64.280 17.228722
64.285 17.475262
64.290 17.789265
64.295 17.394032
64.300 17.608868
64.305 17.819611
64.310 18.115856
64.315 18.190496
64.320 18.190588
64.325 17.826891
64.330 17.673014
64.335 17.245192
64.340 17.214478
64.345 16.926655
64.350 16.705044
64.355 16.690914
64.360 16.364773
64.365 16.43478
64.370 17.073196
64.375 17.023516
64.380 16.854895
64.385 16.859993
64.390 16.545778
64.395 16.68696
64.400 16.783405
64.405 16.261623
64.410 15.807138
64.415 15.975159
64.420 16.430801
64.425 17.09375
64.430 17.96114
64.435 18.37508
64.440 19.119818
64.445 20.280525
64.450 19.790438
64.455 19.155832
64.460 19.01025
64.465 18.401005
64.470 18.480913
64.475 17.638945
64.480 17.435608
64.485 17.681963
64.490 17.606283
64.495 17.669348
64.500 17.865435
64.505 17.956245
64.510 18.436714
64.515 18.230381
64.520 18.187748
64.525 18.064199
64.530 18.058935
64.535 18.219183
64.540 17.441484
64.545 17.332674
64.550 17.884441
64.555 18.436722
64.560 18.664944
64.565 18.983728
64.570 18.477011
64.575 19.039118
64.580 19.14592
64.585 18.988312
64.590 18.924189
64.595 18.966841
64.600 18.877832
64.605 18.628204
64.610 18.560194
64.615 18.402514
64.620 17.744297
64.625 17.469786
64.630 17.031885
64.635 16.854136
64.640 17.436903
64.645 17.968632
64.650 18.577328
64.655 19.561754
64.660 19.773815
64.665 19.90748
64.670 20.046541
64.675 20.315092
64.680 20.004065
64.685 19.552567
64.690 18.896492
64.695 18.71331
64.700 19.005991
64.705 19.048786
64.710 18.121582
64.715 17.910261
64.720 17.967636
64.725 18.335346
64.730 18.250208
64.735 17.883549
64.740 17.971025
64.745 18.097637
64.750 17.796787
64.755 17.908184
64.760 17.971704
64.765 18.913923
64.770 19.203854
64.775 18.943226
64.780 19.462317
64.785 20.281868
64.790 20.153561
64.795 20.664228
64.800 20.660477
64.805 20.538879
64.810 20.808294
64.815 20.100208
64.820 20.159487
64.825 19.854708
64.830 19.262264
64.835 18.740416
64.840 18.767632
64.845 18.777544
64.850 19.209656
64.855 18.564505
64.860 18.647486
64.865 18.78236
64.870 18.972778
64.875 18.548292
64.880 18.405016
64.885 17.811087
64.890 18.106596
64.895 17.900581
64.900 17.584177
64.905 17.597517
64.910 17.982145
64.915 17.945116
64.920 18.463961
64.925 18.025316
64.930 18.23934
64.935 17.966446
64.940 17.815699
64.945 18.181372
64.950 18.604414
64.955 19.042738
64.960 19.669876
64.965 19.722118
64.970 19.93634
64.975 19.473108
64.980 18.965109
64.985 18.434204
64.990 18.155678
64.995 18.147053
65.000 18.269314
65.005 18.417149
65.010 18.601639
65.015 19.109245
65.020 19.528318
65.025 19.764248
65.030 19.454433
65.035 19.567095
65.040 19.962751
65.045 20.827894
65.050 21.10096
65.055 21.690567
65.060 21.549349
65.065 21.155548
65.070 20.799887
65.075 20.469542
65.080 19.921625
65.085 19.556374
65.090 19.390097
65.095 19.607227
65.100 20.040756
65.105 20.594847
65.110 20.675192
65.115 20.402769
65.120 19.969372
65.125 19.999683
65.130 19.803322
65.135 20.429804
65.140 20.582832
65.145 20.487894
65.150 21.082949
65.155 21.43935
65.160 21.227358
65.165 20.866154
65.170 19.824123
65.175 19.615559
65.180 19.912626
65.185 20.197161
65.190 20.28751
65.195 20.291624
65.200 20.139034
65.205 20.508266
65.210 21.005943
65.215 20.852617
65.220 20.6859
65.225 20.804495
65.230 20.725258
65.235 20.772442
65.240 20.510733
65.245 19.989878
65.250 20.519953
65.255 20.571367
65.260 20.649096
65.265 20.87191
65.270 21.602737
65.275 22.015678
65.280 21.939981
65.285 21.587828
65.290 21.189405
65.295 20.811707
65.300 20.572535
65.305 20.0646
65.310 19.557158
65.315 19.473448
65.320 19.052134
65.325 18.876989
65.330 18.665379
65.335 18.864414
65.340 19.828886
65.345 20.153837
65.350 20.145252
65.355 20.604553
65.360 21.244148
65.365 21.645103
65.370 21.378656
65.375 21.191887
65.380 21.666998
65.385 22.433086
65.390 22.235872
65.395 22.505068
65.400 22.996794
65.405 23.816181
65.410 24.644899
65.415 24.789289
65.420 24.196011
65.425 24.532352
65.430 24.062862
65.435 23.861492
65.440 23.650602
65.445 23.274485
65.450 22.947195
65.455 22.694687
65.460 22.796093
65.465 23.412266
65.470 23.994953
65.475 24.419321
65.480 24.052942
65.485 23.94276
65.490 24.774752
65.495 24.735332
65.500 24.568415
65.505 24.738096
65.510 24.612024
65.515 24.938917
65.520 25.643393
65.525 25.916338
65.530 25.951748
65.535 26.10001
65.540 25.855221
65.545 25.855322
65.550 26.291138
65.555 26.540358
65.560 26.400784
65.565 26.663517
65.570 26.442152
65.575 26.360191
65.580 27.47937
65.585 27.609468
65.590 26.540339
65.595 26.279135
65.600 26.120401
65.605 26.524572
65.610 27.297997
65.615 26.524199
65.620 26.867702
65.625 27.43675
65.630 28.341488
65.635 28.590998
65.640 29.035843
65.645 28.933666
65.650 29.047672
65.655 29.269068
65.660 30.590488
65.665 31.245386
65.670 31.919422
65.675 31.719572
65.680 32.082283
65.685 32.002769
65.690 32.146111
65.695 31.405588
65.700 30.619659
65.705 30.67617
65.710 32.022465
65.715 32.695278
65.720 33.559105
65.725 33.398846
65.730 34.097893
65.735 34.359688
65.740 34.359959
65.745 32.898079
65.750 32.212193
65.755 32.628792
65.760 32.755547
65.765 32.260006
65.770 32.046818
65.775 32.260918
65.780 32.99279
65.785 33.758858
65.790 33.773857
65.795 33.984505
65.800 34.536983
65.805 35.152466
65.810 35.319115
65.815 35.851513
65.820 36.152889
65.825 35.844326
65.830 35.453976
65.835 35.622341
65.840 35.52898
65.845 34.948341
65.850 35.056873
65.855 34.431961
65.860 34.791759
65.865 35.037178
65.870 35.096264
65.875 35.574242
65.880 36.065945
65.885 36.034836
65.890 36.297733
65.895 36.262764
65.900 36.389057
65.905 36.620399
65.910 36.105816
65.915 35.488426
65.920 35.664158
65.925 36.030067
65.930 36.073689
65.935 35.990807
65.940 34.51564
65.945 33.810833
65.950 33.963367
65.955 34.050716
65.960 34.324074
65.965 34.358913
65.970 34.681969
65.975 35.41235
65.980 36.237434
65.985 36.039402
65.990 35.282772
65.995 35.307728
66.000 34.962677
66.005 34.546566
66.010 34.32259
66.015 34.357273
66.020 35.091438
66.025 34.861568
66.030 33.974819
66.035 33.447327
66.040 33.404972
66.045 33.799576
66.050 33.522301
66.055 32.946091
66.060 33.568924
66.065 34.083969
66.070 34.188171
66.075 34.360027
66.080 34.427746
66.085 34.512253
66.090 34.138794
66.095 33.25021
66.100 33.100834
66.105 33.467739
66.110 33.284325
66.115 33.307873
66.120 33.09457
66.125 32.456272
66.130 32.355595
66.135 32.747902
66.140 33.041512
66.145 33.509407
66.150 33.221809
66.155 33.295197
66.160 33.486656
66.165 34.078053
66.170 34.121239
66.175 34.118206
66.180 33.928295
66.185 34.119061
66.190 34.457283
66.195 34.708492
66.200 33.966038
66.205 32.993607
66.210 32.746815
66.215 32.680096
66.220 32.035847
66.225 31.900145
66.230 32.319592
66.235 33.007294
66.240 33.571209
66.245 33.019821
66.250 32.416134
66.255 33.142128
66.260 32.251938
66.265 31.605528
66.270 30.278738
66.275 29.657291
66.280 29.654522
66.285 29.133005
66.290 28.484142
66.295 28.794159
66.300 29.052114
66.305 29.483194
66.310 29.157827
66.315 29.033472
66.320 29.565176
66.325 29.638212
66.330 29.968832
66.335 29.700052
66.340 29.088451
66.345 29.417049
66.350 29.922922
66.355 29.591814
66.360 29.45373
66.365 29.320084
66.370 29.622461
66.375 29.376566
66.380 28.579477
66.385 28.179329
66.390 28.122902
66.395 27.673145
66.400 27.168859
66.405 27.105427
66.410 27.843246
66.415 27.929688
66.420 27.71954
66.425 27.688196
66.430 27.556709
66.435 27.67721
66.440 27.471518
66.445 26.91437
66.450 27.205561
66.455 27.30448
66.460 27.095562
66.465 26.689981
66.470 26.234749
66.475 25.813227
66.480 25.575024
66.485 25.238281
66.490 25.293705
66.495 25.330572
66.500 25.938541
66.505 26.200369
66.510 26.642313
66.515 26.729261
66.520 26.577824
66.525 26.524582
66.530 27.179829
66.535 27.01058
66.540 27.102875
66.545 27.149431
66.550 26.85
66.555 27.177992
66.560 26.781654
66.565 26.22364
66.570 26.162159
66.575 25.23344
66.580 24.454603
66.585 24.532585
66.590 23.895168
66.595 23.868322
66.600 23.081882
66.605 23.240974
66.610 23.950607
66.615 24.335264
66.620 24.761234
66.625 25.16077
66.630 25.554831
66.635 25.803343
66.640 25.407158
66.645 25.186646
66.650 25.297735
66.655 24.923433
66.660 23.555908
66.665 23.383524
66.670 23.517864
66.675 23.902802
66.680 23.968121
66.685 23.505964
66.690 23.429588
66.695 24.14547
66.700 23.834526
66.705 23.912466
66.710 23.897171
66.715 23.437164
66.720 23.435068
66.725 23.40815
66.730 23.10265
66.735 22.843132
66.740 22.793858
66.745 22.215122
66.750 22.585007
66.755 22.657284
66.760 22.321453
66.765 22.638384
66.770 22.522797
66.775 22.056923
66.780 21.951973
66.785 21.496153
66.790 21.453289
66.795 21.79723
66.800 21.779051
66.805 21.343061
66.810 21.818996
66.815 22.52651
66.820 22.704401
66.825 22.279516
66.830 22.284473
66.835 22.961182
66.840 23.560223
66.845 23.203482
66.850 23.481604
66.855 23.802448
66.860 23.956526
66.865 23.400921
66.870 22.856682
66.875 23.471045
66.880 22.848846
66.885 22.04673
66.890 21.41811
66.895 21.244482
66.900 21.128677
66.905 20.701376
66.910 20.480898
66.915 21.021627
66.920 20.86433
66.925 20.919317
66.930 20.809492
66.935 20.94047
66.940 20.88331
66.945 20.887907
66.950 20.873394
66.955 21.707458
66.960 22.04656
66.965 22.118587
66.970 22.600817
66.975 23.422602
66.980 23.280447
66.985 23.458153
66.990 23.167995
66.995 23.094208
67.000 23.139482
67.005 23.147146
67.010 22.451124
67.015 22.417194
67.020 22.131979
67.025 21.794376
67.030 21.77943
67.035 21.270927
67.040 20.830099
67.045 21.011221
67.050 20.953539
67.055 20.7661
67.060 20.424685
67.065 19.840744
67.070 20.167532
67.075 20.657669
67.080 20.745029
67.085 20.578255
67.090 20.828833
67.095 21.62763
67.100 22.224737
67.105 21.775743
67.110 21.260715
67.115 21.183001
67.120 21.389864
67.125 21.386782
67.130 21.687817
67.135 22.281225
67.140 22.765127
67.145 22.55949
67.150 22.338438
67.155 22.768734
67.160 22.797165
67.165 22.74074
67.170 22.375778
67.175 22.537323
67.180 22.241205
67.185 22.756498
67.190 23.422283
67.195 23.311682
67.200 22.545231
67.205 22.857714
67.210 22.887154
67.215 23.067671
67.220 22.70952
67.225 21.70772
67.230 21.836319
67.235 22.254078
67.240 21.493765
67.245 21.871477
67.250 21.591322
67.255 21.37048
67.260 21.50223
67.265 21.778002
67.270 21.687265
67.275 21.478823
67.280 20.884722
67.285 21.088091
67.290 21.45085
67.295 21.495899
67.300 21.579514
67.305 21.691669
67.310 22.393026
67.315 23.058605
67.320 23.331011
67.325 23.227093
67.330 22.971344
67.335 22.405247
67.340 22.567457
67.345 21.814428
67.350 22.012426
67.355 21.897793
67.360 21.800436
67.365 21.817854
67.370 22.354712
67.375 22.632042
67.380 22.713223
67.385 22.51655
67.390 22.464508
67.395 22.255571
67.400 21.558512
67.405 20.934671
67.410 20.468191
67.415 20.213779
67.420 20.150423
67.425 19.718576
67.430 19.45142
67.435 20.255524
67.440 20.80311
67.445 20.843102
67.450 20.580568
67.455 20.346619
67.460 20.68556
67.465 21.042994
67.470 20.231508
67.475 20.06757
67.480 20.312031
67.485 21.501337
67.490 21.875971
67.495 21.963652
67.500 22.305618
67.505 22.323465
67.510 21.828197
67.515 21.605427
67.520 20.863871
67.525 20.375633
67.530 20.341721
67.535 19.931511
67.540 19.714691
67.545 20.00737
67.550 19.898293
67.555 19.666842
67.560 19.12167
67.565 19.462709
67.570 19.871902
67.575 20.602419
67.580 21.06669
67.585 21.212891
67.590 21.747982
67.595 22.596024
67.600 22.191511
67.605 22.480049
67.610 22.412157
67.615 21.566065
67.620 20.832518
67.625 20.290991
67.630 20.078651
67.635 20.172508
67.640 19.963449
67.645 19.943125
67.650 20.405266
67.655 20.7878
67.660 20.677158
67.665 20.178955
67.670 20.239321
67.675 19.817055
67.680 20.135059
67.685 20.46221
67.690 20.730097
67.695 21.261738
67.700 21.212929
67.705 21.128458
67.710 20.825209
67.715 20.378017
67.720 20.275612
67.725 20.223213
67.730 20.554668
67.735 20.601034
67.740 20.171356
67.745 20.661232
67.750 20.922117
67.755 21.253496
67.760 21.359303
67.765 20.907331
67.770 21.563198
67.775 22.184101
67.780 22.759218
67.785 22.235716
67.790 21.922722
67.795 21.444277
67.800 21.477892
67.805 21.185614
67.810 20.878845
67.815 20.478664
67.820 20.69437
67.825 20.808338
67.830 20.932085
67.835 21.25799
67.840 21.614752
67.845 21.87241
67.850 22.147152
67.855 22.533327
67.860 22.879459
67.865 23.235128
67.870 23.463087
67.875 22.579102
67.880 21.929398
67.885 21.714344
67.890 21.330685
67.895 20.620674
67.900 19.979153
67.905 19.699879
67.910 20.28072
67.915 20.524195
67.920 20.27459
67.925 20.359995
67.930 20.514053
67.935 20.437365
67.940 20.163387
67.945 19.998299
67.950 19.886337
67.955 20.160789
67.960 19.680355
67.965 19.760422
67.970 20.323051
67.975 20.505474
67.980 20.365229
67.985 20.345585
67.990 20.020519
67.995 20.251909
68.000 20.017363
68.005 19.252439
68.010 19.475433
68.015 19.911655
68.020 20.024403
68.025 20.353191
68.030 20.51222
68.035 20.782009
68.040 21.45867
68.045 20.98732
68.050 20.682514
68.055 20.525656
68.060 20.423449
68.065 20.0411
68.070 20.290796
68.075 19.873981
68.080 20.150776
68.085 19.883949
68.090 19.42959
68.095 19.344368
68.100 19.000664
68.105 18.420204
68.110 18.033976
68.115 17.662678
68.120 17.787279
68.125 18.175255
68.130 18.056391
68.135 18.554333
68.140 18.968433
68.145 19.122211
68.150 20.013157
68.155 19.854465
68.160 20.087889
68.165 20.770121
68.170 20.421053
68.175 21.200043
68.180 21.48024
68.185 21.496178
68.190 22.058237
68.195 21.94223
68.200 21.615606
68.205 21.574064
68.210 21.35511
68.215 21.292524
68.220 20.930059
68.225 20.86636
68.230 20.820642
68.235 20.487986
68.240 20.168558
68.245 19.91613
68.250 18.990414
68.255 18.912622
68.260 19.048033
68.265 18.923208
68.270 19.016956
68.275 19.284426
68.280 19.217113
68.285 19.723347
68.290 19.600334
68.295 19.326794
68.300 19.929817
68.305 20.042366
68.310 20.502054
68.315 20.663601
68.320 20.784157
68.325 21.246862
68.330 21.452604
68.335 21.289482
68.340 21.571194
68.345 20.664053
68.350 20.222439
68.355 19.648846
68.360 19.332487
68.365 19.490665
68.370 19.285334
68.375 19.427507
68.380 19.519106
68.385 20.02776
68.390 20.447765
68.395 19.888866
68.400 19.069706
68.405 18.17717
68.410 18.036306
68.415 17.707775
68.420 17.952242
68.425 17.673983
68.430 18.136463
68.435 18.807095
68.440 19.422003
68.445 19.409779
68.450 19.666466
68.455 19.266104
68.460 19.964294
68.465 20.264067
68.470 20.565184
68.475 20.672697
68.480 20.638277
68.485 21.314953
68.490 21.837687
68.495 21.547056
68.500 21.059692
68.505 20.711699
68.510 20.893442
68.515 21.318481
68.520 20.768427
68.525 20.823835
68.530 20.593918
68.535 20.398558
68.540 20.909319
68.545 21.101686
68.550 20.977228
68.555 21.362679
68.560 21.971626
68.565 22.315462
68.570 22.558422
68.575 21.751974
68.580 21.51968
68.585 21.568701
68.590 21.496834
68.595 21.049599
68.600 20.860823
68.605 20.936117
68.610 21.543444
68.615 21.289291
68.620 20.874485
68.625 20.055885
68.630 19.997782
68.635 20.351206
68.640 19.922216
68.645 19.336412
68.650 19.864676
68.655 19.599258
68.660 20.05389
68.665 20.13196
68.670 20.340153
68.675 20.872643
68.680 21.321857
68.685 21.082087
68.690 21.334854
68.695 21.14892
68.700 20.998152
68.705 20.689953
68.710 20.693352
68.715 20.366983
68.720 20.339024
68.725 20.284552
68.730 20.274782
68.735 20.413317
68.740 20.682838
68.745 20.80051
68.750 21.054094
68.755 21.217276
68.760 21.817261
68.765 22.008575
68.770 21.946781
68.775 21.504696
68.780 21.340528
68.785 21.038387
68.790 21.087019
68.795 20.742348
68.800 21.176577
68.805 21.40379
68.810 21.829187
68.815 22.88526
68.820 23.378075
68.825 23.745777
68.830 24.017227
68.835 23.734022
68.840 23.613806
68.845 23.083237
68.850 22.618441
68.855 22.533089
68.860 22.298483
68.865 22.087246
68.870 22.297279
68.875 22.280161
68.880 21.942652
68.885 21.827621
68.890 21.610405
68.895 21.401859
68.900 21.210424
68.905 21.523031
68.910 22.038601
68.915 22.244614
68.920 21.922993
68.925 22.420822
68.930 23.281996
68.935 23.296156
68.940 23.071684
68.945 22.482323
68.950 22.734394
68.955 22.990929
68.960 22.695202
68.965 22.224808
68.970 22.270384
68.975 22.26825
68.980 23.40583
68.985 23.90173
68.990 24.508781
68.995 25.076151
69.000 25.300215
69.005 25.785379
69.010 25.483931
69.015 24.36318
69.020 24.185345
69.025 23.816015
69.030 23.412153
69.035 23.448536
69.040 22.879698
69.045 22.898624
69.050 23.06352
69.055 23.281752
69.060 22.773573
69.065 22.739859
69.070 22.945389
69.075 22.993025
69.080 23.491402
69.085 23.987684
69.090 24.773403
69.095 25.523823
69.100 26.128567
69.105 26.376516
69.110 26.891525
69.115 27.41968
69.120 26.785339
69.125 26.927633
69.130 26.715788
69.135 26.19235
69.140 26.177769
69.145 26.169989
69.150 26.014511
69.155 26.107172
69.160 25.385899
69.165 25.089109
69.170 25.642818
69.175 25.323317
69.180 24.460812
69.185 24.644545
69.190 24.617245
69.195 25.508827
69.200 25.255579
69.205 24.924791
69.210 25.325302
69.215 25.726725
69.220 25.513243
69.225 25.675013
69.230 25.710541
69.235 26.113558
69.240 26.953829
69.245 27.953539
69.250 28.286396
69.255 28.172235
69.260 27.386284
69.265 26.997545
69.270 26.511433
69.275 25.827019
69.280 25.363235
69.285 25.217655
69.290 25.422684
69.295 25.566528
69.300 26.036549
69.305 26.08816
69.310 26.477823
69.315 26.531763
69.320 26.752197
69.325 26.8062
69.330 27.491207
69.335 27.238852
69.340 26.834349
69.345 26.495445
69.350 26.64381
69.355 26.098158
69.360 25.921579
69.365 24.937576
69.370 25.505447
69.375 26.511673
69.380 26.856764
69.385 26.746845
69.390 27.005177
69.395 26.8081
69.400 27.244114
69.405 27.224266
69.410 26.683323
69.415 26.118851
69.420 25.934109
69.425 25.797758
69.430 26.35985
69.435 26.392048
69.440 26.064114
69.445 26.138954
69.450 27.048372
69.455 27.01565
69.460 26.927961
69.465 26.815456
69.470 26.811337
69.475 27.229639
69.480 27.1903
69.485 26.003216
69.490 26.880981
69.495 27.229006
69.500 27.124208
69.505 26.534395
69.510 26.192144
69.515 26.254082
69.520 26.604269
69.525 26.055038
69.530 25.481224
69.535 25.513113
69.540 26.220341
69.545 26.542122
69.550 27.253727
69.555 27.665001
69.560 28.346329
69.565 28.73959
69.570 29.229071
69.575 29.586447
69.580 29.442369
69.585 28.248516
69.590 27.318701
69.595 26.886747
69.600 26.645401
69.605 25.74173
69.610 25.00428
69.615 24.913557
69.620 25.054953
69.625 25.392063
69.630 25.904438
69.635 26.127817
69.640 26.451506
69.645 26.001619
69.650 26.121592
69.655 26.884777
69.660 26.453796
69.665 26.101543
69.670 25.760523
69.675 25.602671
69.680 25.952747
69.685 25.820807
69.690 25.699759
69.695 26.397814
69.700 26.927546
69.705 26.88372
69.710 27.127504
69.715 27.670818
69.720 27.727814
69.725 27.331905
69.730 26.564653
69.735 26.586931
69.740 26.561481
69.745 26.211227
69.750 25.445175
69.755 25.359097
69.760 25.222057
69.765 25.636726
69.770 25.304691
69.775 24.8018
69.780 24.352291
69.785 23.901804
69.790 23.267033
69.795 23.02899
69.800 22.323084
69.805 21.736149
69.810 21.674389
69.815 21.914148
69.820 21.876318
69.825 21.426109
69.830 21.629559
69.835 21.958462
69.840 22.770187
69.845 23.042398
69.850 22.909977
69.855 23.088585
69.860 23.876997
69.865 24.040445
69.870 24.133825
69.875 24.241863
69.880 24.067743
69.885 24.151392
69.890 24.782049
69.895 24.656595
69.900 24.802944
69.905 24.539492
69.910 24.247288
69.915 24.10639
69.920 24.043837
69.925 23.595022
69.930 23.487976
69.935 23.047548
69.940 22.840693
69.945 22.617935
69.950 22.523096
69.955 22.160572
69.960 21.843822
69.965 21.122303
69.970 20.83946
69.975 20.494593
69.980 20.664026
69.985 20.877785
69.990 20.711473
69.995 20.886509
70.000 20.466669
70.005 20.078323
70.010 19.389278
70.015 18.771044
70.020 18.552412
70.025 19.628098
70.030 20.044542
70.035 21.03474
70.040 21.388657
70.045 22.035713
70.050 22.447575
70.055 22.07728
70.060 21.505983
70.065 20.992722
70.070 21.146908
70.075 21.470285
70.080 21.303982
70.085 21.128979
70.090 21.207138
70.095 21.201445
70.100 21.356781
70.105 20.851576
70.110 21.239443
70.115 21.404016
70.120 21.501425
70.125 21.786608
70.130 21.80423
70.135 21.500431
70.140 21.116831
70.145 20.786133
70.150 21.024378
70.155 20.760223
70.160 20.057184
70.165 19.526779
70.170 19.690935
70.175 19.657896
70.180 19.130577
70.185 19.262257
70.190 19.339895
70.195 19.451675
70.200 19.344751
70.205 19.49898
70.210 20.147423
70.215 20.359493
70.220 20.203856
70.225 19.95746
70.230 20.294294
70.235 20.374514
70.240 19.977839
70.245 19.314543
70.250 19.780184
70.255 19.682741
70.260 20.058487
70.265 19.938013
70.270 20.249826
70.275 20.141251
70.280 20.203077
70.285 20.258869
70.290 20.603516
70.295 20.951494
70.300 21.423964
70.305 21.309879
70.310 21.713129
70.315 21.527771
70.320 21.320301
70.325 20.792194
70.330 20.096283
70.335 19.468513
70.340 18.768518
70.345 18.264277
70.350 17.72929
70.355 17.533943
70.360 17.943796
70.365 18.0373
70.370 18.281115
70.375 18.333351
70.380 18.997341
70.385 19.120523
70.390 18.943714
70.395 19.377934
70.400 19.410675
70.405 18.920038
70.410 19.636236
70.415 19.488869
70.420 19.581251
70.425 19.746134
70.430 19.327507
70.435 19.525282
70.440 19.586718
70.445 18.354227
70.450 18.307148
70.455 18.497948
70.460 18.485228
70.465 18.98595
70.470 19.397058
70.475 19.890217
70.480 19.701777
70.485 19.574108
70.490 19.392351
70.495 18.752666
70.500 18.691345
70.505 18.800932
70.510 19.490929
70.515 20.421001
70.520 20.814917
70.525 20.844723
70.530 20.803917
70.535 20.141125
70.540 19.832037
70.545 19.740469
70.550 19.112999
70.555 18.916382
70.560 19.223152
70.565 19.698597
70.570 20.054178
70.575 19.786776
70.580 19.642382
70.585 19.819654
70.590 19.550291
70.595 19.259489
70.600 19.161676
70.605 18.667814
70.610 18.60796
70.615 18.365219
70.620 18.878139
70.625 19.018812
70.630 18.886435
70.635 19.355087
70.640 19.414505
70.645 19.681246
70.650 19.388903
70.655 19.025028
70.660 19.166622
70.665 18.824436
70.670 18.26619
70.675 18.572124
70.680 18.056389
70.685 18.137102
70.690 18.627178
70.695 18.938251
70.700 18.944094
70.705 18.827093
70.710 18.656387
70.715 18.179192
70.720 18.099503
70.725 17.741774
70.730 17.205269
70.735 17.135311
70.740 17.224463
70.745 16.997612
70.750 17.489807
70.755 17.949162
70.760 18.218351
70.765 18.438335
70.770 19.243639
70.775 19.409267
70.780 19.842697
70.785 19.394485
70.790 18.422598
70.795 18.238897
70.800 18.605953
70.805 18.320156
70.810 18.203352
70.815 18.636282
70.820 19.496002
70.825 19.70685
70.830 19.549793
70.835 19.405771
70.840 19.283871
70.845 19.116335
70.850 18.601383
70.855 18.009035
70.860 17.596054
70.865 17.860588
70.870 17.493208
70.875 17.652411
70.880 17.87973
70.885 18.221109
70.890 18.542471
70.895 18.872581
70.900 18.916471
70.905 18.633406
70.910 18.380741
70.915 18.466831
70.920 17.768297
70.925 17.769009
70.930 17.408527
70.935 17.321466
70.940 17.457689
70.945 17.481174
70.950 17.352543
70.955 18.541262
70.960 18.862783
70.965 19.096558
70.970 19.382183
70.975 19.783615
70.980 19.765188
70.985 19.735388
70.990 18.469599
70.995 18.531511
71.000 18.212824
71.005 18.268269
71.010 18.534203
71.015 18.687805
71.020 18.970003
71.025 19.38838
71.030 18.927975
71.035 19.089859
71.040 19.224186
71.045 19.17984
71.050 19.275034
71.055 19.401804
71.060 19.331264
71.065 19.448805
71.070 19.40007
71.075 18.628435
71.080 18.152918
71.085 18.257181
71.090 18.889542
71.095 19.262579
71.100 19.837311
71.105 20.061953
71.110 20.4135
71.115 20.216009
71.120 19.574951
71.125 19.223475
71.130 19.623638
71.135 19.350349
71.140 19.176327
71.145 19.29443
71.150 19.096764
71.155 18.885113
71.160 18.556246
71.165 17.808239
71.170 17.557966
71.175 16.989508
71.180 16.950853
71.185 17.466465
71.190 17.525021
71.195 17.682455
71.200 17.753016
71.205 18.322393
71.210 18.450434
71.215 17.881109
71.220 18.04958
71.225 18.183384
71.230 18.745018
71.235 19.100676
71.240 19.157261
71.245 18.923962
71.250 19.112261
71.255 18.682459
71.260 18.517792
71.265 17.889765
71.270 18.046469
71.275 17.533716
71.280 17.760151
71.285 17.958708
71.290 18.463724
71.295 18.525703
71.300 18.224596
71.305 18.396593
71.310 19.4907
71.315 19.71454
71.320 19.362644
71.325 18.90732
71.330 18.893307
71.335 19.731705
71.340 19.581522
71.345 18.86652
71.350 19.163538
71.355 19.71221
71.360 20.540239
71.365 20.174486
71.370 19.12591
71.375 18.418798
71.380 18.072201
71.385 17.956591
71.390 17.587767
71.395 16.93054
71.400 17.247305
71.405 17.809172
71.410 18.78289
71.415 19.123407
71.420 18.504108
71.425 18.844107
71.430 18.704321
71.435 18.358219
71.440 18.222427
71.445 17.655649
71.450 17.894491
71.455 18.110434
71.460 18.015306
71.465 18.184614
71.470 17.958263
71.475 18.122957
71.480 18.366472
71.485 17.876413
71.490 18.319191
71.495 18.208237
71.500 18.654318
71.505 19.356007
71.510 19.364336
71.515 19.306141
71.520 19.44696
71.525 19.001114
71.530 18.671635
71.535 18.303507
71.540 17.666965
71.545 17.1644
71.550 17.4158
71.555 17.145
71.560 16.771231
71.565 16.805605
71.570 17.092113
71.575 17.415972
71.580 17.535292
71.585 17.385624
71.590 17.747126
71.595 17.803846
71.600 17.711576
71.605 17.993811
71.610 18.038832
71.615 17.919163
71.620 17.818325
71.625 18.037756
71.630 18.704187
71.635 19.271212
71.640 19.678047
71.645 19.349764
71.650 19.661821
71.655 19.479782
71.660 19.12398
71.665 18.526087
71.670 17.833138
71.675 16.875372
71.680 17.006451
71.685 17.043156
71.690 17.153786
71.695 17.485277
71.700 17.385986
71.705 17.317122
71.710 17.545362
71.715 17.368473
71.720 17.295671
71.725 17.490807
71.730 18.182878
71.735 18.416397
71.740 18.661306
71.745 19.098293
71.750 19.118881
71.755 18.716619
71.760 18.687595
71.765 17.960892
71.770 17.854977
71.775 17.726845
71.780 17.884987
71.785 18.341955
71.790 18.553171
71.795 18.350712
71.800 18.587643
71.805 18.864004
71.810 18.67001
71.815 18.251585
71.820 17.881958
71.825 17.739061
71.830 17.843073
71.835 17.975567
71.840 17.591644
71.845 17.706774
71.850 18.034845
71.855 18.385717
71.860 18.722113
71.865 18.668972
71.870 18.461809
71.875 19.292702
71.880 19.434603
71.885 19.257851
71.890 18.854095
71.895 18.797035
71.900 19.096308
71.905 19.516745
71.910 18.97505
71.915 18.666187
71.920 18.856129
71.925 18.420813
71.930 17.781952
71.935 17.075483
71.940 16.906946
71.945 17.268589
71.950 17.555779
71.955 17.743643
71.960 18.309095
71.965 18.352238
71.970 18.44388
71.975 18.322256
71.980 18.223879
71.985 18.282709
71.990 18.4352
71.995 18.455969
72.000 18.998913
72.005 19.243757
72.010 19.031218
72.015 18.565445
72.020 18.567919
72.025 19.336843
72.030 19.592262
72.035 19.500601
72.040 19.472134
72.045 19.58078
72.050 19.814196
72.055 19.80941
72.060 19.564079
72.065 19.812172
72.070 19.396736
72.075 19.062641
72.080 18.838776
72.085 18.328716
72.090 17.767443
72.095 17.417665
72.100 17.154827
72.105 17.532816
72.110 18.088945
72.115 18.540125
72.120 18.610067
72.125 18.877228
72.130 18.686758
72.135 18.064745
72.140 17.737869
72.145 17.474174
72.150 17.131105
72.155 17.015877
72.160 17.034273
72.165 17.450527
72.170 17.906015
72.175 17.723974
72.180 17.386026
72.185 18.071735
72.190 17.739183
72.195 17.741411
72.200 17.785826
72.205 18.130995
72.210 18.336231
72.215 18.816143
72.220 18.70529
72.225 19.306833
72.230 19.215895
72.235 19.051125
72.240 18.812559
72.245 18.421482
72.250 17.931276
72.255 17.424398
72.260 16.991714
72.265 16.444065
72.270 16.323509
72.275 16.542768
72.280 16.775043
72.285 17.267731
72.290 17.636507
72.295 17.891523
72.300 17.979855
72.305 18.238497
72.310 18.456732
72.315 18.854414
72.320 18.607849
72.325 18.379808
72.330 18.657103
72.335 18.76329
72.340 17.962704
72.345 17.416273
72.350 17.018131
72.355 16.892769
72.360 16.94684
72.365 16.938198
72.370 17.035233
72.375 17.498581
72.380 17.812719
72.385 17.752729
72.390 17.696407
72.395 17.456669
72.400 17.819387
72.405 18.048466
72.410 18.421236
72.415 18.508438
72.420 19.125294
72.425 19.493391
72.430 19.480219
72.435 19.321699
72.440 19.121189
72.445 19.087723
72.450 18.855785
72.455 18.392105
72.460 18.500151
72.465 18.343811
72.470 18.297192
72.475 18.147942
72.480 17.836533
72.485 17.333305
72.490 17.172825
72.495 17.113525
72.500 16.998138
72.505 17.203424
72.510 17.304869
72.515 17.384138
72.520 17.62776
72.525 17.530857
72.530 17.092684
72.535 16.906292
72.540 16.812815
72.545 17.115498
72.550 17.751057
72.555 17.84683
72.560 18.209988
72.565 18.619715
72.570 19.020788
72.575 19.349325
72.580 19.089899
72.585 18.896828
72.590 18.964941
72.595 18.597969
72.600 18.137573
72.605 18.127895
72.610 17.6168
72.615 17.419071
72.620 17.099094
72.625 17.124758
72.630 17.346907
72.635 16.758242
72.640 16.600109
72.645 16.321171
72.650 16.007444
72.655 16.051739
72.660 16.282103
72.665 16.580557
72.670 16.930618
72.675 17.335081
72.680 17.81422
72.685 17.853006
72.690 18.305605
72.695 17.775642
72.700 18.086843
72.705 17.87394
72.710 17.590752
72.715 17.545481
72.720 17.278421
72.725 16.735006
72.730 16.94755
72.735 16.67835
72.740 17.206678
72.745 17.48592
72.750 17.750443
72.755 17.923235
72.760 18.255672
72.765 18.215509
72.770 17.750778
72.775 17.785572
72.780 17.842581
72.785 17.775717
72.790 17.343103
72.795 16.727268
72.800 17.025057
72.805 17.318842
72.810 16.628208
72.815 16.383015
72.820 16.757599
72.825 16.964705
72.830 17.097805
72.835 17.023024
72.840 17.192717
72.845 17.556435
72.850 18.114376
72.855 18.111233
72.860 18.156441
72.865 17.654476
72.870 17.740736
72.875 17.792768
72.880 17.388596
72.885 16.77383
72.890 17.082956
72.895 17.390015
72.900 17.65041
72.905 17.446722
72.910 17.422102
72.915 17.538256
72.920 17.091194
72.925 16.469429
72.930 16.578093
72.935 16.993641
72.940 16.729654
72.945 16.71756
72.950 16.842422
72.955 16.597118
72.960 16.331865
72.965 15.682541
72.970 15.003761
72.975 15.027876
72.980 14.915366
72.985 14.933838
72.990 14.68744
72.995 14.492181
73.000 14.816468
