!@!!GADDS PLOTSO FILE: Chi integration type
!@!!Title/SampleName: map-bb
!@!!Comment: ?
!@!!User: Bruker Instrument Administrator
!@!!Site: University of Illinois Chicago
!@!!Frame: map-bb_01_000.gfrm
!@!!Wavelengths    1.54184   1.54056   1.54439
!@!!Frame angles: 2Theta: 63.000 Omega: 50.000 Phi: 0.000 Chi: 90.000
!@!!Integration range: 2Theta: 53.000 to 73.000  Gamma: -105.000 to -75.000
!@!!Integration method: bin normalized
!@!N
!@!SS
!@!M
!@!L 0.0 0.0 0.0 0.0
!@!XDegrees
!@!YCounts
53.000 6.741493
53.005 6.76804
53.010 7.319916
53.015 7.303383
53.020 7.112637
53.025 6.811615
53.030 6.834292
53.035 6.843784
53.040 6.527445
53.045 6.179401
53.050 6.331517
53.055 6.363225
53.060 6.332296
53.065 6.215489
53.070 6.767464
53.075 7.109268
53.080 7.407285
53.085 7.570091
53.090 7.346182
53.095 7.832014
53.100 8.35168
53.105 8.319036
53.110 8.382826
53.115 7.944538
53.120 8.143408
53.125 8.036904
53.130 8.009974
53.135 7.506677
53.140 7.464866
53.145 7.415751
53.150 7.967667
53.155 7.733508
53.160 8.050002
53.165 7.809497
53.170 7.666127
53.175 8.045384
53.180 7.968681
53.185 7.750459
53.190 7.925769
53.195 7.610581
53.200 7.407041
53.205 7.144029
53.210 6.755062
53.215 6.894929
53.220 6.862993
53.225 6.75735
53.230 6.671708
53.235 6.840056
53.240 7.12632
53.245 7.130434
53.250 7.060429
53.255 7.237882
53.260 7.309769
53.265 7.398227
53.270 7.427021
53.275 7.363222
53.280 7.511811
53.285 7.81139
53.290 7.682942
53.295 7.842477
53.300 8.142208
53.305 8.164471
53.310 8.316675
53.315 8.01607
53.320 7.972806
53.325 7.950598
53.330 8.03238
53.335 8.140837
53.340 8.252822
53.345 8.013253
53.350 8.162587
53.355 8.198745
53.360 8.21579
53.365 8.08923
53.370 8.19033
53.375 8.079937
53.380 8.355295
53.385 7.966285
53.390 8.054379
53.395 8.180566
53.400 7.866879
53.405 7.425992
53.410 7.55499
53.415 7.4496
53.420 7.641206
53.425 7.580267
53.430 7.613592
53.435 7.788381
53.440 7.781831
53.445 7.699028
53.450 7.594142
53.455 7.167521
53.460 6.87181
53.465 6.6382
53.470 6.890867
53.475 6.858987
53.480 6.791065
53.485 7.136556
53.490 7.686955
53.495 8.057769
53.500 8.380425
53.505 8.03931
53.510 7.944798
53.515 7.948058
53.520 7.809623
53.525 7.330861
53.530 7.264167
53.535 7.068359
53.540 7.424475
53.545 7.939151
53.550 8.288263
53.555 8.672669
53.560 9.106927
53.565 9.288507
53.570 9.411842
53.575 9.175203
53.580 8.968989
53.585 8.591311
53.590 8.258911
53.595 8.136748
53.600 8.082259
53.605 8.514266
53.610 8.952065
53.615 9.104218
53.620 9.133224
53.625 8.994931
53.630 8.977302
53.635 9.158604
53.640 9.040688
53.645 8.941243
53.650 8.923503
53.655 9.332857
53.660 9.678791
53.665 9.48814
53.670 9.082129
53.675 8.647986
53.680 8.445022
53.685 8.484141
53.690 8.568073
53.695 8.72593
53.700 9.033895
53.705 8.896827
53.710 8.834094
53.715 9.045116
53.720 8.885586
53.725 8.996138
53.730 8.992042
53.735 9.048277
53.740 8.991021
53.745 9.221004
53.750 8.946163
53.755 9.014978
53.760 8.480765
53.765 8.176443
53.770 8.045392
53.775 7.87157
53.780 7.662501
53.785 7.628798
53.790 7.289778
53.795 7.397867
53.800 7.79347
53.805 8.018752
53.810 8.52571
53.815 8.538106
53.820 8.279046
53.825 8.107965
53.830 7.604315
53.835 7.373312
53.840 7.184207
53.845 6.550252
53.850 6.799157
53.855 7.223227
53.860 7.691741
53.865 7.951366
53.870 8.161763
53.875 8.504698
53.880 8.772432
53.885 8.800023
53.890 8.673148
53.895 8.543497
53.900 8.58862
53.905 8.491476
53.910 8.781571
53.915 9.215322
53.920 9.186588
53.925 9.403497
53.930 9.630407
53.935 9.325219
53.940 8.907601
53.945 8.733999
53.950 8.225443
53.955 8.34311
53.960 7.995705
53.965 7.860937
53.970 8.381754
53.975 8.750381
53.980 8.77985
53.985 8.688063
53.990 8.358736
53.995 8.764153
54.000 8.971659
54.005 8.564334
54.010 8.38194
54.015 8.548672
54.020 8.649573
54.025 8.355581
54.030 8.098428
54.035 7.969799
54.040 8.097443
54.045 7.757493
54.050 7.782633
54.055 8.044608
54.060 8.219034
54.065 8.136259
54.070 8.409913
54.075 8.634831
54.080 8.672254
54.085 8.534685
54.090 8.779193
54.095 9.034954
54.100 8.858201
54.105 8.841961
54.110 9.24332
54.115 9.315498
54.120 9.622892
54.125 9.2521
54.130 9.042278
54.135 9.427549
54.140 9.219838
54.145 9.068656
54.150 9.388605
54.155 9.441494
54.160 9.600949
54.165 9.742672
54.170 9.010169
54.175 8.692703
54.180 8.482717
54.185 7.946415
54.190 8.072172
54.195 8.412393
54.200 8.260861
54.205 8.462179
54.210 8.622654
54.215 8.772714
54.220 9.285117
54.225 9.061541
54.230 9.263073
54.235 9.628581
54.240 10.187693
54.245 10.51171
54.250 10.232139
54.255 10.043884
54.260 10.352378
54.265 9.578742
54.270 9.31286
54.275 8.864301
54.280 9.11
54.285 9.588964
54.290 9.386786
54.295 9.199347
54.300 9.525862
54.305 9.900148
54.310 10.162536
54.315 10.348085
54.320 10.057908
54.325 9.816615
54.330 10.041353
54.335 9.680651
54.340 9.402452
54.345 9.341955
54.350 9.337029
54.355 9.644795
54.360 9.940606
54.365 10.45572
54.370 10.375998
54.375 10.305452
54.380 9.856736
54.385 9.618453
54.390 9.500876
54.395 9.308643
54.400 8.970777
54.405 9.431172
54.410 9.323037
54.415 9.584449
54.420 9.418027
54.425 9.238745
54.430 8.970499
54.435 9.039034
54.440 9.035527
54.445 8.946288
54.450 8.713468
54.455 8.913865
54.460 8.933846
54.465 9.103356
54.470 9.278669
54.475 9.213882
54.480 9.265867
54.485 9.225415
54.490 8.984396
54.495 8.828084
54.500 8.641436
54.505 8.096
54.510 8.284735
54.515 8.581526
54.520 8.454246
54.525 8.290772
54.530 8.186081
54.535 8.373318
54.540 8.665731
54.545 8.302886
54.550 8.251629
54.555 8.074223
54.560 8.211982
54.565 8.54537
54.570 8.701599
54.575 9.091995
54.580 9.202271
54.585 9.915152
54.590 10.30197
54.595 10.276411
54.600 10.299784
54.605 10.022979
54.610 9.333604
54.615 9.227452
54.620 8.828764
54.625 8.985547
54.630 9.31242
54.635 8.724003
54.640 8.675822
54.645 8.645133
54.650 8.590809
54.655 8.911549
54.660 8.72327
54.665 8.226759
54.670 8.833109
54.675 9.182571
54.680 9.351344
54.685 9.338543
54.690 8.960988
54.695 9.133073
54.700 9.338823
54.705 8.815716
54.710 8.560164
54.715 9.081806
54.720 8.75442
54.725 8.693015
54.730 8.360711
54.735 8.195042
54.740 8.578179
54.745 8.734087
54.750 8.380158
54.755 8.501197
54.760 8.767614
54.765 9.104661
54.770 9.358074
54.775 9.609517
54.780 9.379341
54.785 8.894228
54.790 9.400553
54.795 9.476491
54.800 9.308309
54.805 9.203561
54.810 8.844377
54.815 9.221388
54.820 9.381839
54.825 9.284997
54.830 9.22253
54.835 8.917294
54.840 8.884027
54.845 8.801436
54.850 8.765841
54.855 8.870914
54.860 8.293948
54.865 8.582021
54.870 9.158496
54.875 9.447625
54.880 9.74501
54.885 10.04338
54.890 10.473723
54.895 10.968034
54.900 10.883438
54.905 10.716287
54.910 10.72441
54.915 10.766895
54.920 10.319777
54.925 9.783392
54.930 9.484349
54.935 9.293751
54.940 9.114325
54.945 8.77478
54.950 8.517056
54.955 8.620768
54.960 9.142967
54.965 9.455972
54.970 9.805395
54.975 9.590773
54.980 9.635819
54.985 10.058396
54.990 10.198749
54.995 10.04739
55.000 10.331895
55.005 10.582929
55.010 10.450614
55.015 10.322021
55.020 10.428488
55.025 10.83072
55.030 10.941402
55.035 10.625258
55.040 10.702134
55.045 11.147495
55.050 10.811066
55.055 10.05514
55.060 9.784198
55.065 9.466781
55.070 9.530447
55.075 9.280483
55.080 9.346885
55.085 9.327986
55.090 9.487699
55.095 9.287899
55.100 9.040801
55.105 9.016474
55.110 8.817977
55.115 8.894599
55.120 9.079965
55.125 9.078753
55.130 9.622372
55.135 9.847146
55.140 9.980979
55.145 10.16538
55.150 10.325273
55.155 10.329295
55.160 10.036688
55.165 9.74293
55.170 10.133369
55.175 10.079103
55.180 9.821448
55.185 9.584599
55.190 9.822095
55.195 9.511965
55.200 9.700322
55.205 9.219918
55.210 9.738707
55.215 10.26894
55.220 10.296004
55.225 10.56259
55.230 10.454119
55.235 10.479609
55.240 11.14032
55.245 10.842555
55.250 10.549213
55.255 10.179855
55.260 10.060798
55.265 10.311676
55.270 9.974911
55.275 9.622251
55.280 9.349276
55.285 9.452458
55.290 10.079562
55.295 9.700966
55.300 9.286498
55.305 9.491339
55.310 9.080606
55.315 8.965615
55.320 9.123003
55.325 8.549406
55.330 9.344954
55.335 9.736418
55.340 9.766543
55.345 9.44649
55.350 9.654176
55.355 9.957406
55.360 10.746127
55.365 10.703356
55.370 10.524732
55.375 10.375007
55.380 10.736004
55.385 10.91621
55.390 10.59093
55.395 9.702186
55.400 9.618304
55.405 9.75467
55.410 10.082706
55.415 10.266176
55.420 10.286927
55.425 10.779988
55.430 11.333519
55.435 11.343583
55.440 10.897535
55.445 10.780783
55.450 10.864572
55.455 10.581083
55.460 10.236365
55.465 10.158316
55.470 9.880935
55.475 9.997898
55.480 9.816727
55.485 9.607475
55.490 9.79994
55.495 9.825346
55.500 9.991878
55.505 10.091999
55.510 10.407475
55.515 10.646155
55.520 10.804715
55.525 10.371646
55.530 10.403911
55.535 10.704165
55.540 11.428048
55.545 11.675389
55.550 11.836707
55.555 12.014071
55.560 12.500468
55.565 12.690221
55.570 11.985779
55.575 11.67578
55.580 11.816102
55.585 11.853792
55.590 11.567159
55.595 11.91698
55.600 12.146798
55.605 12.482758
55.610 12.001706
55.615 11.664013
55.620 11.668333
55.625 11.675704
55.630 10.6427
55.635 10.162674
55.640 10.016146
55.645 9.694544
55.650 9.417811
55.655 8.894018
55.660 8.976416
55.665 9.539095
55.670 9.727105
55.675 9.43508
55.680 9.598585
55.685 9.757557
55.690 9.837303
55.695 9.963274
55.700 9.81227
55.705 9.965484
55.710 10.26914
55.715 10.886004
55.720 11.554413
55.725 12.200748
55.730 12.018253
55.735 11.844819
55.740 11.865662
55.745 11.861403
55.750 11.26713
55.755 10.534854
55.760 10.426082
55.765 10.655424
55.770 11.060903
55.775 11.439977
55.780 11.580962
55.785 12.020607
55.790 12.022114
55.795 11.48347
55.800 10.931342
55.805 10.188622
55.810 9.635082
55.815 9.941546
55.820 10.034673
55.825 10.152313
55.830 10.634454
55.835 11.526597
55.840 11.847584
55.845 12.072871
55.850 12.020678
55.855 12.261433
55.860 12.643796
55.865 12.452116
55.870 11.880489
55.875 12.031636
55.880 11.815763
55.885 11.845605
55.890 11.417399
55.895 11.103909
55.900 11.009136
55.905 10.867807
55.910 10.86908
55.915 10.719954
55.920 10.958061
55.925 11.123331
55.930 10.963449
55.935 11.156084
55.940 11.308962
55.945 11.484753
55.950 11.579401
55.955 11.272638
55.960 11.123435
55.965 11.000443
55.970 10.548101
55.975 10.276943
55.980 10.453908
55.985 9.930786
55.990 9.713025
55.995 10.062507
56.000 10.310905
56.005 10.37664
56.010 10.024972
56.015 9.843901
56.020 10.194889
56.025 10.024187
56.030 9.464654
56.035 9.370118
56.040 9.379129
56.045 9.911567
56.050 10.237663
56.055 9.914272
56.060 9.75314
56.065 10.100499
56.070 10.1481
56.075 10.383774
56.080 10.313194
56.085 10.469704
56.090 11.235278
56.095 11.661736
56.100 11.91502
56.105 12.435302
56.110 12.870737
56.115 12.706617
56.120 12.417065
56.125 11.833959
56.130 11.482341
56.135 11.457949
56.140 11.103443
56.145 10.384074
56.150 10.487307
56.155 10.805346
56.160 11.124418
56.165 11.32075
56.170 11.039705
56.175 11.31294
56.180 11.651549
56.185 12.302678
56.190 12.001592
56.195 11.942599
56.200 11.796052
56.205 11.891555
56.210 11.42818
56.215 10.804605
56.220 10.752192
56.225 11.027365
56.230 11.218075
56.235 11.389102
56.240 11.253786
56.245 11.912457
56.250 12.544313
56.255 11.78759
56.260 11.621363
56.265 11.523883
56.270 11.701254
56.275 11.913482
56.280 11.919402
56.285 11.644822
56.290 11.927699
56.295 11.757679
56.300 11.065419
56.305 11.182457
56.310 11.209944
56.315 10.883546
56.320 10.926547
56.325 10.602732
56.330 10.720678
56.335 11.048391
56.340 10.755574
56.345 10.540322
56.350 10.717484
56.355 10.709501
56.360 10.866645
56.365 11.047791
56.370 11.147892
56.375 11.026555
56.380 10.993511
56.385 11.530507
56.390 11.963461
56.395 11.954386
56.400 12.028684
56.405 12.306901
56.410 12.888296
56.415 12.929403
56.420 12.259464
56.425 11.859793
56.430 12.401134
56.435 12.514816
56.440 11.694902
56.445 10.9966
56.450 11.037165
56.455 11.360564
56.460 11.963413
56.465 11.16863
56.470 11.226892
56.475 11.862169
56.480 11.798848
56.485 11.979699
56.490 12.01659
56.495 12.000392
56.500 11.901482
56.505 12.290113
56.510 12.25903
56.515 11.797044
56.520 11.362013
56.525 11.329837
56.530 11.18803
56.535 11.904047
56.540 11.688558
56.545 11.726326
56.550 12.2452
56.555 12.202914
56.560 11.988862
56.565 11.766526
56.570 11.750165
56.575 12.120037
56.580 12.492735
56.585 12.993058
56.590 13.058708
56.595 13.423374
56.600 13.226328
56.605 12.731241
56.610 12.055322
56.615 12.001942
56.620 11.759662
56.625 11.919257
56.630 11.629301
56.635 11.506483
56.640 11.278085
56.645 11.724786
56.650 11.725245
56.655 11.915808
56.660 11.764797
56.665 11.79499
56.670 11.568122
56.675 11.52118
56.680 11.058571
56.685 11.12799
56.690 10.959765
56.695 11.161851
56.700 11.685133
56.705 12.324679
56.710 12.378877
56.715 12.59422
56.720 12.815505
56.725 13.016582
56.730 13.058565
56.735 12.771145
56.740 13.101524
56.745 13.025414
56.750 12.907701
56.755 12.852449
56.760 12.911636
56.765 13.234715
56.770 13.209245
56.775 12.911772
56.780 13.580847
56.785 13.775172
56.790 13.634675
56.795 13.491504
56.800 12.875893
56.805 12.359318
56.810 12.082417
56.815 11.73953
56.820 11.581108
56.825 11.093617
56.830 10.631816
56.835 10.936992
56.840 12.018458
56.845 12.331687
56.850 12.454727
56.855 12.208322
56.860 12.622268
56.865 13.108163
56.870 12.989018
56.875 12.215171
56.880 11.825949
56.885 11.8127
56.890 12.199169
56.895 12.37536
56.900 12.492959
56.905 12.906805
56.910 13.24498
56.915 13.426408
56.920 13.068347
56.925 12.710605
56.930 12.799685
56.935 12.404126
56.940 11.983323
56.945 11.814453
56.950 11.7118
56.955 11.889259
56.960 11.672127
56.965 11.204846
56.970 11.392516
56.975 11.716731
56.980 11.946368
56.985 11.876903
56.990 12.111566
56.995 12.344965
57.000 12.798682
57.005 12.701113
57.010 12.231712
57.015 12.822511
57.020 12.815122
57.025 12.369413
57.030 12.171682
57.035 11.604416
57.040 11.565967
57.045 11.89205
57.050 11.654748
57.055 11.974825
57.060 12.127132
57.065 12.281073
57.070 12.530554
57.075 12.344112
57.080 11.855332
57.085 11.646579
57.090 11.746935
57.095 12.000547
57.100 12.120278
57.105 12.09116
57.110 12.444973
57.115 12.355647
57.120 12.268979
57.125 12.109713
57.130 11.787416
57.135 12.1346
57.140 12.547876
57.145 12.301869
57.150 12.109358
57.155 11.865335
57.160 11.847137
57.165 11.910346
57.170 12.148485
57.175 12.225811
57.180 12.684646
57.185 13.075409
57.190 13.059019
57.195 13.200318
57.200 12.860904
57.205 12.347609
57.210 11.930361
57.215 11.742509
57.220 11.903792
57.225 12.106301
57.230 12.166407
57.235 12.235517
57.240 12.249104
57.245 12.530589
57.250 12.294399
57.255 12.245234
57.260 12.367398
57.265 12.574992
57.270 12.813656
57.275 12.822684
57.280 13.036746
57.285 13.173788
57.290 13.036255
57.295 12.49732
57.300 12.492541
57.305 12.560183
57.310 13.0584
57.315 12.999836
57.320 13.238174
57.325 13.653515
57.330 13.966516
57.335 14.051336
57.340 13.650761
57.345 13.028117
57.350 12.455131
57.355 12.184313
57.360 11.844242
57.365 11.487714
57.370 11.431892
57.375 11.576234
57.380 11.634667
57.385 12.125088
57.390 12.341551
57.395 12.729876
57.400 12.990684
57.405 12.90221
57.410 12.840063
57.415 12.844931
57.420 12.920348
57.425 12.935291
57.430 13.14522
57.435 13.125704
57.440 13.335489
57.445 13.450275
57.450 13.137908
57.455 12.721272
57.460 12.666039
57.465 13.017483
57.470 12.768739
57.475 12.721122
57.480 12.920784
57.485 14.230577
57.490 14.87966
57.495 14.391274
57.500 13.929546
57.505 13.965933
57.510 14.041465
57.515 13.777851
57.520 13.175798
57.525 13.588354
57.530 13.742892
57.535 13.300375
57.540 13.268086
57.545 13.13772
57.550 12.977948
57.555 12.369236
57.560 11.582376
57.565 11.626559
57.570 11.902271
57.575 12.226164
57.580 12.420092
57.585 12.546829
57.590 13.219978
57.595 13.543802
57.600 13.963028
57.605 14.63438
57.610 14.556265
57.615 14.730746
57.620 14.286403
57.625 14.044811
57.630 13.75714
57.635 13.512612
57.640 13.359367
57.645 13.547505
57.650 13.321725
57.655 13.821927
57.660 13.635804
57.665 13.695502
57.670 13.181688
57.675 12.55549
57.680 12.427582
57.685 12.593534
57.690 12.533952
57.695 12.546699
57.700 12.87419
57.705 13.605719
57.710 14.058579
57.715 14.183818
57.720 13.78453
57.725 13.659219
57.730 13.762017
57.735 13.787225
57.740 13.470832
57.745 13.486197
57.750 13.233403
57.755 13.132586
57.760 12.820462
57.765 12.658095
57.770 12.984247
57.775 13.131258
57.780 12.806847
57.785 13.029737
57.790 13.721865
57.795 14.301108
57.800 14.584553
57.805 14.118016
57.810 13.657008
57.815 13.45366
57.820 13.492459
57.825 13.216692
57.830 13.171968
57.835 13.080749
57.840 13.030578
57.845 13.119516
57.850 13.150225
57.855 12.973774
57.860 12.841042
57.865 12.835876
57.870 13.075527
57.875 13.64815
57.880 14.118925
57.885 14.577826
57.890 14.89584
57.895 14.806952
57.900 14.627085
57.905 14.328903
57.910 14.171187
57.915 13.660953
57.920 13.739569
57.925 13.86896
57.930 14.597707
57.935 14.591449
57.940 14.459597
57.945 14.026008
57.950 14.119849
57.955 13.717021
57.960 13.437835
57.965 12.931821
57.970 12.895614
57.975 12.836657
57.980 13.44669
57.985 13.702304
57.990 13.649295
57.995 13.875216
58.000 13.956583
58.005 13.977841
58.010 14.405216
58.015 14.542455
58.020 14.452939
58.025 14.79366
58.030 15.143421
58.035 15.352278
58.040 16.138725
58.045 15.850598
58.050 16.153343
58.055 16.686464
58.060 16.465727
58.065 16.191191
58.070 15.946126
58.075 15.355165
58.080 15.28063
58.085 15.148522
58.090 14.686552
58.095 14.511639
58.100 14.60198
58.105 14.82061
58.110 15.008479
58.115 14.861233
58.120 14.548965
58.125 14.578346
58.130 15.024554
58.135 15.120508
58.140 14.849459
58.145 15.336496
58.150 15.172977
58.155 15.20948
58.160 15.328935
58.165 14.564124
58.170 14.47678
58.175 14.673851
58.180 14.483159
58.185 15.172379
58.190 15.053674
58.195 14.833266
58.200 14.891946
58.205 15.44233
58.210 15.892805
58.215 15.707614
58.220 15.284461
58.225 15.95066
58.230 16.694258
58.235 16.888784
58.240 16.416334
58.245 16.054483
58.250 16.389227
58.255 16.949087
58.260 17.135485
58.265 17.081238
58.270 17.12867
58.275 17.209677
58.280 17.006111
58.285 17.033697
58.290 17.142151
58.295 16.914059
58.300 16.791775
58.305 17.076792
58.310 17.325644
58.315 17.659773
58.320 17.195467
58.325 16.677635
58.330 16.29376
58.335 16.780478
58.340 17.237778
58.345 17.434958
58.350 18.408199
58.355 19.526661
58.360 19.678602
58.365 20.417015
58.370 20.747889
58.375 21.215494
58.380 21.333458
58.385 21.19792
58.390 20.950796
58.395 21.530937
58.400 21.251051
58.405 20.611092
58.410 19.807814
58.415 19.473881
58.420 19.839733
58.425 20.487465
58.430 20.512917
58.435 20.892956
58.440 21.407904
58.445 22.190474
58.450 22.568239
58.455 22.434128
58.460 23.097935
58.465 23.824183
58.470 23.947945
58.475 23.802654
58.480 23.898285
58.485 24.612057
58.490 24.65909
58.495 24.348932
58.500 24.483721
58.505 24.388927
58.510 24.892073
58.515 25.327267
58.520 25.512772
58.525 25.813747
58.530 26.370836
58.535 27.310102
58.540 28.577986
58.545 28.517864
58.550 28.543385
58.555 28.683422
58.560 29.376276
58.565 29.227573
58.570 28.995167
58.575 29.393883
58.580 30.512846
58.585 30.74369
58.590 31.833612
58.595 32.170788
58.600 32.493317
58.605 32.019726
58.610 32.452488
58.615 32.393288
58.620 32.035599
58.625 31.591965
58.630 32.073559
58.635 32.312206
58.640 32.885735
58.645 32.168892
58.650 32.198296
58.655 32.202065
58.660 31.818649
58.665 32.186638
58.670 32.154034
58.675 31.739717
58.680 31.616091
58.685 31.239578
58.690 31.642609
58.695 32.427658
58.700 32.303223
58.705 32.196941
58.710 32.246834
58.715 32.29187
58.720 32.811676
58.725 33.17979
58.730 32.539452
58.735 31.770426
58.740 31.762693
58.745 31.846855
58.750 31.751347
58.755 30.299997
58.760 29.405046
58.765 29.069075
58.770 28.667519
58.775 28.250042
58.780 27.692368
58.785 28.106318
58.790 27.968044
58.795 27.535652
58.800 26.734768
58.805 27.159212
58.810 26.969685
58.815 25.730164
58.820 25.286404
58.825 25.226624
58.830 25.153948
58.835 24.667324
58.840 24.495403
58.845 24.929771
58.850 25.315353
58.855 25.086069
58.860 25.652884
58.865 25.826672
58.870 26.047846
58.875 25.367243
58.880 24.821051
58.885 24.455105
58.890 23.836977
58.895 23.104208
58.900 22.265497
58.905 20.855282
58.910 21.014902
58.915 21.129782
58.920 20.819454
58.925 20.028433
58.930 19.984249
58.935 19.947176
58.940 19.997866
58.945 18.711409
58.950 17.638952
58.955 17.726898
58.960 17.950874
58.965 18.086929
58.970 17.818903
58.975 18.06159
58.980 18.58091
58.985 18.646774
58.990 18.322592
58.995 18.257935
59.000 18.211422
59.005 18.261274
59.010 18.078587
59.015 17.165722
59.020 17.056107
59.025 17.257122
59.030 16.89064
59.035 16.478203
59.040 16.51108
59.045 16.267218
59.050 16.884933
59.055 17.936182
59.060 18.123468
59.065 18.111429
59.070 18.053526
59.075 17.7964
59.080 18.025425
59.085 17.751057
59.090 16.841379
59.095 16.725479
59.100 16.622944
59.105 16.162916
59.110 15.989868
59.115 15.533099
59.120 14.776523
59.125 14.493305
59.130 14.020718
59.135 14.601007
59.140 15.611228
59.145 15.659688
59.150 15.734361
59.155 15.813807
59.160 15.86626
59.165 16.220495
59.170 15.741217
59.175 14.979877
59.180 14.963505
59.185 14.878332
59.190 15.014626
59.195 15.092245
59.200 15.085935
59.205 14.83306
59.210 14.38999
59.215 14.080194
59.220 13.6557
59.225 13.35593
59.230 12.989585
59.235 12.892346
59.240 13.279528
59.245 13.959835
59.250 13.815911
59.255 13.908624
59.260 13.921429
59.265 14.05221
59.270 14.608558
59.275 14.63054
59.280 14.442203
59.285 14.71728
59.290 14.583897
59.295 14.635286
59.300 14.404518
59.305 13.521952
59.310 13.344905
59.315 13.193535
59.320 13.171714
59.325 13.191807
59.330 13.346654
59.335 13.200513
59.340 12.989849
59.345 13.044518
59.350 13.194115
59.355 13.405959
59.360 13.4786
59.365 13.057237
59.370 13.371342
59.375 14.032536
59.380 14.152681
59.385 14.035538
59.390 14.220349
59.395 14.00573
59.400 14.12869
59.405 13.763786
59.410 13.152156
59.415 13.050606
59.420 12.752944
59.425 12.321199
59.430 13.001852
59.435 13.516204
59.440 13.764285
59.445 14.298023
59.450 14.811507
59.455 15.096829
59.460 15.602325
59.465 15.448449
59.470 15.649557
59.475 15.780374
59.480 15.892834
59.485 15.220594
59.490 15.515854
59.495 15.40008
59.500 14.785018
59.505 14.35897
59.510 14.25317
59.515 13.765399
59.520 14.033382
59.525 13.555536
59.530 13.160207
59.535 13.278646
59.540 12.974203
59.545 12.743931
59.550 13.104822
59.555 13.744245
59.560 14.031258
59.565 14.2906
59.570 14.152241
59.575 14.12765
59.580 14.641479
59.585 14.224318
59.590 13.608045
59.595 13.64802
59.600 14.09621
59.605 14.400731
59.610 14.553868
59.615 14.141376
59.620 14.241656
59.625 14.604628
59.630 14.810722
59.635 14.417436
59.640 14.300114
59.645 14.407315
59.650 14.16368
59.655 13.626734
59.660 13.096404
59.665 13.096972
59.670 13.300884
59.675 13.520683
59.680 13.432696
59.685 13.625077
59.690 14.038412
59.695 14.709409
59.700 15.140935
59.705 15.426563
59.710 15.392176
59.715 15.740654
59.720 15.866078
59.725 16.224459
59.730 16.113096
59.735 15.648893
59.740 15.503707
59.745 15.720241
59.750 15.304343
59.755 15.234658
59.760 14.821203
59.765 14.531739
59.770 14.540697
59.775 14.444891
59.780 13.674624
59.785 14.358886
59.790 14.51552
59.795 14.421634
59.800 14.406959
59.805 14.148464
59.810 14.500942
59.815 14.782307
59.820 14.465948
59.825 14.432052
59.830 14.491519
59.835 14.378419
59.840 14.337997
59.845 14.191499
59.850 14.090401
59.855 14.38028
59.860 14.032561
59.865 13.689637
59.870 13.476126
59.875 13.361728
59.880 13.858416
59.885 13.857397
59.890 13.403749
59.895 14.05786
59.900 14.880871
59.905 15.307519
59.910 15.148778
59.915 14.651871
59.920 14.479014
59.925 14.278773
59.930 13.736012
59.935 13.980895
59.940 13.941007
59.945 13.900673
59.950 14.09931
59.955 14.551695
59.960 14.617201
59.965 14.869878
59.970 14.423682
59.975 14.334289
59.980 14.359222
59.985 14.306107
59.990 13.909893
59.995 14.2287
60.000 14.803762
60.005 15.272292
60.010 15.594556
60.015 15.244226
60.020 14.823073
60.025 14.98794
60.030 14.235101
60.035 13.163997
60.040 12.6933
60.045 12.436859
60.050 12.418058
60.055 12.690859
60.060 13.056043
60.065 13.538569
60.070 13.529561
60.075 13.406643
60.080 13.306456
60.085 13.470545
60.090 13.75143
60.095 13.350194
60.100 13.387359
60.105 13.747545
60.110 13.967723
60.115 14.020688
60.120 14.474078
60.125 14.006721
60.130 13.928501
60.135 14.219581
60.140 14.336052
60.145 13.991376
60.150 13.759466
60.155 13.820241
60.160 14.291708
60.165 14.563473
60.170 14.231181
60.175 14.226112
60.180 14.403505
60.185 14.458734
60.190 14.031586
60.195 13.783669
60.200 13.539116
60.205 13.453514
60.210 13.191249
60.215 13.164529
60.220 12.658886
60.225 12.321135
60.230 12.324261
60.235 12.082242
60.240 12.11877
60.245 12.539562
60.250 12.913428
60.255 13.2856
60.260 13.356934
60.265 13.100751
60.270 13.641923
60.275 13.984396
60.280 14.324403
60.285 14.556614
60.290 14.778238
60.295 14.862731
60.300 14.866914
60.305 14.716002
60.310 14.60451
60.315 14.128269
60.320 13.941763
60.325 13.521624
60.330 13.342758
60.335 13.466127
60.340 13.667458
60.345 13.726528
60.350 13.59271
60.355 13.302311
60.360 13.613738
60.365 13.493207
60.370 13.787125
60.375 13.702681
60.380 13.688614
60.385 13.938711
60.390 14.621087
60.395 14.779397
60.400 15.209493
60.405 15.310064
60.410 15.6601
60.415 15.4851
60.420 16.033957
60.425 15.755901
60.430 16.278732
60.435 15.935038
60.440 15.212548
60.445 14.724663
60.450 14.476588
60.455 13.576632
60.460 13.576997
60.465 13.812618
60.470 14.169763
60.475 14.590113
60.480 14.84797
60.485 15.279881
60.490 15.653713
60.495 15.499631
60.500 15.021943
60.505 14.927224
60.510 15.068193
60.515 15.11657
60.520 14.846519
60.525 14.50986
60.530 14.020225
60.535 14.363801
60.540 14.616465
60.545 14.771327
60.550 14.369464
60.555 14.666186
60.560 15.124346
60.565 15.870052
60.570 15.640984
60.575 15.119143
60.580 14.601889
60.585 14.890651
60.590 14.099294
60.595 14.336018
60.600 13.88255
60.605 13.591768
60.610 13.746859
60.615 13.766675
60.620 13.811363
60.625 14.379429
60.630 13.752517
60.635 13.733591
60.640 14.047346
60.645 14.171295
60.650 13.997517
60.655 13.76993
60.660 13.878702
60.665 14.525267
60.670 14.989165
60.675 14.777691
60.680 15.180658
60.685 15.444751
60.690 15.39949
60.695 14.911241
60.700 14.451069
60.705 14.187922
60.710 13.98099
60.715 13.433159
60.720 13.704804
60.725 14.336582
60.730 14.83314
60.735 14.909201
60.740 14.540344
60.745 14.642488
60.750 15.093534
60.755 14.870642
60.760 15.211263
60.765 15.440145
60.770 15.55462
60.775 15.757586
60.780 15.717369
60.785 15.439821
60.790 15.315958
60.795 14.722491
60.800 14.868265
60.805 15.389379
60.810 15.697243
60.815 15.977513
60.820 15.635833
60.825 15.310055
60.830 14.927202
60.835 14.651369
60.840 14.072642
60.845 14.041759
60.850 13.558228
60.855 14.110931
60.860 14.553817
60.865 14.780314
60.870 14.732624
60.875 15.004387
60.880 14.986313
60.885 15.830087
60.890 15.658698
60.895 15.573892
60.900 15.483836
60.905 15.538995
60.910 15.649059
60.915 16.281885
60.920 15.794956
60.925 16.004274
60.930 16.001732
60.935 16.079607
60.940 15.626512
60.945 15.325329
60.950 14.072198
60.955 13.622725
60.960 13.038151
60.965 12.726201
60.970 12.113017
60.975 12.209819
60.980 12.258249
60.985 13.08219
60.990 13.621454
60.995 13.865731
61.000 14.343585
61.005 15.117339
61.010 15.029714
61.015 15.089602
61.020 14.958553
61.025 15.114976
61.030 15.123124
61.035 15.368054
61.040 15.386361
61.045 15.569803
61.050 15.54449
61.055 16.014769
61.060 15.83753
61.065 15.904623
61.070 15.589808
61.075 15.528551
61.080 15.465059
61.085 15.45727
61.090 14.251964
61.095 14.448804
61.100 13.905518
61.105 13.757788
61.110 14.152942
61.115 14.34094
61.120 14.225791
61.125 14.684926
61.130 14.210201
61.135 14.603631
61.140 13.968056
61.145 13.334134
61.150 13.196244
61.155 13.19108
61.160 13.868456
61.165 14.158791
61.170 14.238703
61.175 14.624143
61.180 14.700065
61.185 14.644349
61.190 14.167753
61.195 13.330664
61.200 13.734181
61.205 14.23778
61.210 14.510849
61.215 14.662947
61.220 14.928726
61.225 15.834944
61.230 16.5347
61.235 16.153994
61.240 15.384183
61.245 15.291826
61.250 15.394901
61.255 15.323041
61.260 15.365164
61.265 15.223689
61.270 14.461226
61.275 14.498883
61.280 14.618484
61.285 14.476775
61.290 14.374701
61.295 13.957026
61.300 13.57744
61.305 13.981153
61.310 13.784961
61.315 13.527114
61.320 13.76811
61.325 14.535955
61.330 14.524443
61.335 14.761721
61.340 15.356673
61.345 15.74668
61.350 15.741662
61.355 16.113707
61.360 15.538036
61.365 15.310674
61.370 15.208838
61.375 14.886639
61.380 14.772439
61.385 14.888771
61.390 14.522902
61.395 14.441148
61.400 14.923873
61.405 15.67927
61.410 16.439339
61.415 16.568575
61.420 16.323999
61.425 15.949726
61.430 15.980071
61.435 15.983219
61.440 15.307856
61.445 15.052869
61.450 15.161453
61.455 15.247647
61.460 14.892106
61.465 14.328441
61.470 13.972942
61.475 14.283255
61.480 14.074786
61.485 14.112555
61.490 13.70529
61.495 14.178557
61.500 14.388729
61.505 14.290028
61.510 14.144913
61.515 14.007692
61.520 13.944163
61.525 14.689595
61.530 14.979628
61.535 15.234373
61.540 15.740246
61.545 15.791703
61.550 15.855433
61.555 16.152666
61.560 16.086517
61.565 15.78406
61.570 15.778048
61.575 15.722902
61.580 15.791209
61.585 16.096863
61.590 16.08777
61.595 15.957548
61.600 16.188951
61.605 16.391846
61.610 16.292397
61.615 15.953793
61.620 15.089323
61.625 14.661224
61.630 14.88498
61.635 14.829356
61.640 14.906981
61.645 14.43266
61.650 14.609784
61.655 14.867903
61.660 15.35789
61.665 15.215332
61.670 15.523064
61.675 15.809264
61.680 16.681601
61.685 16.697474
61.690 16.9505
61.695 16.674772
61.700 16.318096
61.705 15.645673
61.710 14.96194
61.715 14.460216
61.720 14.389126
61.725 14.634771
61.730 15.00632
61.735 15.574191
61.740 15.671493
61.745 15.439952
61.750 15.073753
61.755 14.604059
61.760 13.989755
61.765 13.225975
61.770 13.036318
61.775 13.707713
61.780 13.791352
61.785 14.152069
61.790 14.716853
61.795 14.902458
61.800 15.686994
61.805 16.160166
61.810 16.018505
61.815 16.548262
61.820 16.763515
61.825 17.693537
61.830 18.09012
61.835 17.696686
61.840 17.373219
61.845 17.185339
61.850 17.129021
61.855 17.321856
61.860 16.745455
61.865 16.76103
61.870 17.266853
61.875 17.574968
61.880 18.006159
61.885 17.856878
61.890 17.402948
61.895 17.161377
61.900 16.880207
61.905 15.979378
61.910 15.415476
61.915 14.902187
61.920 15.320145
61.925 15.080821
61.930 14.828232
61.935 15.027432
61.940 15.261503
61.945 15.679235
61.950 15.33143
61.955 15.307755
61.960 16.246075
61.965 16.61746
61.970 16.446568
61.975 16.52759
61.980 16.202332
61.985 16.301813
61.990 15.526246
61.995 14.093908
62.000 13.846839
62.005 14.105147
62.010 13.98943
62.015 14.379208
62.020 14.860428
62.025 15.415751
62.030 15.982972
62.035 15.651814
62.040 15.145778
62.045 15.395343
62.050 15.22842
62.055 14.92524
62.060 14.542274
62.065 14.57845
62.070 14.836422
62.075 15.013763
62.080 14.471643
62.085 14.928405
62.090 15.45011
62.095 15.921794
62.100 16.20993
62.105 16.513407
62.110 16.684542
62.115 16.92288
62.120 15.994853
62.125 15.383536
62.130 15.348218
62.135 15.47751
62.140 15.85599
62.145 15.972104
62.150 16.273773
62.155 16.463974
62.160 16.746696
62.165 16.441027
62.170 16.44607
62.175 16.26964
62.180 15.989711
62.185 15.631706
62.190 16.026653
62.195 16.449986
62.200 16.099373
62.205 15.342227
62.210 15.480496
62.215 15.390566
62.220 15.212064
62.225 14.571488
62.230 13.805106
62.235 14.395477
62.240 14.739027
62.245 14.440159
62.250 14.388588
62.255 14.707628
62.260 14.807878
62.265 15.222909
62.270 15.475324
62.275 15.096258
62.280 14.646555
62.285 14.649289
62.290 14.573495
62.295 14.628651
62.300 14.206921
62.305 14.00008
62.310 14.639326
62.315 15.283065
62.320 15.759184
62.325 15.63296
62.330 15.712976
62.335 16.025425
62.340 16.117126
62.345 16.061306
62.350 15.743691
62.355 15.71345
62.360 16.028015
62.365 16.05801
62.370 15.992345
62.375 15.244599
62.380 15.11963
62.385 15.478215
62.390 15.507051
62.395 15.175331
62.400 15.372325
62.405 15.570333
62.410 16.359709
62.415 16.977518
62.420 16.695074
62.425 16.529652
62.430 16.394342
62.435 16.368759
62.440 16.318306
62.445 15.651104
62.450 15.892177
62.455 16.037537
62.460 16.30003
62.465 17.239079
62.470 16.937878
62.475 17.093674
62.480 17.620304
62.485 16.968958
62.490 17.009211
62.495 16.96912
62.500 16.293976
62.505 15.878928
62.510 16.12524
62.515 16.315224
62.520 16.628109
62.525 16.076097
62.530 16.07011
62.535 16.240826
62.540 16.491034
62.545 15.411791
62.550 14.363317
62.555 13.989013
62.560 14.061349
62.565 13.651245
62.570 13.299462
62.575 13.399541
62.580 14.048062
62.585 14.318976
62.590 14.36716
62.595 14.427529
62.600 14.720912
62.605 15.347752
62.610 15.700244
62.615 15.619777
62.620 15.919821
62.625 16.235519
62.630 16.53315
62.635 16.481009
62.640 16.131887
62.645 16.1542
62.650 16.253052
62.655 15.665523
62.660 15.233395
62.665 14.867745
62.670 15.063101
62.675 15.269058
62.680 15.090055
62.685 15.261697
62.690 16.504301
62.695 16.985186
62.700 16.962147
62.705 17.144365
62.710 17.114389
62.715 17.126551
62.720 17.098808
62.725 16.198397
62.730 15.878795
62.735 15.984821
62.740 15.540329
62.745 15.297113
62.750 15.297768
62.755 15.392763
62.760 15.888458
62.765 16.255552
62.770 16.434713
62.775 16.665714
62.780 16.76058
62.785 16.720287
62.790 16.290989
62.795 16.038982
62.800 15.724833
62.805 15.868388
62.810 15.744103
62.815 15.617051
62.820 15.486602
62.825 15.456462
62.830 14.584395
62.835 14.695051
62.840 14.59886
62.845 15.009181
62.850 15.342914
62.855 15.555125
62.860 15.565094
62.865 16.36405
62.870 16.210148
62.875 15.769997
62.880 15.410647
62.885 14.97931
62.890 14.936018
62.895 15.068171
62.900 14.986558
62.905 15.242453
62.910 15.612214
62.915 15.389147
62.920 15.111753
62.925 15.332054
62.930 15.49814
62.935 15.44015
62.940 14.950827
62.945 14.420701
62.950 14.650128
62.955 15.005702
62.960 14.883498
62.965 14.510698
62.970 14.676799
62.975 15.280391
62.980 15.556755
62.985 15.691742
62.990 16.097342
62.995 16.183372
63.000 16.728687
63.005 16.341692
63.010 15.936074
63.015 15.865999
63.020 16.031099
63.025 15.937004
63.030 16.153194
63.035 16.110325
63.040 16.032066
63.045 16.468573
63.050 16.77062
63.055 16.096651
63.060 15.762956
63.065 15.648684
63.070 15.89887
63.075 16.206226
63.080 15.378009
63.085 14.982827
63.090 15.252371
63.095 14.65832
63.100 14.284863
63.105 14.053365
63.110 13.831228
63.115 13.962574
63.120 13.763433
63.125 13.945375
63.130 14.77868
63.135 14.90496
63.140 15.296393
63.145 15.33114
63.150 15.617023
63.155 15.858147
63.160 15.889326
63.165 15.780341
63.170 15.990039
63.175 15.746158
63.180 16.237907
63.185 16.501148
63.190 16.832075
63.195 16.562784
63.200 16.237003
63.205 16.471699
63.210 16.167982
63.215 15.458486
63.220 15.020293
63.225 15.017852
63.230 15.136662
63.235 15.017689
63.240 14.409371
63.245 14.982908
63.250 15.28103
63.255 15.658587
63.260 15.51054
63.265 15.572187
63.270 15.723718
63.275 16.139582
63.280 15.715887
63.285 15.584571
63.290 15.350237
63.295 15.54543
63.300 15.747707
63.305 15.713715
63.310 15.444113
63.315 15.660153
63.320 16.110739
63.325 16.091686
63.330 16.074009
63.335 16.083977
63.340 16.471722
63.345 16.625046
63.350 16.89809
63.355 17.466307
63.360 18.011829
63.365 18.166187
63.370 18.042292
63.375 17.460897
63.380 17.664621
63.385 17.37557
63.390 16.691946
63.395 16.855684
63.400 16.993622
63.405 16.998699
63.410 17.062881
63.415 16.686546
63.420 16.475203
63.425 16.201887
63.430 15.449752
63.435 14.973328
63.440 15.135879
63.445 15.738432
63.450 16.338533
63.455 17.493437
63.460 17.841753
63.465 18.128736
63.470 17.882593
63.475 18.414618
63.480 17.96538
63.485 17.534218
63.490 17.030651
63.495 17.2379
63.500 17.902275
63.505 18.008749
63.510 17.704794
63.515 17.288218
63.520 17.492992
63.525 17.183859
63.530 16.840508
63.535 16.953993
63.540 17.000208
63.545 17.057014
63.550 17.23147
63.555 16.813997
63.560 17.09741
63.565 17.196213
63.570 17.000208
63.575 17.010912
63.580 16.862194
63.585 17.010448
63.590 17.484127
63.595 16.75457
63.600 15.971483
63.605 15.310448
63.610 15.275456
63.615 15.421121
63.620 15.397763
63.625 14.97472
63.630 15.489738
63.635 16.276915
63.640 17.23912
63.645 17.36302
63.650 17.273876
63.655 17.133184
63.660 17.277887
63.665 17.072023
63.670 17.137289
63.675 16.846943
63.680 16.653519
63.685 17.181601
63.690 17.623013
63.695 17.389425
63.700 17.365314
63.705 17.164886
63.710 16.970552
63.715 17.074001
63.720 16.402445
63.725 16.253185
63.730 16.511826
63.735 16.51516
63.740 16.102528
63.745 16.003199
63.750 15.340635
63.755 15.551374
63.760 15.674127
63.765 15.870342
63.770 15.909499
63.775 16.383646
63.780 16.516722
63.785 17.34326
63.790 17.585493
63.795 17.769091
63.800 17.672829
63.805 17.757584
63.810 17.221926
63.815 17.238106
63.820 17.164305
63.825 16.901176
63.830 16.744778
63.835 17.141983
63.840 17.746502
63.845 19.19301
63.850 19.426952
63.855 19.01762
63.860 18.592196
63.865 18.899397
63.870 19.153202
63.875 19.118876
63.880 18.719898
63.885 19.133553
63.890 18.951385
63.895 19.19846
63.900 19.097366
63.905 19.315668
63.910 18.879234
63.915 17.90202
63.920 17.029999
63.925 17.690285
63.930 18.180082
63.935 17.89061
63.940 17.318533
63.945 17.701799
63.950 18.821688
63.955 19.672104
63.960 19.923334
63.965 19.781057
63.970 19.816566
63.975 19.508062
63.980 18.999832
63.985 18.755091
63.990 18.803438
63.995 18.77746
64.000 18.771418
64.005 19.453505
64.010 20.585693
64.015 21.42285
64.020 21.593437
64.025 21.98457
64.030 21.809809
64.035 21.825821
64.040 21.828213
64.045 21.443604
64.050 21.652472
64.055 21.474106
64.060 21.342958
64.065 21.783293
64.070 21.702581
64.075 21.647638
64.080 21.367172
64.085 21.423141
64.090 21.672281
64.095 22.049976
64.100 22.024115
64.105 22.523117
64.110 22.944866
64.115 23.527657
64.120 23.732235
64.125 24.31233
64.130 24.282707
64.135 24.546761
64.140 24.713303
64.145 24.933741
64.150 25.04825
64.155 24.643749
64.160 25.602993
64.165 26.315842
64.170 26.849396
64.175 26.793215
64.180 26.927496
64.185 28.065948
64.190 28.734554
64.195 28.557997
64.200 29.207989
64.205 29.40781
64.210 29.829176
64.215 30.255638
64.220 30.513966
64.225 31.272541
64.230 31.747828
64.235 31.586342
64.240 32.309032
64.245 33.07539
64.250 32.952499
64.255 34.06448
64.260 35.337879
64.265 35.76268
64.270 36.984058
64.275 37.03344
64.280 37.725391
64.285 38.817394
64.290 39.413277
64.295 39.920219
64.300 40.669495
64.305 40.606991
64.310 41.174187
64.315 41.569191
64.320 42.547821
64.325 42.377094
64.330 41.736198
64.335 41.536274
64.340 41.961079
64.345 42.88158
64.350 43.725204
64.355 43.407578
64.360 44.121002
64.365 45.19305
64.370 45.841503
64.375 45.896397
64.380 45.882866
64.385 45.27877
64.390 45.58511
64.395 45.881714
64.400 45.933147
64.405 46.938519
64.410 47.212189
64.415 47.494617
64.420 48.103222
64.425 48.484184
64.430 48.436749
64.435 48.570625
64.440 48.160187
64.445 48.065762
64.450 47.777931
64.455 47.858696
64.460 48.004242
64.465 48.304848
64.470 47.737743
64.475 47.447369
64.480 48.141335
64.485 48.462975
64.490 48.381462
64.495 47.759033
64.500 46.710278
64.505 46.018539
64.510 45.264751
64.515 43.956036
64.520 42.560093
64.525 41.397446
64.530 41.45718
64.535 41.734612
64.540 41.673611
64.545 41.965576
64.550 41.888134
64.555 42.039303
64.560 41.543335
64.565 40.407879
64.570 39.170406
64.575 38.539143
64.580 37.684074
64.585 36.516056
64.590 35.840336
64.595 35.986515
64.600 36.086739
64.605 36.011608
64.610 35.917843
64.615 35.558712
64.620 35.701637
64.625 35.620522
64.630 35.208073
64.635 34.655876
64.640 34.093258
64.645 34.159962
64.650 34.271442
64.655 33.95924
64.660 33.234653
64.665 32.568321
64.670 31.920229
64.675 30.992193
64.680 29.764141
64.685 29.926306
64.690 29.559263
64.695 29.092304
64.700 28.857676
64.705 27.792862
64.710 27.014025
64.715 26.865767
64.720 26.263636
64.725 25.57012
64.730 25.102781
64.735 24.341547
64.740 24.636158
64.745 24.50456
64.750 23.627569
64.755 22.752422
64.760 22.954866
64.765 23.358706
64.770 23.644075
64.775 23.049515
64.780 22.562052
64.785 22.744772
64.790 23.104603
64.795 22.94536
64.800 22.571669
64.805 22.675545
64.810 23.236841
64.815 23.968277
64.820 23.973122
64.825 23.831627
64.830 23.86277
64.835 24.397303
64.840 24.064535
64.845 23.650351
64.850 22.790981
64.855 22.533743
64.860 22.691404
64.865 22.46842
64.870 21.790623
64.875 21.952612
64.880 22.568188
64.885 22.961069
64.890 22.541265
64.895 22.439116
64.900 22.736565
64.905 23.221411
64.910 23.111139
64.915 22.95167
64.920 23.319956
64.925 23.33843
64.930 23.057497
64.935 23.214565
64.940 23.071878
64.945 22.837431
64.950 22.252972
64.955 22.313278
64.960 22.682093
64.965 23.174316
64.970 23.304235
64.975 23.676092
64.980 24.352806
64.985 25.584402
64.990 25.698662
64.995 25.514221
65.000 25.420954
65.005 24.788832
65.010 24.865257
65.015 24.832453
65.020 25.775282
65.025 26.705597
65.030 27.307858
65.035 27.966372
65.040 28.143009
65.045 28.347252
65.050 28.967443
65.055 27.782198
65.060 27.600637
65.065 27.76897
65.070 28.215601
65.075 29.393747
65.080 29.883677
65.085 29.733408
65.090 30.667027
65.095 31.020592
65.100 31.827812
65.105 32.11417
65.110 32.778347
65.115 32.907879
65.120 32.337696
65.125 32.506165
65.130 32.941212
65.135 32.490524
65.140 32.247223
65.145 31.84915
65.150 31.867611
65.155 32.742634
65.160 32.921055
65.165 33.619888
65.170 34.800632
65.175 34.423969
65.180 33.889252
65.185 34.479332
65.190 34.754589
65.195 34.561962
65.200 34.603523
65.205 34.204166
65.210 34.907162
65.215 35.275532
65.220 34.979881
65.225 35.310028
65.230 36.48032
65.235 36.302155
65.240 36.359192
65.245 36.921249
65.250 37.27142
65.255 37.716335
65.260 37.001537
65.265 36.38311
65.270 35.728222
65.275 35.686752
65.280 35.24445
65.285 35.151348
65.290 35.118256
65.295 35.857727
65.300 36.394516
65.305 37.022442
65.310 37.165321
65.315 37.520805
65.320 37.358715
65.325 38.025902
65.330 38.4566
65.335 38.135918
65.340 37.959084
65.345 38.056637
65.350 38.178982
65.355 38.297508
65.360 37.7686
65.365 36.881474
65.370 37.444496
65.375 37.397827
65.380 37.10318
65.385 37.227036
65.390 36.765106
65.395 36.545818
65.400 36.196899
65.405 34.952232
65.410 35.142803
65.415 35.722057
65.420 36.305626
65.425 36.818165
65.430 37.642311
65.435 38.795662
65.440 39.074856
65.445 38.646252
65.450 37.580734
65.455 37.55394
65.460 38.231956
65.465 38.113235
65.470 38.156914
65.475 39.268105
65.480 39.625809
65.485 40.038719
65.490 39.689453
65.495 38.817421
65.500 38.308102
65.505 38.139149
65.510 38.273888
65.515 38.677834
65.520 38.684822
65.525 38.264233
65.530 38.205658
65.535 38.010159
65.540 36.901321
65.545 36.075977
65.550 36.050716
65.555 35.733238
65.560 35.960899
65.565 36.376129
65.570 36.439198
65.575 37.708378
65.580 38.712856
65.585 38.40657
65.590 39.401432
65.595 39.218132
65.600 38.816013
65.605 38.879684
65.610 38.379707
65.615 38.13356
65.620 37.566051
65.625 36.729038
65.630 36.207081
65.635 35.775536
65.640 35.661304
65.645 35.627407
65.650 35.093773
65.655 35.440132
65.660 35.410622
65.665 35.008633
65.670 35.777706
65.675 35.997692
65.680 35.843349
65.685 36.360794
65.690 37.072762
65.695 36.731049
65.700 37.287823
65.705 36.247341
65.710 35.927845
65.715 35.067398
65.720 33.589123
65.725 32.782631
65.730 32.74369
65.735 32.501366
65.740 32.244831
65.745 31.938681
65.750 31.99402
65.755 32.246803
65.760 31.430693
65.765 30.961241
65.770 30.552372
65.775 30.476
65.780 30.426868
65.785 30.312397
65.790 29.486164
65.795 29.523432
65.800 29.348434
65.805 29.006878
65.810 28.314346
65.815 27.19923
65.820 27.453699
65.825 27.5749
65.830 27.371166
65.835 27.173201
65.840 27.578386
65.845 28.399706
65.850 28.145769
65.855 27.080374
65.860 26.852507
65.865 26.531635
65.870 26.396729
65.875 25.777153
65.880 25.032404
65.885 25.06942
65.890 24.736217
65.895 24.618279
65.900 24.871983
65.905 23.990513
65.910 23.225174
65.915 23.108822
65.920 23.867815
65.925 23.447004
65.930 22.591829
65.935 22.073576
65.940 22.625589
65.945 23.111729
65.950 22.731594
65.955 21.918215
65.960 22.604959
65.965 22.320158
65.970 22.199316
65.975 22.376976
65.980 22.530186
65.985 22.105467
65.990 21.585943
65.995 20.714607
66.000 21.005585
66.005 21.184126
66.010 21.207281
66.015 21.192921
66.020 21.292183
66.025 21.400797
66.030 21.223831
66.035 20.337397
66.040 20.183323
66.045 19.768328
66.050 19.68944
66.055 20.027082
66.060 20.321651
66.065 20.743225
66.070 20.984196
66.075 20.428522
66.080 19.881998
66.085 19.838095
66.090 20.08312
66.095 19.718868
66.100 19.743763
66.105 19.742735
66.110 19.975456
66.115 20.162863
66.120 19.642027
66.125 19.319187
66.130 19.17308
66.135 19.469107
66.140 19.328154
66.145 18.986145
66.150 19.105907
66.155 19.358236
66.160 19.098213
66.165 18.810253
66.170 17.689241
66.175 17.649038
66.180 17.553038
66.185 17.421003
66.190 17.723484
66.195 17.627592
66.200 17.993406
66.205 18.751337
66.210 18.859703
66.215 18.999756
66.220 18.759262
66.225 18.015833
66.230 17.791561
66.235 17.839819
66.240 17.708057
66.245 17.440214
66.250 17.477631
66.255 18.043716
66.260 18.786011
66.265 19.360289
66.270 19.252962
66.275 18.575159
66.280 18.496775
66.285 18.87258
66.290 18.905596
66.295 18.194256
66.300 17.962492
66.305 17.816988
66.310 18.524094
66.315 18.733997
66.320 17.892679
66.325 17.766687
66.330 17.533773
66.335 17.124029
66.340 17.181059
66.345 17.154369
66.350 17.425016
66.355 18.24654
66.360 18.4046
66.365 18.813101
66.370 19.000586
66.375 19.098354
66.380 19.099657
66.385 18.653433
66.390 17.845085
66.395 17.68421
66.400 17.76457
66.405 17.708797
66.410 16.950291
66.415 16.592932
66.420 16.520939
66.425 16.520914
66.430 16.502895
66.435 16.2663
66.440 16.065731
66.445 16.571482
66.450 16.199753
66.455 15.96053
66.460 15.848591
66.465 16.054411
66.470 16.397955
66.475 16.939615
66.480 17.219795
66.485 17.52813
66.490 17.898636
66.495 18.102554
66.500 17.603945
66.505 17.439337
66.510 17.413345
66.515 17.484854
66.520 17.496847
66.525 17.56226
66.530 17.38192
66.535 17.238398
66.540 17.059233
66.545 16.254314
66.550 16.183002
66.555 16.528599
66.560 16.37253
66.565 16.777761
66.570 17.061674
66.575 17.096598
66.580 17.174986
66.585 17.005402
66.590 16.998865
66.595 16.737892
66.600 16.409573
66.605 16.585958
66.610 17.023169
66.615 17.574228
66.620 17.704983
66.625 17.846083
66.630 18.58861
66.635 19.200367
66.640 19.174381
66.645 19.012939
66.650 19.229956
66.655 19.339043
66.660 19.429222
66.665 18.770489
66.670 18.278786
66.675 18.491577
66.680 19.044134
66.685 18.84116
66.690 19.207811
66.695 19.193727
66.700 18.755064
66.705 19.256668
66.710 19.228907
66.715 18.380846
66.720 18.363567
66.725 17.804993
66.730 17.688444
66.735 17.726044
66.740 17.350697
66.745 17.409834
66.750 17.345556
66.755 16.973457
66.760 16.934074
66.765 16.98877
66.770 16.958536
66.775 16.87306
66.780 16.909508
66.785 16.990957
66.790 16.576187
66.795 16.644238
66.800 16.649759
66.805 17.370396
66.810 17.043682
66.815 16.456312
66.820 16.069357
66.825 16.239237
66.830 16.225218
66.835 16.228477
66.840 15.716736
66.845 15.66559
66.850 15.85131
66.855 15.991871
66.860 16.407915
66.865 16.446644
66.870 16.800009
66.875 17.028952
66.880 17.17337
66.885 17.090895
66.890 17.499935
66.895 18.357359
66.900 18.348122
66.905 17.930773
66.910 17.658529
66.915 18.060696
66.920 18.202595
66.925 18.145445
66.930 17.657244
66.935 17.943916
66.940 18.631048
66.945 18.827158
66.950 18.886904
66.955 19.210558
66.960 19.107086
66.965 19.415886
66.970 19.546833
66.975 19.166431
66.980 19.205898
66.985 19.060875
66.990 19.17757
66.995 19.235334
67.000 18.904299
67.005 18.634148
67.010 18.779259
67.015 18.499432
67.020 18.629114
67.025 18.652195
67.030 18.493998
67.035 17.911594
67.040 17.365864
67.045 17.002539
67.050 17.16387
67.055 16.320583
67.060 16.408831
67.065 16.446579
67.070 17.446386
67.075 18.370699
67.080 18.864338
67.085 18.936916
67.090 19.855055
67.095 19.78858
67.100 19.953461
67.105 19.609251
67.110 18.800291
67.115 18.964027
67.120 19.400091
67.125 19.013378
67.130 19.268177
67.135 19.275131
67.140 18.65309
67.145 18.375433
67.150 17.81638
67.155 17.896219
67.160 17.821882
67.165 17.388208
67.170 17.700821
67.175 17.944658
67.180 18.803007
67.185 18.914427
67.190 18.536888
67.195 18.72691
67.200 18.558636
67.205 18.373892
67.210 18.798487
67.215 18.43656
67.220 18.686037
67.225 18.456894
67.230 18.501734
67.235 18.352591
67.240 18.54743
67.245 19.02494
67.250 19.233212
67.255 18.898161
67.260 18.973061
67.265 18.962025
67.270 19.571644
67.275 19.270346
67.280 18.574724
67.285 18.228077
67.290 18.018991
67.295 18.161728
67.300 17.782309
67.305 17.454277
67.310 17.284143
67.315 16.984791
67.320 17.299086
67.325 17.351505
67.330 17.271486
67.335 17.66432
67.340 17.437576
67.345 16.960676
67.350 16.886501
67.355 16.448996
67.360 16.949898
67.365 17.17136
67.370 17.035927
67.375 17.155731
67.380 17.64192
67.385 17.853455
67.390 17.677109
67.395 17.589964
67.400 17.334208
67.405 17.581261
67.410 18.050228
67.415 17.577188
67.420 17.492996
67.425 17.879639
67.430 17.906769
67.435 18.017246
67.440 17.811787
67.445 17.564663
67.450 17.789074
67.455 18.389847
67.460 18.377073
67.465 18.30022
67.470 18.068077
67.475 17.853279
67.480 17.936733
67.485 17.586828
67.490 17.168455
67.495 16.562754
67.500 16.709946
67.505 16.760473
67.510 16.756348
67.515 17.162184
67.520 17.684475
67.525 17.483091
67.530 17.754337
67.535 17.474182
67.540 17.80411
67.545 17.856218
67.550 17.687525
67.555 18.169729
67.560 18.442926
67.565 18.196003
67.570 18.032259
67.575 17.895573
67.580 18.176727
67.585 18.185488
67.590 18.081211
67.595 18.369686
67.600 18.838703
67.605 18.863422
67.610 19.005173
67.615 19.213125
67.620 19.215969
67.625 18.862146
67.630 18.515608
67.635 18.284042
67.640 18.494404
67.645 18.37289
67.650 18.006264
67.655 17.599136
67.660 17.774834
67.665 17.606291
67.670 17.85552
67.675 17.669743
67.680 17.75272
67.685 17.735579
67.690 18.27939
67.695 17.898468
67.700 17.899696
67.705 18.060791
67.710 17.959881
67.715 17.832533
67.720 18.281136
67.725 18.191833
67.730 18.135353
67.735 18.122431
67.740 17.894848
67.745 18.378006
67.750 18.444
67.755 18.314268
67.760 17.950747
67.765 18.618387
67.770 18.936234
67.775 18.974119
67.780 18.472879
67.785 18.190554
67.790 17.926374
67.795 17.922277
67.800 18.040354
67.805 17.645275
67.810 17.343601
67.815 17.703671
67.820 17.90539
67.825 17.851755
67.830 17.754999
67.835 17.635025
67.840 17.560513
67.845 17.833059
67.850 17.407921
67.855 17.630903
67.860 17.738256
67.865 17.925007
67.870 18.074646
67.875 18.603321
67.880 18.522942
67.885 18.862276
67.890 19.026104
67.895 19.321123
67.900 19.267155
67.905 18.998032
67.910 18.907906
67.915 18.455389
67.920 17.980402
67.925 18.06016
67.930 18.360413
67.935 18.370741
67.940 18.600651
67.945 18.938969
67.950 19.2335
67.955 19.360651
67.960 18.464365
67.965 17.790342
67.970 18.023968
67.975 17.821369
67.980 17.531891
67.985 17.686071
67.990 17.537947
67.995 17.972235
68.000 18.986208
68.005 19.197756
68.010 19.720465
68.015 20.221079
68.020 20.820633
68.025 21.200983
68.030 20.955496
68.035 21.037111
68.040 20.617064
68.045 20.498455
68.050 20.138004
68.055 19.827707
68.060 19.743773
68.065 19.688879
68.070 19.295107
68.075 19.027073
68.080 18.818718
68.085 19.349586
68.090 19.478437
68.095 19.657642
68.100 19.388683
68.105 19.881283
68.110 19.809961
68.115 19.192347
68.120 18.666096
68.125 18.971466
68.130 19.237015
68.135 19.736404
68.140 19.327497
68.145 19.381166
68.150 19.343285
68.155 19.369747
68.160 18.618193
68.165 18.428087
68.170 17.852791
68.175 17.345985
68.180 17.487972
68.185 17.953524
68.190 18.444847
68.195 18.658047
68.200 18.441629
68.205 19.285927
68.210 19.981882
68.215 20.381386
68.220 19.539495
68.225 19.246801
68.230 19.787119
68.235 19.981749
68.240 19.876081
68.245 19.664228
68.250 20.176315
68.255 21.18191
68.260 21.203241
68.265 20.977919
68.270 20.476521
68.275 20.46558
68.280 20.468164
68.285 20.427746
68.290 20.592728
68.295 20.439606
68.300 20.973745
68.305 22.254585
68.310 22.656494
68.315 24.012976
68.320 24.269207
68.325 24.715664
68.330 25.364204
68.335 25.534718
68.340 25.768414
68.345 26.214281
68.350 25.792994
68.355 25.739418
68.360 25.969879
68.365 25.63575
68.370 25.443226
68.375 25.740894
68.380 25.740583
68.385 26.28441
68.390 26.470205
68.395 26.27972
68.400 26.496956
68.405 26.516035
68.410 26.712509
68.415 26.96298
68.420 26.323257
68.425 25.678129
68.430 26.208118
68.435 27.111656
68.440 27.254696
68.445 27.09079
68.450 27.946745
68.455 29.515749
68.460 30.359852
68.465 30.167614
68.470 30.131407
68.475 30.262598
68.480 29.945044
68.485 29.854984
68.490 29.436165
68.495 29.497406
68.500 29.78056
68.505 29.515976
68.510 29.279823
68.515 29.532532
68.520 30.161802
68.525 31.090227
68.530 31.98312
68.535 31.646196
68.540 31.810207
68.545 32.440742
68.550 32.284451
68.555 32.457584
68.560 31.71653
68.565 31.471924
68.570 31.696114
68.575 31.66313
68.580 31.813803
68.585 32.116566
68.590 31.972883
68.595 32.170017
68.600 32.566765
68.605 33.508209
68.610 33.590942
68.615 33.801971
68.620 33.622147
68.625 33.578152
68.630 33.663361
68.635 33.463223
68.640 33.495369
68.645 33.764019
68.650 33.614101
68.655 33.427322
68.660 33.567284
68.665 33.483814
68.670 33.340088
68.675 33.651821
68.680 33.974529
68.685 33.559952
68.690 33.73484
68.695 32.675407
68.700 32.985497
68.705 32.53809
68.710 32.079819
68.715 31.484804
68.720 32.049129
68.725 32.726711
68.730 33.854103
68.735 33.862
68.740 33.821777
68.745 33.959324
68.750 34.217319
68.755 33.965302
68.760 33.475979
68.765 33.392689
68.770 33.879398
68.775 33.5639
68.780 33.464752
68.785 33.462925
68.790 33.381355
68.795 32.699245
68.800 32.342381
68.805 31.64934
68.810 32.345207
68.815 32.718643
68.820 32.730438
68.825 33.369686
68.830 34.1912
68.835 34.984043
68.840 35.775108
68.845 34.962532
68.850 34.356052
68.855 34.8815
68.860 34.845905
68.865 34.014011
68.870 33.291351
68.875 32.742664
68.880 32.657642
68.885 33.258572
68.890 32.990177
68.895 32.337147
68.900 31.747324
68.905 32.313354
68.910 32.50481
68.915 32.052177
68.920 31.350016
68.925 31.252552
68.930 30.891539
68.935 30.523565
68.940 30.295149
68.945 30.229342
68.950 30.365324
68.955 29.671633
68.960 29.494198
68.965 29.883259
68.970 29.71496
68.975 29.305511
68.980 29.645823
68.985 29.793856
68.990 29.761494
68.995 29.274883
69.000 29.684008
69.005 29.650612
69.010 28.944298
69.015 27.957657
69.020 27.38674
69.025 27.336702
69.030 26.722172
69.035 25.695122
69.040 25.056988
69.045 25.470303
69.050 25.280849
69.055 25.795507
69.060 25.773645
69.065 25.835258
69.070 25.456579
69.075 25.284979
69.080 25.043726
69.085 25.265936
69.090 24.990719
69.095 24.726997
69.100 25.069174
69.105 25.728813
69.110 25.153252
69.115 24.67157
69.120 24.657385
69.125 24.478636
69.130 24.902929
69.135 24.708818
69.140 23.98333
69.145 24.155724
69.150 24.017857
69.155 24.026567
69.160 23.382067
69.165 22.656839
69.170 22.380888
69.175 22.077457
69.180 22.192442
69.185 22.15144
69.190 21.768641
69.195 21.811792
69.200 21.88447
69.205 22.24543
69.210 22.774502
69.215 22.386803
69.220 22.44816
69.225 22.23073
69.230 21.991257
69.235 21.907869
69.240 21.593857
69.245 21.412779
69.250 20.942785
69.255 20.502169
69.260 20.49218
69.265 20.324354
69.270 20.0112
69.275 19.692402
69.280 19.384554
69.285 19.46195
69.290 19.576513
69.295 19.282999
69.300 19.003681
69.305 18.995554
69.310 18.722263
69.315 18.363314
69.320 17.765997
69.325 17.106583
69.330 17.163368
69.335 17.57748
69.340 17.379581
69.345 17.394022
69.350 17.576061
69.355 18.059175
69.360 18.415117
69.365 18.967539
69.370 18.562744
69.375 18.663837
69.380 18.770166
69.385 19.034281
69.390 19.173506
69.395 19.052189
69.400 19.160782
69.405 19.012272
69.410 18.311052
69.415 18.287479
69.420 18.134171
69.425 17.983484
69.430 18.034246
69.435 17.988979
69.440 18.842382
69.445 19.307734
69.450 19.207045
69.455 19.626137
69.460 19.76683
69.465 19.891554
69.470 19.213861
69.475 19.04986
69.480 19.160597
69.485 19.667755
69.490 19.617176
69.495 19.756559
69.500 19.819
69.505 19.910021
69.510 19.537825
69.515 19.354336
69.520 18.639992
69.525 18.405119
69.530 18.387129
69.535 18.619892
69.540 18.82431
69.545 19.482149
69.550 19.567856
69.555 19.727932
69.560 19.381105
69.565 18.634329
69.570 18.346794
69.575 18.629725
69.580 18.493057
69.585 18.461138
69.590 19.047228
69.595 19.270821
69.600 19.238617
69.605 19.231144
69.610 18.609112
69.615 17.966772
69.620 17.586126
69.625 17.156353
69.630 17.076893
69.635 17.565277
69.640 18.057732
69.645 18.116438
69.650 18.027708
69.655 17.522032
69.660 17.799612
69.665 17.923334
69.670 17.979153
69.675 17.476513
69.680 17.473661
69.685 17.379444
69.690 17.38648
69.695 17.346737
69.700 17.485937
69.705 17.171192
69.710 17.384457
69.715 17.770922
69.720 18.200771
69.725 18.214914
69.730 18.20577
69.735 18.06238
69.740 18.173111
69.745 18.357294
69.750 18.473162
69.755 18.571501
69.760 19.172283
69.765 18.897608
69.770 18.730543
69.775 18.449522
69.780 18.368402
69.785 18.622097
69.790 18.76495
69.795 18.163519
69.800 18.358448
69.805 18.588453
69.810 18.797308
69.815 18.586098
69.820 18.33148
69.825 18.51585
69.830 18.865765
69.835 18.992689
69.840 18.607985
69.845 18.748066
69.850 18.776531
69.855 19.316889
69.860 19.468533
69.865 19.160366
69.870 19.095184
69.875 19.370995
69.880 19.842148
69.885 20.090757
69.890 19.49102
69.895 18.832296
69.900 18.59211
69.905 18.806328
69.910 18.713987
69.915 17.70689
69.920 17.234215
69.925 17.425842
69.930 17.876438
69.935 17.633978
69.940 17.125071
69.945 17.821329
69.950 18.083904
69.955 18.181614
69.960 17.259035
69.965 17.144871
69.970 17.649265
69.975 17.22084
69.980 16.467379
69.985 16.666761
69.990 16.503441
69.995 16.772213
70.000 16.593481
70.005 16.693241
70.010 16.824348
70.015 16.564011
70.020 16.325977
70.025 16.693256
70.030 16.850933
70.035 17.309397
70.040 16.895439
70.045 16.479666
70.050 16.371912
70.055 16.377634
70.060 16.260529
70.065 15.673976
70.070 15.704469
70.075 16.569258
70.080 17.286579
70.085 17.762478
70.090 17.906782
70.095 18.190302
70.100 18.817585
70.105 18.273859
70.110 17.838167
70.115 17.41885
70.120 17.48387
70.125 17.983145
70.130 18.044542
70.135 18.33304
70.140 18.621567
70.145 19.15202
70.150 19.565214
70.155 19.340988
70.160 18.78565
70.165 18.554081
70.170 18.593374
70.175 18.582766
70.180 18.564405
70.185 18.297503
70.190 18.089441
70.195 18.318367
70.200 18.287954
70.205 17.616339
70.210 17.336153
70.215 17.528954
70.220 17.897804
70.225 18.560871
70.230 18.608791
70.235 18.894953
70.240 19.965874
70.245 19.91263
70.250 19.579174
70.255 19.161133
70.260 18.651459
70.265 18.918978
70.270 18.511068
70.275 17.73472
70.280 17.097996
70.285 17.329626
70.290 17.399426
70.295 17.316479
70.300 17.105083
70.305 17.799366
70.310 18.685879
70.315 19.126085
70.320 18.885283
70.325 18.858927
70.330 18.755116
70.335 18.495659
70.340 17.371639
70.345 17.017803
70.350 16.924902
70.355 17.235474
70.360 16.924414
70.365 17.192579
70.370 17.258015
70.375 17.481279
70.380 17.883831
70.385 17.945206
70.390 17.527155
70.395 17.630196
70.400 17.61002
70.405 18.131035
70.410 17.664186
70.415 17.621775
70.420 17.724718
70.425 17.693865
70.430 17.721554
70.435 17.430613
70.440 17.164806
70.445 17.048693
70.450 16.240507
70.455 16.20174
70.460 16.064745
70.465 15.717982
70.470 15.365774
70.475 15.441443
70.480 16.036577
70.485 16.591331
70.490 16.964451
70.495 17.736687
70.500 18.753788
70.505 19.231529
70.510 19.055828
70.515 19.203962
70.520 19.083233
70.525 19.036854
70.530 18.917736
70.535 18.463972
70.540 18.670732
70.545 18.673607
70.550 18.447128
70.555 18.554825
70.560 18.004749
70.565 18.188879
70.570 18.155579
70.575 17.905901
70.580 18.132378
70.585 17.964802
70.590 18.248207
70.595 17.912909
70.600 17.042221
70.605 16.99188
70.610 17.163101
70.615 17.809151
70.620 17.523705
70.625 17.618721
70.630 17.629358
70.635 17.780893
70.640 17.757954
70.645 17.451271
70.650 16.516302
70.655 16.786545
70.660 16.736351
70.665 16.571394
70.670 16.336596
70.675 16.096863
70.680 16.111456
70.685 16.657621
70.690 16.776169
70.695 17.442928
70.700 17.71553
70.705 18.152435
70.710 18.4834
70.715 18.436565
70.720 18.30916
70.725 18.421175
70.730 18.515779
70.735 18.707487
70.740 18.714432
70.745 18.630695
70.750 18.132021
70.755 18.493069
70.760 18.027285
70.765 17.676123
70.770 17.646418
70.775 17.22175
70.780 17.357758
70.785 17.235868
70.790 16.758129
70.795 16.659872
70.800 16.521006
70.805 16.278566
70.810 16.251196
70.815 16.031492
70.820 16.567101
70.825 17.241413
70.830 16.832014
70.835 16.876789
70.840 17.085228
70.845 17.3312
70.850 17.774054
70.855 17.708368
70.860 17.683605
70.865 17.682659
70.870 18.01046
70.875 18.211973
70.880 18.308786
70.885 18.186134
70.890 17.693035
70.895 17.456453
70.900 17.975565
70.905 18.058651
70.910 18.271812
70.915 18.098558
70.920 17.976452
70.925 18.28299
70.930 18.302238
70.935 18.182629
70.940 18.451473
70.945 17.897526
70.950 17.410828
70.955 17.196207
70.960 16.784494
70.965 16.574684
70.970 16.536261
70.975 16.2199
70.980 16.614178
70.985 17.005459
70.990 16.67988
70.995 16.54425
71.000 16.596653
71.005 16.690147
71.010 16.957527
71.015 16.998505
71.020 16.923702
71.025 17.121048
71.030 17.288475
71.035 16.868044
71.040 16.334793
71.045 16.096642
71.050 16.519886
71.055 16.791355
71.060 16.542284
71.065 16.797041
71.070 17.387817
71.075 17.550053
71.080 17.778791
71.085 17.392332
71.090 17.588617
71.095 18.232946
71.100 18.497025
71.105 18.472738
71.110 18.27326
71.115 17.796667
71.120 18.066748
71.125 17.714172
71.130 17.827208
71.135 17.464622
71.140 17.097216
71.145 16.924168
71.150 17.020624
71.155 16.902695
71.160 17.240582
71.165 17.00024
71.170 17.093954
71.175 17.284782
71.180 17.69083
71.185 17.856901
71.190 17.875841
71.195 17.74403
71.200 18.155182
71.205 18.497185
71.210 18.805784
71.215 18.469778
71.220 18.679586
71.225 18.67746
71.230 18.051208
71.235 17.430264
71.240 17.328171
71.245 17.199661
71.250 17.563257
71.255 17.590778
71.260 17.484749
71.265 17.972721
71.270 17.788187
71.275 17.49782
71.280 17.338724
71.285 16.912844
71.290 16.464888
71.295 16.487471
71.300 16.7328
71.305 17.081797
71.310 17.088289
71.315 16.94479
71.320 16.9573
71.325 17.168135
71.330 16.707151
71.335 16.815266
71.340 17.331804
71.345 17.816515
71.350 17.845329
71.355 18.046633
71.360 18.077059
71.365 18.389889
71.370 17.571033
71.375 16.776426
71.380 16.48237
71.385 16.943159
71.390 16.445501
71.395 16.402731
71.400 16.672421
71.405 17.091209
71.410 17.589905
71.415 17.297337
71.420 17.071501
71.425 17.17197
71.430 17.423876
71.435 16.944998
71.440 17.341513
71.445 17.356934
71.450 17.455873
71.455 17.795923
71.460 18.098759
71.465 17.922483
71.470 18.428856
71.475 18.361507
71.480 18.413857
71.485 18.543726
71.490 18.489012
71.495 18.547279
71.500 18.490265
71.505 17.807411
71.510 17.485695
71.515 17.869225
71.520 17.881441
71.525 18.225456
71.530 18.1112
71.535 17.944174
71.540 18.184883
71.545 18.129009
71.550 17.82896
71.555 16.996498
71.560 15.990417
71.565 15.252549
71.570 14.656965
71.575 14.434106
71.580 14.237482
71.585 14.101772
71.590 14.555216
71.595 15.127699
71.600 15.917256
71.605 16.738918
71.610 17.060053
71.615 17.121099
71.620 17.269213
71.625 17.713793
71.630 17.753092
71.635 17.214603
71.640 16.91679
71.645 16.924742
71.650 16.823874
71.655 16.494625
71.660 15.947914
71.665 16.426905
71.670 17.141626
71.675 17.415411
71.680 17.403437
71.685 18.093998
71.690 17.903698
71.695 17.853571
71.700 17.610163
71.705 18.276196
71.710 18.745768
71.715 19.39673
71.720 19.76173
71.725 20.353199
71.730 20.657789
71.735 20.472998
71.740 19.871696
71.745 19.373098
71.750 19.301628
71.755 18.988356
71.760 18.693405
71.765 18.674515
71.770 18.684484
71.775 19.094694
71.780 19.011005
71.785 17.739147
71.790 17.443996
71.795 17.741966
71.800 17.476753
71.805 17.247663
71.810 16.38772
71.815 16.269796
71.820 17.000645
71.825 16.815924
71.830 16.732296
71.835 16.783981
71.840 17.014719
71.845 17.294609
71.850 17.162279
71.855 16.956383
71.860 16.623066
71.865 16.877134
71.870 17.34029
71.875 18.11651
71.880 18.139898
71.885 18.279209
71.890 18.504837
71.895 18.699638
71.900 18.274868
71.905 18.250399
71.910 18.263916
71.915 18.5606
71.920 18.390598
71.925 18.10598
71.930 17.851635
71.935 17.555227
71.940 16.186584
71.945 15.567451
71.950 14.78879
71.955 14.796339
71.960 15.449328
71.965 15.507887
71.970 15.934183
71.975 16.216066
71.980 17.038511
71.985 17.768507
71.990 18.139215
71.995 18.358265
72.000 18.608454
72.005 18.601482
72.010 18.780788
72.015 19.128469
72.020 19.019632
72.025 18.733997
72.030 18.498083
72.035 18.151716
72.040 17.973183
72.045 17.544998
72.050 16.526722
72.055 16.573208
72.060 16.397783
72.065 16.553585
72.070 16.849043
72.075 17.067194
72.080 17.12179
72.085 17.596703
72.090 17.806074
72.095 17.910894
72.100 17.688173
72.105 17.364889
72.110 17.211525
72.115 16.861917
72.120 16.624527
72.125 16.281584
72.130 16.228899
72.135 16.609449
72.140 16.668159
72.145 16.583822
72.150 16.443346
72.155 16.571644
72.160 16.513397
72.165 16.302298
72.170 16.227602
72.175 16.766176
72.180 17.47192
72.185 17.397022
72.190 17.715187
72.195 18.193594
72.200 18.667398
72.205 18.74415
72.210 18.468136
72.215 18.245724
72.220 18.514095
72.225 18.181273
72.230 18.816154
72.235 18.297348
72.240 18.149195
72.245 17.985441
72.250 17.887398
72.255 17.720566
72.260 17.539602
72.265 17.205818
72.270 17.582817
72.275 17.557159
72.280 17.708323
72.285 17.270538
72.290 16.704308
72.295 16.668253
72.300 17.023846
72.305 16.309057
72.310 16.460007
72.315 16.273949
72.320 15.985533
72.325 15.538869
72.330 14.987103
72.335 15.17198
72.340 15.833026
72.345 15.986637
72.350 16.68922
72.355 17.937366
72.360 18.648401
72.365 18.663458
72.370 18.211149
72.375 17.903889
72.380 17.779444
72.385 17.403166
72.390 16.947203
72.395 16.604593
72.400 16.416695
72.405 16.553434
72.410 16.299984
72.415 16.139011
72.420 16.140739
72.425 16.514549
72.430 16.569366
72.435 16.651918
72.440 16.884789
72.445 16.931419
72.450 17.04026
72.455 17.248905
72.460 16.551466
72.465 17.062922
72.470 17.137835
72.475 18.05233
72.480 18.282604
72.485 17.927828
72.490 18.461372
72.495 18.28215
72.500 17.272612
72.505 17.014629
72.510 16.821497
72.515 16.812328
72.520 16.447063
72.525 15.955116
72.530 16.515558
72.535 17.544508
72.540 17.519581
72.545 16.88102
72.550 16.694181
72.555 17.274446
72.560 17.02297
72.565 16.780388
72.570 16.04969
72.575 16.15222
72.580 16.640451
72.585 16.731771
72.590 16.51556
72.595 16.977894
72.600 17.142252
72.605 18.055569
72.610 17.957325
72.615 17.981077
72.620 18.668468
72.625 18.720379
72.630 18.284225
72.635 18.046959
72.640 17.572163
72.645 17.135389
72.650 16.975384
72.655 17.130623
72.660 17.281513
72.665 17.589085
72.670 17.905661
72.675 17.558002
72.680 17.371546
72.685 17.000505
72.690 16.040695
72.695 16.190174
72.700 15.863478
72.705 15.763627
72.710 16.065197
72.715 16.253004
72.720 15.929208
72.725 16.25046
72.730 16.608879
72.735 16.409702
72.740 16.219616
72.745 16.655771
72.750 16.755016
72.755 17.231478
72.760 16.944571
72.765 16.857544
72.770 16.613043
72.775 16.612411
72.780 16.689611
72.785 16.230274
72.790 16.360558
72.795 16.29324
72.800 16.119043
72.805 15.717269
72.810 15.377268
72.815 15.210975
72.820 15.257999
72.825 15.624164
72.830 16.002396
72.835 16.798687
72.840 17.262794
72.845 16.898783
72.850 17.027292
72.855 16.903091
72.860 16.205381
72.865 15.87875
72.870 15.903488
72.875 16.34391
72.880 16.823008
72.885 16.66588
72.890 17.068184
72.895 16.905602
72.900 16.623682
72.905 16.254013
72.910 16.073538
72.915 15.949883
72.920 16.120857
72.925 16.353556
72.930 16.871948
72.935 17.193069
72.940 17.207602
72.945 16.84922
72.950 16.721748
72.955 16.527338
72.960 15.406631
72.965 15.100248
72.970 14.743032
72.975 15.112303
72.980 15.679415
72.985 15.578491
72.990 15.665936
72.995 15.935474
73.000 16.371199
