!@!!GADDS PLOTSO FILE: Chi integration type
!@!!Title/SampleName: map-a7
!@!!Comment: ?
!@!!User: Bruker Instrument Administrator
!@!!Site: University of Illinois Chicago
!@!!Frame: map-a7_01_000.gfrm
!@!!Wavelengths    1.54184   1.54056   1.54439
!@!!Frame angles: 2Theta: 63.000 Omega: 50.000 Phi: 0.000 Chi: 90.000
!@!!Integration range: 2Theta: 53.000 to 73.000  Gamma: -105.000 to -75.000
!@!!Integration method: bin normalized
!@!N
!@!SS
!@!M
!@!L 0.0 0.0 0.0 0.0
!@!XDegrees
!@!YCounts
53.000 8.140645
53.005 8.010139
53.010 8.126115
53.015 8.675809
53.020 8.432354
53.025 8.519708
53.030 8.568771
53.035 8.723767
53.040 9.184047
53.045 9.116542
53.050 8.881328
53.055 9.29478
53.060 9.214658
53.065 9.160076
53.070 9.059836
53.075 9.074058
53.080 9.353698
53.085 9.368784
53.090 9.01267
53.095 8.925174
53.100 9.099937
53.105 9.298218
53.110 8.939859
53.115 8.44805
53.120 8.328283
53.125 8.309507
53.130 8.354992
53.135 8.037384
53.140 8.211205
53.145 8.475195
53.150 9.225521
53.155 9.028777
53.160 8.81196
53.165 8.651254
53.170 8.486855
53.175 8.284591
53.180 8.512177
53.185 8.925979
53.190 9.311468
53.195 9.476069
53.200 9.283734
53.205 9.20062
53.210 8.833869
53.215 8.121835
53.220 7.426276
53.225 7.232871
53.230 7.645461
53.235 8.403639
53.240 8.34739
53.245 8.419896
53.250 8.631557
53.255 8.702885
53.260 8.677546
53.265 8.285582
53.270 7.645618
53.275 8.408212
53.280 8.967494
53.285 9.288198
53.290 9.59322
53.295 9.837572
53.300 10.207903
53.305 10.601344
53.310 10.068537
53.315 9.883611
53.320 9.790695
53.325 10.253956
53.330 10.141829
53.335 10.020542
53.340 10.392946
53.345 10.44432
53.350 10.09671
53.355 9.673627
53.360 8.889665
53.365 8.557663
53.370 8.095717
53.375 7.656035
53.380 7.766469
53.385 7.861857
53.390 7.971207
53.395 8.320659
53.400 8.568285
53.405 8.60598
53.410 8.552091
53.415 8.680265
53.420 9.03856
53.425 9.162007
53.430 8.863594
53.435 8.988062
53.440 9.140469
53.445 8.708702
53.450 8.545572
53.455 8.9478
53.460 9.286678
53.465 9.69976
53.470 9.592112
53.475 9.607201
53.480 9.767509
53.485 10.03477
53.490 9.351149
53.495 8.896953
53.500 8.737995
53.505 8.855758
53.510 9.555175
53.515 9.753701
53.520 9.390779
53.525 9.757223
53.530 9.876933
53.535 9.977286
53.540 9.531084
53.545 8.798548
53.550 8.625225
53.555 8.54456
53.560 8.506702
53.565 8.761655
53.570 8.946283
53.575 9.618037
53.580 9.881076
53.585 9.864944
53.590 9.907914
53.595 9.765861
53.600 9.902673
53.605 9.559425
53.610 9.172081
53.615 9.105823
53.620 9.743479
53.625 9.757853
53.630 9.176043
53.635 9.025029
53.640 9.551042
53.645 9.501611
53.650 9.466574
53.655 8.615572
53.660 8.812718
53.665 9.446923
53.670 9.018599
53.675 8.653012
53.680 8.651502
53.685 8.745934
53.690 9.210419
53.695 9.225942
53.700 8.985223
53.705 9.597508
53.710 9.554774
53.715 9.569359
53.720 9.835702
53.725 10.034526
53.730 9.849072
53.735 9.760289
53.740 9.486546
53.745 9.799079
53.750 9.804484
53.755 9.835135
53.760 9.737561
53.765 9.960504
53.770 10.031728
53.775 10.070166
53.780 9.962155
53.785 10.100197
53.790 10.25565
53.795 10.177474
53.800 10.086366
53.805 9.923743
53.810 9.829661
53.815 9.832267
53.820 9.756735
53.825 9.427374
53.830 9.531247
53.835 9.685987
53.840 10.095602
53.845 10.192178
53.850 10.139543
53.855 10.137992
53.860 10.558155
53.865 10.870521
53.870 10.747155
53.875 10.68222
53.880 11.085478
53.885 11.416195
53.890 11.346826
53.895 11.207762
53.900 11.142209
53.905 11.092138
53.910 10.470173
53.915 10.069675
53.920 9.754963
53.925 9.239367
53.930 8.744967
53.935 8.641686
53.940 9.106931
53.945 9.766684
53.950 9.772335
53.955 9.883346
53.960 10.454062
53.965 10.588829
53.970 10.524845
53.975 9.645928
53.980 9.051427
53.985 9.226656
53.990 9.305916
53.995 9.258769
54.000 9.362342
54.005 9.991291
54.010 10.860908
54.015 11.111953
54.020 11.433187
54.025 11.649409
54.030 11.302695
54.035 11.019012
54.040 10.673809
54.045 10.477843
54.050 10.260263
54.055 9.691673
54.060 9.589733
54.065 10.036138
54.070 10.212923
54.075 10.198795
54.080 10.49384
54.085 10.857786
54.090 10.883378
54.095 11.081517
54.100 10.886644
54.105 10.428598
54.110 10.656903
54.115 10.199754
54.120 9.806065
54.125 9.713794
54.130 9.994457
54.135 10.294089
54.140 10.712696
54.145 10.931882
54.150 10.87179
54.155 10.994925
54.160 11.143435
54.165 10.933137
54.170 10.82769
54.175 10.176336
54.180 9.870202
54.185 10.175481
54.190 10.114577
54.195 9.823896
54.200 9.88676
54.205 10.314447
54.210 10.610872
54.215 10.856805
54.220 10.989737
54.225 10.698407
54.230 10.948626
54.235 10.783689
54.240 10.779772
54.245 10.558255
54.250 10.715509
54.255 10.926378
54.260 10.956505
54.265 10.212416
54.270 10.176154
54.275 10.031302
54.280 9.924029
54.285 9.437328
54.290 9.437896
54.295 9.6112
54.300 9.865414
54.305 10.300757
54.310 10.51263
54.315 10.575143
54.320 10.597881
54.325 10.840091
54.330 11.264766
54.335 11.051372
54.340 10.261283
54.345 10.051935
54.350 10.322616
54.355 10.291399
54.360 10.258999
54.365 10.194407
54.370 10.359624
54.375 10.948238
54.380 11.147741
54.385 11.141851
54.390 10.966368
54.395 10.996674
54.400 11.263542
54.405 11.390689
54.410 11.384089
54.415 11.299628
54.420 11.332438
54.425 11.324881
54.430 10.586071
54.435 10.438591
54.440 10.336175
54.445 9.564916
54.450 9.53822
54.455 9.614691
54.460 9.670211
54.465 9.711467
54.470 9.638966
54.475 9.937857
54.480 10.292758
54.485 10.300907
54.490 10.131815
54.495 10.308191
54.500 10.510482
54.505 10.779381
54.510 11.104276
54.515 11.336102
54.520 11.379852
54.525 11.610444
54.530 11.805688
54.535 12.054672
54.540 11.860581
54.545 11.435691
54.550 11.173875
54.555 11.227102
54.560 11.546738
54.565 11.720886
54.570 11.416661
54.575 11.077396
54.580 11.070847
54.585 11.692537
54.590 11.243863
54.595 10.665434
54.600 10.490207
54.605 10.655238
54.610 10.65572
54.615 10.601254
54.620 10.180865
54.625 10.693131
54.630 10.669486
54.635 10.717469
54.640 11.06415
54.645 11.657927
54.650 11.990086
54.655 12.342202
54.660 12.328216
54.665 12.435252
54.670 12.345402
54.675 11.919538
54.680 11.430266
54.685 10.778062
54.690 10.558371
54.695 10.60459
54.700 10.667963
54.705 10.836254
54.710 10.644295
54.715 10.696908
54.720 10.854222
54.725 11.030825
54.730 11.561693
54.735 11.929873
54.740 11.878899
54.745 12.647515
54.750 13.100248
54.755 13.4543
54.760 13.510978
54.765 12.966961
54.770 12.824597
54.775 12.40754
54.780 11.605322
54.785 11.591537
54.790 11.278463
54.795 10.937606
54.800 11.019373
54.805 10.675387
54.810 11.042804
54.815 10.921541
54.820 10.55094
54.825 10.225305
54.830 9.996673
54.835 9.496619
54.840 9.688934
54.845 10.393099
54.850 10.912218
54.855 11.260085
54.860 11.957608
54.865 12.194314
54.870 12.388812
54.875 12.644448
54.880 12.530882
54.885 12.416016
54.890 12.331314
54.895 11.945982
54.900 11.855227
54.905 11.756149
54.910 11.2696
54.915 11.079107
54.920 10.6883
54.925 10.028961
54.930 9.684291
54.935 9.705713
54.940 9.730384
54.945 9.622169
54.950 9.697996
54.955 10.324097
54.960 11.215533
54.965 11.370873
54.970 10.921962
54.975 11.015241
54.980 11.332747
54.985 11.253666
54.990 11.236521
54.995 11.189535
55.000 11.096734
55.005 11.174612
55.010 11.168719
55.015 10.808839
55.020 10.793615
55.025 10.415768
55.030 10.371543
55.035 10.753704
55.040 10.752142
55.045 10.781615
55.050 10.859662
55.055 10.476899
55.060 10.900681
55.065 10.635407
55.070 11.467301
55.075 12.16898
55.080 12.549779
55.085 12.91873
55.090 12.853257
55.095 12.882298
55.100 12.892317
55.105 12.095222
55.110 11.307954
55.115 10.909595
55.120 10.675212
55.125 11.072151
55.130 11.170774
55.135 11.189672
55.140 10.85398
55.145 10.824985
55.150 10.964122
55.155 11.088099
55.160 10.593996
55.165 10.415717
55.170 11.00991
55.175 11.683139
55.180 11.703213
55.185 11.778508
55.190 11.862517
55.195 11.931865
55.200 11.956509
55.205 11.542376
55.210 11.402557
55.215 11.286491
55.220 11.573071
55.225 11.559226
55.230 11.905263
55.235 11.87605
55.240 11.545654
55.245 11.556637
55.250 11.585544
55.255 10.940194
55.260 11.078165
55.265 11.155807
55.270 11.276135
55.275 11.760301
55.280 12.225615
55.285 12.480022
55.290 12.822439
55.295 12.870911
55.300 13.081372
55.305 12.926094
55.310 12.763645
55.315 12.141259
55.320 11.48899
55.325 11.189325
55.330 10.96491
55.335 10.602715
55.340 10.667887
55.345 10.649084
55.350 10.931983
55.355 11.172199
55.360 11.021753
55.365 10.659825
55.370 10.498228
55.375 10.575233
55.380 10.559696
55.385 10.817536
55.390 11.58801
55.395 12.154129
55.400 12.246917
55.405 12.379504
55.410 12.277331
55.415 12.163499
55.420 11.517982
55.425 11.243893
55.430 11.127466
55.435 11.359507
55.440 11.176793
55.445 11.182422
55.450 11.401287
55.455 11.464819
55.460 11.536989
55.465 11.299797
55.470 11.364763
55.475 11.398205
55.480 11.442335
55.485 11.573997
55.490 11.552207
55.495 11.47665
55.500 12.689631
55.505 13.352564
55.510 13.53055
55.515 13.47495
55.520 13.869948
55.525 13.936562
55.530 13.618355
55.535 13.057205
55.540 12.789069
55.545 12.509322
55.550 12.400728
55.555 12.776348
55.560 12.962651
55.565 12.717325
55.570 12.52788
55.575 12.303588
55.580 12.200478
55.585 11.423474
55.590 10.410877
55.595 10.043654
55.600 9.771356
55.605 8.979254
55.610 9.418449
55.615 9.534488
55.620 10.295433
55.625 11.026919
55.630 11.712085
55.635 12.446702
55.640 12.747602
55.645 13.023232
55.650 13.192608
55.655 13.301923
55.660 13.040024
55.665 12.659451
55.670 11.856238
55.675 11.720296
55.680 11.078582
55.685 10.956072
55.690 10.573052
55.695 10.781695
55.700 11.143423
55.705 11.542046
55.710 11.587387
55.715 11.552855
55.720 11.863719
55.725 11.892764
55.730 11.748942
55.735 11.311811
55.740 11.130851
55.745 11.132941
55.750 11.77574
55.755 11.84886
55.760 12.064187
55.765 11.993145
55.770 12.577655
55.775 13.10329
55.780 13.187501
55.785 12.873235
55.790 12.887531
55.795 12.875141
55.800 13.522707
55.805 13.569041
55.810 13.589251
55.815 13.239746
55.820 13.34273
55.825 13.107073
55.830 13.037606
55.835 12.737616
55.840 12.752269
55.845 12.773236
55.850 13.290237
55.855 13.614531
55.860 13.642998
55.865 13.434678
55.870 12.644713
55.875 13.052103
55.880 13.04583
55.885 13.085388
55.890 12.688133
55.895 12.673646
55.900 13.262116
55.905 13.499157
55.910 12.928091
55.915 12.673486
55.920 12.733334
55.925 12.776687
55.930 12.761761
55.935 12.595807
55.940 12.849579
55.945 13.217033
55.950 13.193097
55.955 13.134098
55.960 13.313386
55.965 13.352352
55.970 12.805027
55.975 13.236662
55.980 12.992382
55.985 13.127899
55.990 13.132822
55.995 12.905625
56.000 13.130056
56.005 13.1911
56.010 12.900611
56.015 12.886784
56.020 12.249841
56.025 12.131411
56.030 12.098639
56.035 12.140886
56.040 12.000637
56.045 11.539248
56.050 11.502406
56.055 12.070109
56.060 11.978365
56.065 11.9419
56.070 11.794616
56.075 12.231928
56.080 13.111354
56.085 13.366019
56.090 13.488432
56.095 13.348628
56.100 13.62584
56.105 13.515159
56.110 12.606834
56.115 12.313947
56.120 12.258035
56.125 11.688185
56.130 11.466801
56.135 11.202731
56.140 11.71526
56.145 12.033772
56.150 11.477019
56.155 11.15714
56.160 11.476542
56.165 11.765259
56.170 12.126094
56.175 12.068001
56.180 12.090128
56.185 12.052011
56.190 12.186101
56.195 11.942046
56.200 11.995292
56.205 11.58941
56.210 11.839768
56.215 11.600773
56.220 11.601462
56.225 11.561402
56.230 12.130721
56.235 12.205145
56.240 12.559711
56.245 12.605874
56.250 13.024745
56.255 13.329132
56.260 13.324729
56.265 13.113817
56.270 12.65231
56.275 12.175355
56.280 12.118477
56.285 12.187175
56.290 11.946219
56.295 12.344474
56.300 12.357344
56.305 12.548753
56.310 12.773217
56.315 12.971248
56.320 13.335511
56.325 12.985217
56.330 12.257357
56.335 12.176925
56.340 12.362861
56.345 12.255746
56.350 12.113459
56.355 11.977109
56.360 12.599236
56.365 13.024008
56.370 12.876747
56.375 12.538654
56.380 12.140219
56.385 11.687639
56.390 11.236197
56.395 11.121349
56.400 10.698269
56.405 10.602175
56.410 10.95999
56.415 10.898862
56.420 11.38383
56.425 11.916652
56.430 11.779214
56.435 11.69199
56.440 11.692192
56.445 11.52835
56.450 12.375861
56.455 12.40009
56.460 12.314905
56.465 12.440814
56.470 12.836655
56.475 12.805995
56.480 12.750848
56.485 12.598872
56.490 12.715713
56.495 13.018366
56.500 13.15455
56.505 13.554411
56.510 13.967982
56.515 14.028454
56.520 13.827864
56.525 13.509276
56.530 13.317091
56.535 13.061752
56.540 12.757158
56.545 12.241349
56.550 12.201026
56.555 11.860271
56.560 11.607686
56.565 11.433385
56.570 11.672196
56.575 11.948087
56.580 12.618093
56.585 12.886126
56.590 13.48165
56.595 13.711903
56.600 14.121984
56.605 14.363652
56.610 14.133842
56.615 13.53001
56.620 13.015952
56.625 12.785099
56.630 12.479616
56.635 12.331111
56.640 12.174015
56.645 12.458334
56.650 12.840012
56.655 13.248089
56.660 13.633153
56.665 14.013582
56.670 14.03147
56.675 13.559997
56.680 13.693449
56.685 13.597063
56.690 13.213286
56.695 13.027585
56.700 12.997211
56.705 13.379971
56.710 13.343979
56.715 12.994498
56.720 13.324454
56.725 13.616455
56.730 13.418871
56.735 12.923202
56.740 12.930112
56.745 13.285946
56.750 13.283358
56.755 13.21365
56.760 13.367098
56.765 13.297532
56.770 13.356829
56.775 12.938443
56.780 12.882711
56.785 12.753777
56.790 12.468754
56.795 12.394328
56.800 12.024251
56.805 12.164552
56.810 12.453804
56.815 12.547822
56.820 12.738796
56.825 12.817685
56.830 13.074602
56.835 13.683006
56.840 13.757862
56.845 13.644832
56.850 13.823154
56.855 13.699328
56.860 13.907269
56.865 14.046489
56.870 14.434447
56.875 14.265147
56.880 14.417801
56.885 14.663693
56.890 14.248333
56.895 13.748493
56.900 13.402863
56.905 13.250834
56.910 13.510827
56.915 13.109443
56.920 12.118255
56.925 12.008009
56.930 12.330713
56.935 12.447922
56.940 12.251905
56.945 12.248791
56.950 12.475209
56.955 12.55338
56.960 12.544805
56.965 11.981801
56.970 12.194281
56.975 12.455062
56.980 12.397706
56.985 12.99723
56.990 13.574815
56.995 14.113985
57.000 13.979829
57.005 13.817427
57.010 13.838521
57.015 13.876767
57.020 13.508923
57.025 13.217772
57.030 13.472672
57.035 13.903049
57.040 14.00707
57.045 14.01705
57.050 14.122128
57.055 13.752213
57.060 13.87506
57.065 13.447848
57.070 13.380796
57.075 13.05174
57.080 13.231514
57.085 13.66444
57.090 13.881927
57.095 13.407307
57.100 13.678288
57.105 14.283963
57.110 14.328685
57.115 13.957339
57.120 13.951387
57.125 14.152669
57.130 14.324703
57.135 14.081861
57.140 13.064092
57.145 12.761409
57.150 12.688449
57.155 12.30757
57.160 12.441418
57.165 12.740026
57.170 12.789504
57.175 13.433916
57.180 13.608402
57.185 13.729679
57.190 13.938532
57.195 14.195148
57.200 14.131355
57.205 14.288266
57.210 14.488542
57.215 14.561399
57.220 14.527423
57.225 14.556892
57.230 14.532176
57.235 14.812349
57.240 14.919991
57.245 14.588821
57.250 14.11689
57.255 13.872986
57.260 14.335675
57.265 14.564586
57.270 14.552897
57.275 14.282574
57.280 14.304984
57.285 14.590372
57.290 14.768983
57.295 14.148067
57.300 13.479562
57.305 13.160203
57.310 13.045512
57.315 13.704021
57.320 14.138924
57.325 14.024719
57.330 14.180074
57.335 14.624817
57.340 15.055981
57.345 15.467429
57.350 15.236774
57.355 15.309614
57.360 15.1613
57.365 15.271197
57.370 15.517618
57.375 14.991291
57.380 14.673951
57.385 14.496639
57.390 14.490013
57.395 14.462839
57.400 13.869633
57.405 13.501868
57.410 13.958667
57.415 13.976454
57.420 13.700324
57.425 13.167476
57.430 12.98193
57.435 13.45275
57.440 13.654584
57.445 13.571282
57.450 13.490952
57.455 13.712194
57.460 13.895172
57.465 13.85289
57.470 13.660376
57.475 13.452888
57.480 13.570713
57.485 13.920947
57.490 14.352841
57.495 15.012358
57.500 14.871581
57.505 14.593492
57.510 14.712583
57.515 14.46682
57.520 14.420571
57.525 14.980775
57.530 15.090276
57.535 15.529845
57.540 15.918065
57.545 16.214365
57.550 15.724779
57.555 15.555864
57.560 14.702286
57.565 14.244607
57.570 14.312961
57.575 14.118658
57.580 14.399435
57.585 15.147536
57.590 15.270319
57.595 15.435155
57.600 15.09713
57.605 14.483353
57.610 14.264733
57.615 13.830504
57.620 13.125958
57.625 12.984308
57.630 12.738101
57.635 13.162318
57.640 13.99479
57.645 13.71072
57.650 13.354498
57.655 13.69585
57.660 13.609704
57.665 13.532662
57.670 13.714244
57.675 13.105046
57.680 13.08322
57.685 13.427683
57.690 13.955804
57.695 13.863855
57.700 13.930468
57.705 13.462824
57.710 13.672814
57.715 13.639858
57.720 13.385246
57.725 12.531718
57.730 12.657615
57.735 12.786627
57.740 13.281686
57.745 14.148114
57.750 15.029882
57.755 15.765686
57.760 16.786404
57.765 16.692907
57.770 16.599365
57.775 16.307211
57.780 16.184566
57.785 16.07621
57.790 15.622237
57.795 14.737554
57.800 14.581012
57.805 14.752115
57.810 14.551163
57.815 14.216734
57.820 14.40548
57.825 14.193671
57.830 14.164883
57.835 13.948611
57.840 13.912375
57.845 13.945085
57.850 13.382999
57.855 12.615849
57.860 12.878917
57.865 13.017232
57.870 13.07452
57.875 13.512507
57.880 13.868562
57.885 13.979553
57.890 14.456051
57.895 15.071598
57.900 15.581061
57.905 16.264465
57.910 15.89409
57.915 15.843234
57.920 16.138426
57.925 15.843662
57.930 15.552961
57.935 15.387101
57.940 15.276514
57.945 15.362041
57.950 15.259653
57.955 14.954423
57.960 14.699365
57.965 14.82891
57.970 15.457381
57.975 15.060566
57.980 14.955905
57.985 14.833899
57.990 15.154535
57.995 14.932631
58.000 13.862876
58.005 13.32801
58.010 13.456558
58.015 13.629961
58.020 13.665642
58.025 13.798201
58.030 14.28368
58.035 14.709509
58.040 14.664003
58.045 14.799121
58.050 14.651757
58.055 14.879271
58.060 14.831067
58.065 15.028523
58.070 15.077916
58.075 15.081333
58.080 14.700268
58.085 14.776423
58.090 14.731927
58.095 14.662607
58.100 14.359775
58.105 14.452824
58.110 14.358031
58.115 14.315294
58.120 14.237247
58.125 14.046066
58.130 14.391348
58.135 14.53341
58.140 14.676851
58.145 14.823306
58.150 14.878201
58.155 15.122289
58.160 14.947716
58.165 14.722431
58.170 14.429099
58.175 14.321302
58.180 14.361901
58.185 14.466502
58.190 13.994517
58.195 13.794922
58.200 13.696624
58.205 14.270453
58.210 14.142112
58.215 13.543945
58.220 13.909007
58.225 14.238654
58.230 14.329491
58.235 14.675616
58.240 14.162351
58.245 14.433582
58.250 15.147578
58.255 15.067309
58.260 15.228502
58.265 15.110761
58.270 15.054812
58.275 15.246778
58.280 14.936394
58.285 14.925499
58.290 14.855289
58.295 15.082024
58.300 15.327937
58.305 15.590918
58.310 16.129751
58.315 16.330462
58.320 16.513313
58.325 16.020435
58.330 15.747504
58.335 15.402227
58.340 14.705776
58.345 14.48753
58.350 14.346908
58.355 14.286457
58.360 14.456936
58.365 14.24332
58.370 14.28869
58.375 14.465446
58.380 13.924017
58.385 13.692126
58.390 13.183178
58.395 13.140593
58.400 13.383777
58.405 13.896907
58.410 13.68911
58.415 13.773568
58.420 14.357137
58.425 14.664091
58.430 15.124913
58.435 15.019355
58.440 14.632634
58.445 14.99177
58.450 15.054444
58.455 14.494997
58.460 14.420622
58.465 14.051737
58.470 14.131653
58.475 14.213639
58.480 14.345853
58.485 14.071369
58.490 14.330801
58.495 14.845848
58.500 15.175669
58.505 15.27651
58.510 14.961954
58.515 14.469218
58.520 14.746541
58.525 14.647775
58.530 13.799222
58.535 13.750091
58.540 14.050582
58.545 14.564264
58.550 15.041922
58.555 15.141548
58.560 15.424174
58.565 16.345976
58.570 16.267773
58.575 16.026611
58.580 15.526883
58.585 15.367592
58.590 15.386896
58.595 15.523393
58.600 15.166884
58.605 15.067237
58.610 14.997021
58.615 15.054606
58.620 14.639218
58.625 14.654594
58.630 14.499537
58.635 14.589302
58.640 14.830042
58.645 15.142253
58.650 15.003036
58.655 15.23677
58.660 15.294549
58.665 15.429836
58.670 15.525233
58.675 15.615642
58.680 15.822042
58.685 16.793644
58.690 17.6334
58.695 17.888727
58.700 17.522102
58.705 17.258982
58.710 17.128204
58.715 16.754892
58.720 15.902092
58.725 15.482546
58.730 15.185805
58.735 15.566886
58.740 15.204871
58.745 15.181352
58.750 15.88998
58.755 15.662659
58.760 15.767419
58.765 16.018917
58.770 16.116724
58.775 16.721849
58.780 16.583786
58.785 16.584023
58.790 17.267994
58.795 16.947922
58.800 16.053129
58.805 15.946439
58.810 15.655515
58.815 15.476614
58.820 15.171824
58.825 15.115699
58.830 15.447271
58.835 15.431943
58.840 14.938637
58.845 14.913828
58.850 14.845124
58.855 14.644207
58.860 14.914308
58.865 14.487906
58.870 14.67286
58.875 14.514
58.880 14.452033
58.885 14.662604
58.890 15.003572
58.895 15.188791
58.900 15.580543
58.905 15.798627
58.910 16.173946
58.915 16.208687
58.920 16.2673
58.925 15.701308
58.930 14.794145
58.935 14.74272
58.940 15.206667
58.945 14.963382
58.950 14.876588
58.955 14.807436
58.960 14.922247
58.965 15.499886
58.970 15.543613
58.975 16.045332
58.980 16.887314
58.985 17.354664
58.990 17.491783
58.995 17.641447
59.000 17.492928
59.005 17.506056
59.010 17.041126
59.015 16.618673
59.020 16.028858
59.025 15.764279
59.030 15.811329
59.035 15.73285
59.040 15.828708
59.045 15.876539
59.050 15.847321
59.055 15.75804
59.060 15.901983
59.065 15.923079
59.070 15.90018
59.075 15.829261
59.080 15.844647
59.085 15.989207
59.090 16.220243
59.095 16.343893
59.100 16.275936
59.105 16.111305
59.110 16.083138
59.115 16.19005
59.120 16.737774
59.125 16.972195
59.130 16.852247
59.135 17.278233
59.140 17.765245
59.145 17.430031
59.150 16.934763
59.155 16.640436
59.160 16.399012
59.165 16.290043
59.170 15.920321
59.175 15.981213
59.180 16.606554
59.185 17.197712
59.190 16.956324
59.195 16.728441
59.200 16.522701
59.205 16.114601
59.210 15.549837
59.215 14.675936
59.220 13.751084
59.225 13.645185
59.230 13.436872
59.235 13.529381
59.240 14.097764
59.245 14.614603
59.250 14.880221
59.255 15.268394
59.260 15.165009
59.265 15.085406
59.270 14.748118
59.275 14.462899
59.280 14.262141
59.285 14.380317
59.290 14.352504
59.295 14.464358
59.300 14.482158
59.305 15.392135
59.310 15.65459
59.315 15.311627
59.320 15.132366
59.325 15.19857
59.330 15.691442
59.335 15.726321
59.340 14.869535
59.345 15.200929
59.350 15.406236
59.355 15.232229
59.360 15.23811
59.365 15.639398
59.370 15.975898
59.375 16.400948
59.380 16.102671
59.385 16.443871
59.390 17.316322
59.395 17.720415
59.400 17.695591
59.405 18.19912
59.410 18.424393
59.415 18.626091
59.420 18.845037
59.425 18.648125
59.430 18.090769
59.435 17.863325
59.440 17.616955
59.445 17.540941
59.450 17.118946
59.455 16.180813
59.460 15.605865
59.465 15.576353
59.470 15.379117
59.475 15.13557
59.480 14.281227
59.485 14.510267
59.490 15.317245
59.495 15.504023
59.500 15.305162
59.505 15.272567
59.510 15.285329
59.515 16.068926
59.520 16.209394
59.525 16.157848
59.530 16.415138
59.535 16.879305
59.540 17.422607
59.545 17.188456
59.550 17.254938
59.555 17.189507
59.560 17.709732
59.565 17.732004
59.570 17.35742
59.575 17.198671
59.580 17.575628
59.585 16.710672
59.590 16.692799
59.595 16.162037
59.600 16.039579
59.605 15.877533
59.610 15.709367
59.615 15.617404
59.620 15.785228
59.625 15.590475
59.630 15.884268
59.635 16.08168
59.640 16.309162
59.645 16.921202
59.650 17.425175
59.655 17.793903
59.660 18.538807
59.665 18.619379
59.670 18.70853
59.675 19.194166
59.680 19.42742
59.685 19.723652
59.690 20.500271
59.695 19.878599
59.700 20.376616
59.705 20.259872
59.710 19.434526
59.715 18.319254
59.720 17.122658
59.725 16.648846
59.730 17.218805
59.735 16.918718
59.740 16.745026
59.745 17.360489
59.750 17.917072
59.755 18.16658
59.760 18.239075
59.765 17.957312
59.770 17.92207
59.775 18.291122
59.780 18.235945
59.785 18.351591
59.790 18.927647
59.795 18.675573
59.800 18.126757
59.805 18.343788
59.810 18.855309
59.815 18.492588
59.820 18.493834
59.825 18.273285
59.830 18.37018
59.835 18.74861
59.840 19.056711
59.845 18.968412
59.850 19.454216
59.855 19.772896
59.860 20.226603
59.865 20.314768
59.870 20.447008
59.875 20.0959
59.880 20.354988
59.885 20.317068
59.890 20.014927
59.895 19.949385
59.900 19.570417
59.905 19.144985
59.910 18.840515
59.915 19.114668
59.920 18.943676
59.925 18.961935
59.930 19.025703
59.935 19.475227
59.940 19.414371
59.945 19.244221
59.950 18.547131
59.955 18.460194
59.960 18.246513
59.965 18.33359
59.970 17.757269
59.975 17.876532
59.980 18.123312
59.985 18.595789
59.990 18.802622
59.995 18.85095
60.000 19.069305
60.005 19.936111
60.010 20.304092
60.015 20.074474
60.020 19.997559
60.025 19.994993
60.030 20.091925
60.035 19.431824
60.040 19.247742
60.045 19.446022
60.050 19.659151
60.055 19.717587
60.060 19.834003
60.065 20.40283
60.070 20.628351
60.075 20.427578
60.080 20.241159
60.085 20.801357
60.090 20.67947
60.095 20.580317
60.100 20.388187
60.105 20.819862
60.110 20.845041
60.115 20.653486
60.120 20.484499
60.125 20.56971
60.130 20.309917
60.135 19.999111
60.140 20.230246
60.145 20.640005
60.150 20.727501
60.155 19.882778
60.160 19.890713
60.165 20.279541
60.170 20.627571
60.175 20.73119
60.180 20.750069
60.185 21.157995
60.190 22.459307
60.195 23.026619
60.200 23.272461
60.205 23.058296
60.210 23.085997
60.215 23.019114
60.220 21.884548
60.225 20.37796
60.230 19.419176
60.235 18.921528
60.240 18.728157
60.245 18.748367
60.250 19.242435
60.255 20.15835
60.260 20.770811
60.265 20.902636
60.270 20.7607
60.275 20.322685
60.280 20.054876
60.285 19.674971
60.290 19.669472
60.295 19.94968
60.300 19.735205
60.305 19.596613
60.310 19.564859
60.315 19.189306
60.320 18.987
60.325 18.344076
60.330 18.022068
60.335 18.360548
60.340 18.82868
60.345 19.627073
60.350 19.780302
60.355 19.910183
60.360 20.307158
60.365 20.496769
60.370 19.990479
60.375 19.672911
60.380 19.128704
60.385 19.173546
60.390 18.73983
60.395 18.824015
60.400 19.071068
60.405 19.372658
60.410 19.70278
60.415 19.463499
60.420 19.656809
60.425 20.521885
60.430 20.17881
60.435 19.948933
60.440 20.254116
60.445 20.062057
60.450 20.124458
60.455 19.686008
60.460 19.075785
60.465 19.452532
60.470 19.531029
60.475 20.273912
60.480 20.510084
60.485 20.805113
60.490 21.653044
60.495 21.836512
60.500 21.714716
60.505 21.572491
60.510 20.81855
60.515 21.236622
60.520 21.311651
60.525 20.917881
60.530 20.850216
60.535 20.648773
60.540 20.891994
60.545 21.089096
60.550 20.491297
60.555 19.939854
60.560 19.553442
60.565 19.657097
60.570 19.813931
60.575 19.858023
60.580 19.47608
60.585 19.790892
60.590 20.701258
60.595 21.423887
60.600 21.239758
60.605 21.540941
60.610 21.350012
60.615 21.638885
60.620 22.332069
60.625 21.955839
60.630 21.376299
60.635 21.096321
60.640 20.856396
60.645 21.54929
60.650 21.275656
60.655 20.243713
60.660 20.190868
60.665 20.503889
60.670 20.243109
60.675 19.576344
60.680 18.360437
60.685 17.906906
60.690 17.523167
60.695 17.335947
60.700 16.751308
60.705 16.93198
60.710 17.174139
60.715 17.482616
60.720 18.116362
60.725 18.05954
60.730 18.049847
60.735 19.070093
60.740 19.384378
60.745 19.223625
60.750 18.968695
60.755 19.191837
60.760 19.306725
60.765 18.986422
60.770 18.12245
60.775 17.848753
60.780 18.249165
60.785 18.278057
60.790 17.658264
60.795 17.874369
60.800 18.241837
60.805 18.658783
60.810 18.625269
60.815 18.274488
60.820 18.482483
60.825 18.709612
60.830 18.635328
60.835 18.101791
60.840 17.298244
60.845 17.097033
60.850 17.521698
60.855 17.660906
60.860 17.293947
60.865 17.216703
60.870 17.657009
60.875 18.682613
60.880 18.379906
60.885 18.086491
60.890 17.983175
60.895 18.491135
60.900 18.202246
60.905 18.13726
60.910 17.582243
60.915 17.920576
60.920 18.102261
60.925 18.128958
60.930 18.257383
60.935 18.783024
60.940 18.500813
60.945 18.238344
60.950 17.731634
60.955 17.3456
60.960 16.683222
60.965 16.332886
60.970 16.207094
60.975 16.699703
60.980 17.075914
60.985 17.499702
60.990 17.660107
60.995 17.645905
61.000 17.613729
61.005 17.806396
61.010 17.634335
61.015 17.465857
61.020 17.107107
61.025 16.712896
61.030 16.394072
61.035 15.729455
61.040 15.024592
61.045 14.586931
61.050 14.774646
61.055 15.129069
61.060 15.573018
61.065 16.333191
61.070 17.675066
61.075 17.932962
61.080 18.625669
61.085 18.869858
61.090 18.51593
61.095 18.55496
61.100 18.065651
61.105 17.494595
61.110 17.506105
61.115 17.056833
61.120 17.016581
61.125 16.910694
61.130 16.905321
61.135 16.896704
61.140 16.962547
61.145 16.868433
61.150 17.244522
61.155 17.261349
61.160 17.060253
61.165 16.375956
61.170 16.273561
61.175 16.455711
61.180 16.698078
61.185 16.660479
61.190 17.062733
61.195 17.652727
61.200 18.067877
61.205 18.582323
61.210 18.623924
61.215 18.410694
61.220 17.930687
61.225 17.828758
61.230 18.013641
61.235 18.307186
61.240 18.200783
61.245 17.941566
61.250 17.899147
61.255 18.003605
61.260 18.106419
61.265 18.4709
61.270 18.278111
61.275 18.277416
61.280 18.47167
61.285 18.807491
61.290 18.725651
61.295 18.617941
61.300 17.868921
61.305 17.589258
61.310 17.276678
61.315 16.862881
61.320 16.835453
61.325 16.756481
61.330 16.312109
61.335 16.780943
61.340 16.869492
61.345 16.93297
61.350 17.093554
61.355 16.981466
61.360 17.358227
61.365 17.840946
61.370 17.251925
61.375 17.242628
61.380 17.539276
61.385 17.817591
61.390 17.438238
61.395 16.761198
61.400 16.434032
61.405 16.909481
61.410 17.196728
61.415 17.038853
61.420 17.387529
61.425 17.934841
61.430 17.945654
61.435 17.729347
61.440 17.397514
61.445 17.576981
61.450 17.959919
61.455 17.275461
61.460 16.885267
61.465 16.783836
61.470 16.737873
61.475 16.837112
61.480 16.126966
61.485 15.212842
61.490 15.093466
61.495 15.2066
61.500 15.464046
61.505 15.389841
61.510 15.124571
61.515 15.568115
61.520 15.902431
61.525 15.763998
61.530 15.697055
61.535 15.855304
61.540 15.860073
61.545 15.976917
61.550 15.890577
61.555 16.138369
61.560 16.779213
61.565 17.234274
61.570 17.442709
61.575 17.846212
61.580 17.781845
61.585 18.328934
61.590 18.320597
61.595 18.085651
61.600 18.044079
61.605 18.411501
61.610 19.06366
61.615 19.508377
61.620 18.899097
61.625 19.055168
61.630 18.919691
61.635 18.816988
61.640 18.076193
61.645 17.190294
61.650 16.764475
61.655 16.740843
61.660 16.478043
61.665 16.580976
61.670 16.365179
61.675 16.438669
61.680 16.586071
61.685 16.705082
61.690 16.32749
61.695 16.71011
61.700 16.843512
61.705 17.055672
61.710 17.262672
61.715 17.315634
61.720 17.566257
61.725 17.913315
61.730 17.491751
61.735 17.034109
61.740 16.862753
61.745 16.589945
61.750 16.0135
61.755 15.824732
61.760 15.207977
61.765 15.106354
61.770 15.244047
61.775 15.265596
61.780 15.151489
61.785 14.972138
61.790 14.816841
61.795 15.263947
61.800 16.225296
61.805 16.765249
61.810 17.376627
61.815 17.589159
61.820 18.449905
61.825 18.840326
61.830 18.30345
61.835 17.333141
61.840 17.096437
61.845 16.366522
61.850 16.425175
61.855 16.53043
61.860 16.656488
61.865 17.079241
61.870 17.534586
61.875 17.576998
61.880 17.995285
61.885 18.40905
61.890 17.966034
61.895 17.545036
61.900 18.03989
61.905 17.741589
61.910 17.808931
61.915 17.323885
61.920 16.959343
61.925 17.20537
61.930 17.522003
61.935 17.173805
61.940 17.20615
61.945 17.122578
61.950 16.937315
61.955 16.639437
61.960 16.487753
61.965 15.964553
61.970 15.841902
61.975 15.870455
61.980 16.091919
61.985 16.31492
61.990 16.399048
61.995 16.851023
62.000 17.238861
62.005 17.196901
62.010 17.515919
62.015 17.393015
62.020 17.498365
62.025 17.574936
62.030 17.207527
62.035 17.37705
62.040 17.546324
62.045 17.518927
62.050 17.925653
62.055 18.514196
62.060 18.63303
62.065 18.712139
62.070 18.537722
62.075 18.291115
62.080 18.195545
62.085 17.871233
62.090 17.592878
62.095 17.638569
62.100 17.294844
62.105 17.088383
62.110 16.972801
62.115 16.813848
62.120 16.370724
62.125 16.002844
62.130 15.944406
62.135 16.627748
62.140 16.912867
62.145 16.925129
62.150 16.944592
62.155 17.031729
62.160 17.168009
62.165 17.29373
62.170 17.070557
62.175 17.207584
62.180 17.940588
62.185 18.206135
62.190 18.495016
62.195 18.351124
62.200 18.015133
62.205 17.974419
62.210 18.206974
62.215 17.544941
62.220 16.974098
62.225 16.478832
62.230 16.705608
62.235 16.715244
62.240 16.331713
62.245 16.014906
62.250 15.667863
62.255 15.738273
62.260 16.091227
62.265 16.278521
62.270 16.163347
62.275 16.408239
62.280 16.459435
62.285 17.452475
62.290 17.776648
62.295 17.373667
62.300 17.066954
62.305 17.398533
62.310 17.252808
62.315 17.254707
62.320 17.501129
62.325 17.666565
62.330 18.080938
62.335 18.306896
62.340 18.352379
62.345 18.216103
62.350 17.832022
62.355 17.314142
62.360 17.344191
62.365 17.91272
62.370 18.15593
62.375 17.5986
62.380 17.960056
62.385 17.672663
62.390 17.55316
62.395 17.38306
62.400 16.978483
62.405 16.82645
62.410 17.670576
62.415 17.367023
62.420 17.936251
62.425 17.658701
62.430 17.405087
62.435 17.342735
62.440 17.132101
62.445 16.739925
62.450 16.482424
62.455 16.394258
62.460 16.378515
62.465 16.97665
62.470 17.530169
62.475 17.682558
62.480 16.981619
62.485 17.419941
62.490 17.387583
62.495 17.392498
62.500 16.689447
62.505 15.539925
62.510 15.342277
62.515 15.692432
62.520 15.240861
62.525 15.152943
62.530 14.684114
62.535 15.013714
62.540 15.613257
62.545 15.904282
62.550 16.117409
62.555 16.461948
62.560 16.493509
62.565 17.051136
62.570 17.098022
62.575 17.010027
62.580 16.889746
62.585 17.156124
62.590 17.103073
62.595 17.366951
62.600 17.312399
62.605 17.246616
62.610 17.287605
62.615 17.187157
62.620 16.678856
62.625 16.98933
62.630 16.816378
62.635 16.700199
62.640 16.169264
62.645 15.873583
62.650 15.674326
62.655 15.549581
62.660 15.411648
62.665 15.363272
62.670 15.384538
62.675 15.713811
62.680 15.88624
62.685 16.433073
62.690 17.759823
62.695 18.413317
62.700 18.711781
62.705 18.804787
62.710 18.716106
62.715 18.989792
62.720 18.982929
62.725 17.554266
62.730 17.228106
62.735 17.200254
62.740 17.239567
62.745 17.665682
62.750 17.522245
62.755 17.222246
62.760 16.913424
62.765 16.253939
62.770 15.922101
62.775 15.607058
62.780 15.26969
62.785 14.55744
62.790 14.240672
62.795 14.71448
62.800 15.345361
62.805 15.99501
62.810 16.114525
62.815 15.570861
62.820 16.14135
62.825 16.808449
62.830 17.211735
62.835 17.21505
62.840 17.522623
62.845 17.549826
62.850 18.244495
62.855 18.768747
62.860 18.753769
62.865 18.144091
62.870 17.878674
62.875 17.41316
62.880 17.979
62.885 18.126066
62.890 17.470774
62.895 17.35368
62.900 17.555922
62.905 17.956734
62.910 17.569977
62.915 16.949215
62.920 16.514135
62.925 16.753538
62.930 16.784023
62.935 16.359362
62.940 15.292808
62.945 15.294513
62.950 15.675085
62.955 15.82853
62.960 15.984661
62.965 15.991954
62.970 16.822474
62.975 17.697218
62.980 18.075525
62.985 17.75061
62.990 17.870445
62.995 17.707329
63.000 18.045536
63.005 17.554909
63.010 17.245459
63.015 17.427197
63.020 17.621243
63.025 17.624086
63.030 17.404783
63.035 17.144852
63.040 17.031614
63.045 16.684387
63.050 16.331421
63.055 16.178328
63.060 16.053215
63.065 16.108389
63.070 15.700091
63.075 15.823231
63.080 16.13797
63.085 16.403181
63.090 16.653093
63.095 16.358364
63.100 16.380516
63.105 16.728563
63.110 17.001726
63.115 17.577312
63.120 17.434174
63.125 17.656849
63.130 18.089512
63.135 18.122229
63.140 17.816259
63.145 17.607336
63.150 17.06023
63.155 16.995455
63.160 16.748444
63.165 16.795862
63.170 16.594173
63.175 17.221096
63.180 17.472088
63.185 17.209433
63.190 17.169203
63.195 17.071821
63.200 17.35894
63.205 17.206741
63.210 16.814566
63.215 16.87545
63.220 17.378876
63.225 17.741825
63.230 18.037603
63.235 17.795122
63.240 18.080395
63.245 18.247589
63.250 18.12274
63.255 17.746176
63.260 17.037428
63.265 16.651514
63.270 16.71117
63.275 16.613699
63.280 17.13534
63.285 17.624172
63.290 17.938068
63.295 18.15221
63.300 18.352104
63.305 18.365129
63.310 18.496767
63.315 18.15176
63.320 17.925365
63.325 17.636
63.330 17.729967
63.335 17.611597
63.340 17.635643
63.345 17.648151
63.350 17.240431
63.355 16.866707
63.360 16.985672
63.365 17.46125
63.370 17.462801
63.375 17.533184
63.380 18.0313
63.385 18.240068
63.390 18.235319
63.395 18.399702
63.400 17.876141
63.405 17.711082
63.410 17.657021
63.415 17.287527
63.420 17.341314
63.425 17.874241
63.430 17.808018
63.435 17.653681
63.440 17.265982
63.445 16.842928
63.450 16.605522
63.455 16.360102
63.460 15.974613
63.465 15.804125
63.470 16.266043
63.475 16.852058
63.480 17.197042
63.485 17.507416
63.490 17.425293
63.495 17.531879
63.500 17.918421
63.505 17.811665
63.510 17.644506
63.515 17.356903
63.520 17.351471
63.525 17.49859
63.530 16.950922
63.535 16.644423
63.540 17.01931
63.545 16.952433
63.550 16.83424
63.555 16.906919
63.560 16.448483
63.565 16.744104
63.570 16.749128
63.575 16.337793
63.580 16.576729
63.585 16.671833
63.590 16.917303
63.595 17.608688
63.600 17.931761
63.605 18.418003
63.610 18.298302
63.615 18.094791
63.620 17.867075
63.625 17.344473
63.630 17.376699
63.635 17.179922
63.640 17.282251
63.645 18.060368
63.650 18.365795
63.655 18.586054
63.660 18.637186
63.665 18.268391
63.670 17.990589
63.675 17.203793
63.680 16.56641
63.685 16.579464
63.690 16.853313
63.695 16.738291
63.700 17.373808
63.705 17.794327
63.710 18.028675
63.715 17.852041
63.720 17.716125
63.725 17.734894
63.730 18.006001
63.735 17.258776
63.740 17.125408
63.745 17.201143
63.750 17.390213
63.755 17.738222
63.760 17.837292
63.765 17.77157
63.770 17.776979
63.775 17.447758
63.780 17.361937
63.785 17.232466
63.790 16.751749
63.795 16.637514
63.800 16.795294
63.805 16.878483
63.810 16.857111
63.815 16.944431
63.820 17.194408
63.825 17.24119
63.830 17.51844
63.835 17.697462
63.840 17.650873
63.845 17.723034
63.850 17.968309
63.855 17.995188
63.860 17.839186
63.865 17.417854
63.870 17.034393
63.875 16.788191
63.880 16.763729
63.885 16.315294
63.890 16.110617
63.895 16.037777
63.900 16.188684
63.905 16.252449
63.910 15.808376
63.915 15.699884
63.920 15.588508
63.925 15.644247
63.930 16.734692
63.935 16.840298
63.940 16.738665
63.945 16.82588
63.950 17.154234
63.955 17.491755
63.960 17.327541
63.965 16.695662
63.970 16.694273
63.975 16.780941
63.980 17.252941
63.985 17.037745
63.990 16.952217
63.995 17.4252
64.000 17.715816
64.005 17.714705
64.010 18.589998
64.015 18.696737
64.020 19.346399
64.025 19.543512
64.030 19.571747
64.035 19.344349
64.040 19.415213
64.045 19.254715
64.050 19.894695
64.055 19.519386
64.060 19.142704
64.065 19.51647
64.070 19.814177
64.075 19.786551
64.080 19.317396
64.085 18.550219
64.090 18.614243
64.095 18.718163
64.100 18.275684
64.105 18.312284
64.110 18.610592
64.115 18.645407
64.120 18.938011
64.125 18.881395
64.130 19.093708
64.135 19.212307
64.140 18.491985
64.145 18.32729
64.150 18.416767
64.155 18.45587
64.160 18.611532
64.165 18.799082
64.170 18.947699
64.175 18.989351
64.180 18.862789
64.185 19.087126
64.190 18.410599
64.195 17.848066
64.200 17.4531
64.205 17.378704
64.210 17.705799
64.215 17.631105
64.220 17.732094
64.225 18.724398
64.230 19.31954
64.235 19.273149
64.240 18.846788
64.245 19.047956
64.250 18.949116
64.255 18.731871
64.260 18.14765
64.265 18.270473
64.270 18.665476
64.275 19.107336
64.280 18.404966
64.285 18.82621
64.290 19.20998
64.295 19.64418
64.300 19.483936
64.305 19.438984
64.310 19.726925
64.315 19.938354
64.320 19.402893
64.325 18.745394
64.330 18.10874
64.335 17.599113
64.340 16.965597
64.345 16.504295
64.350 16.774313
64.355 17.106041
64.360 17.431114
64.365 18.363592
64.370 19.428524
64.375 19.914644
64.380 20.328096
64.385 20.782991
64.390 20.344591
64.395 20.440372
64.400 20.063358
64.405 20.056145
64.410 19.986172
64.415 18.892857
64.420 18.042219
64.425 18.453596
64.430 18.319874
64.435 18.1036
64.440 17.302626
64.445 17.373074
64.450 18.236586
64.455 17.954468
64.460 17.796024
64.465 17.844652
64.470 18.070097
64.475 18.346992
64.480 18.248663
64.485 18.606716
64.490 19.178553
64.495 19.25935
64.500 19.019478
64.505 18.746702
64.510 18.67786
64.515 18.905348
64.520 18.97994
64.525 19.087025
64.530 19.32723
64.535 19.101992
64.540 19.470737
64.545 19.440937
64.550 19.277954
64.555 18.710199
64.560 18.684496
64.565 18.478102
64.570 17.90085
64.575 17.706333
64.580 18.191723
64.585 18.719007
64.590 19.06118
64.595 19.031292
64.600 19.568102
64.605 20.33312
64.610 20.811213
64.615 20.527077
64.620 20.071941
64.625 19.545914
64.630 19.076559
64.635 19.018024
64.640 18.809059
64.645 18.374233
64.650 18.293686
64.655 18.344143
64.660 19.293835
64.665 20.168983
64.670 20.284496
64.675 20.736519
64.680 20.233522
64.685 20.143044
64.690 19.822067
64.695 19.080524
64.700 18.851646
64.705 18.644302
64.710 18.881489
64.715 19.450411
64.720 19.494692
64.725 19.540018
64.730 19.703968
64.735 18.976475
64.740 18.735077
64.745 18.354948
64.750 19.075251
64.755 19.44495
64.760 19.603647
64.765 19.631077
64.770 19.831968
64.775 19.592793
64.780 18.869469
64.785 18.191254
64.790 17.864489
64.795 17.811924
64.800 17.988939
64.805 18.264523
64.810 18.805843
64.815 19.567806
64.820 19.872334
64.825 20.021778
64.830 19.904877
64.835 19.775053
64.840 19.506771
64.845 19.191832
64.850 19.044792
64.855 19.251297
64.860 19.470173
64.865 19.770044
64.870 19.888235
64.875 20.18354
64.880 20.721197
64.885 21.064781
64.890 20.904114
64.895 21.31119
64.900 21.060133
64.905 21.142746
64.910 21.125332
64.915 20.8846
64.920 20.046955
64.925 19.772776
64.930 19.419994
64.935 19.716169
64.940 19.955816
64.945 19.847
64.950 19.760502
64.955 19.783712
64.960 20.133099
64.965 20.08816
64.970 19.785688
64.975 19.878489
64.980 20.669975
64.985 21.368898
64.990 22.391449
64.995 22.055168
65.000 21.947475
65.005 22.370638
65.010 22.449675
65.015 21.583321
65.020 21.48103
65.025 21.237198
65.030 21.065281
65.035 21.383049
65.040 21.272272
65.045 21.292284
65.050 21.779278
65.055 22.157118
65.060 23.176859
65.065 23.383368
65.070 23.246786
65.075 22.505333
65.080 22.330818
65.085 22.042896
65.090 21.369852
65.095 20.5784
65.100 21.018402
65.105 21.307528
65.110 21.896629
65.115 21.709503
65.120 21.836334
65.125 21.610828
65.130 21.846382
65.135 22.126682
65.140 22.416483
65.145 22.402412
65.150 22.02169
65.155 21.786257
65.160 21.027618
65.165 20.684357
65.170 20.174164
65.175 19.578655
65.180 19.522295
65.185 19.843695
65.190 20.112499
65.195 20.678408
65.200 20.316368
65.205 20.216415
65.210 20.58415
65.215 20.909279
65.220 21.285183
65.225 21.700491
65.230 22.663958
65.235 23.170052
65.240 23.406086
65.245 23.751259
65.250 23.899059
65.255 24.22525
65.260 24.418743
65.265 23.690268
65.270 23.909948
65.275 24.328272
65.280 23.966993
65.285 23.899019
65.290 23.083578
65.295 22.449257
65.300 22.341431
65.305 21.281872
65.310 21.142366
65.315 21.414715
65.320 21.855764
65.325 22.640532
65.330 23.074083
65.335 22.584167
65.340 22.874998
65.345 22.648903
65.350 22.177645
65.355 21.843037
65.360 21.273348
65.365 21.154421
65.370 21.461519
65.375 21.753887
65.380 21.976639
65.385 22.647034
65.390 23.094122
65.395 23.526405
65.400 24.341747
65.405 25.291647
65.410 25.339958
65.415 25.394787
65.420 24.927366
65.425 25.166311
65.430 24.738525
65.435 23.641001
65.440 23.827105
65.445 24.066345
65.450 23.80014
65.455 23.851654
65.460 23.421885
65.465 24.178915
65.470 25.316278
65.475 25.083515
65.480 24.987856
65.485 25.114182
65.490 25.002039
65.495 24.941101
65.500 24.192554
65.505 23.879511
65.510 24.368607
65.515 25.140966
65.520 25.510878
65.525 25.300724
65.530 25.197592
65.535 25.289391
65.540 24.906086
65.545 25.108986
65.550 25.234991
65.555 25.64489
65.560 26.196581
65.565 26.828289
65.570 27.039839
65.575 27.742786
65.580 28.150278
65.585 27.489855
65.590 26.947187
65.595 27.215282
65.600 26.975672
65.605 27.034542
65.610 27.30657
65.615 27.235546
65.620 28.468807
65.625 29.466814
65.630 30.02421
65.635 30.464371
65.640 31.050472
65.645 30.765623
65.650 31.072359
65.655 31.201883
65.660 30.552515
65.665 29.801214
65.670 30.153873
65.675 30.227785
65.680 30.882408
65.685 31.219734
65.690 31.444357
65.695 32.021069
65.700 32.469093
65.705 32.557922
65.710 32.737518
65.715 32.573547
65.720 31.700027
65.725 31.242588
65.730 31.462833
65.735 32.112103
65.740 32.333019
65.745 32.481236
65.750 33.453213
65.755 34.484444
65.760 35.167805
65.765 35.265179
65.770 35.182842
65.775 35.165001
65.780 35.1838
65.785 34.732502
65.790 34.479675
65.795 34.363777
65.800 34.348965
65.805 34.877419
65.810 35.41404
65.815 35.911152
65.820 36.6138
65.825 36.897907
65.830 37.746693
65.835 37.760895
65.840 37.189342
65.845 37.148525
65.850 37.49612
65.855 36.670837
65.860 36.590733
65.865 36.599411
65.870 36.778206
65.875 36.456604
65.880 35.926033
65.885 35.134537
65.890 35.565674
65.895 35.234787
65.900 34.774487
65.905 34.550533
65.910 34.631977
65.915 35.04797
65.920 34.981873
65.925 35.06958
65.930 35.677742
65.935 36.006893
65.940 36.841965
65.945 37.348434
65.950 36.942547
65.955 37.213844
65.960 37.748028
65.965 38.254463
65.970 38.624157
65.975 39.121731
65.980 39.307697
65.985 39.605148
65.990 39.035095
65.995 38.949997
66.000 38.140236
66.005 37.61417
66.010 36.506374
66.015 36.87101
66.020 37.037815
66.025 37.117195
66.030 36.588436
66.035 36.891792
66.040 37.169186
66.045 36.912498
66.050 36.324913
66.055 36.513206
66.060 36.280342
66.065 36.262554
66.070 36.039745
66.075 36.455212
66.080 36.543533
66.085 36.67514
66.090 37.343243
66.095 37.801052
66.100 37.847912
66.105 37.838531
66.110 36.506828
66.115 36.148834
66.120 36.263187
66.125 35.883785
66.130 35.171799
66.135 34.033592
66.140 33.888565
66.145 34.312817
66.150 34.13612
66.155 33.302845
66.160 33.061665
66.165 33.313156
66.170 34.045197
66.175 34.52113
66.180 34.618641
66.185 34.444492
66.190 34.28476
66.195 33.871868
66.200 33.439461
66.205 33.104057
66.210 32.837975
66.215 32.732124
66.220 32.616272
66.225 32.525311
66.230 32.752144
66.235 33.004593
66.240 33.087257
66.245 32.966061
66.250 34.08144
66.255 35.002853
66.260 34.723038
66.265 34.752197
66.270 34.630665
66.275 34.568897
66.280 34.044643
66.285 33.117691
66.290 32.14967
66.295 32.618607
66.300 32.46574
66.305 33.135616
66.310 32.626102
66.315 32.451218
66.320 32.757565
66.325 33.076839
66.330 32.763561
66.335 32.631428
66.340 31.633745
66.345 31.856615
66.350 30.810829
66.355 30.53861
66.360 30.623455
66.365 30.216698
66.370 29.952955
66.375 29.715895
66.380 29.67907
66.385 29.981472
66.390 29.470654
66.395 29.309267
66.400 29.419897
66.405 29.160002
66.410 28.543125
66.415 27.902933
66.420 27.867346
66.425 27.331423
66.430 26.977564
66.435 27.011663
66.440 27.162453
66.445 27.001675
66.450 27.001474
66.455 27.964073
66.460 28.728458
66.465 28.432411
66.470 27.874445
66.475 28.144468
66.480 28.332642
66.485 28.077866
66.490 27.367184
66.495 27.496208
66.500 27.645014
66.505 27.850409
66.510 27.716265
66.515 28.026634
66.520 27.653269
66.525 27.326132
66.530 27.165451
66.535 26.965128
66.540 26.1759
66.545 25.620232
66.550 26.30241
66.555 27.001085
66.560 26.679186
66.565 26.448267
66.570 26.71146
66.575 27.028454
66.580 26.84449
66.585 26.337368
66.590 26.111511
66.595 26.677898
66.600 26.261696
66.605 26.384651
66.610 26.07719
66.615 25.990616
66.620 26.267174
66.625 26.265017
66.630 25.937637
66.635 25.874502
66.640 25.611898
66.645 25.36725
66.650 24.819468
66.655 24.494246
66.660 24.19235
66.665 24.015093
66.670 24.203665
66.675 24.501225
66.680 25.291233
66.685 25.41613
66.690 25.664679
66.695 26.082111
66.700 25.957212
66.705 25.625378
66.710 25.652344
66.715 25.646603
66.720 26.132477
66.725 25.760101
66.730 24.933182
66.735 24.568417
66.740 24.696722
66.745 24.213476
66.750 24.168621
66.755 24.30233
66.760 24.234549
66.765 24.281607
66.770 24.713705
66.775 25.087177
66.780 25.480085
66.785 25.377338
66.790 24.573967
66.795 24.154762
66.800 24.010761
66.805 23.65436
66.810 23.143261
66.815 22.826254
66.820 22.1756
66.825 22.328459
66.830 22.358015
66.835 22.311525
66.840 22.477165
66.845 22.504847
66.850 22.550842
66.855 22.865726
66.860 23.414469
66.865 23.501278
66.870 24.040701
66.875 23.765215
66.880 23.704903
66.885 23.478294
66.890 23.100597
66.895 22.736376
66.900 22.94142
66.905 22.752438
66.910 22.825739
66.915 23.459583
66.920 23.757261
66.925 23.381021
66.930 22.180515
66.935 21.947105
66.940 22.026392
66.945 21.819231
66.950 21.194857
66.955 21.486132
66.960 22.107035
66.965 22.712978
66.970 22.608925
66.975 22.676115
66.980 23.073503
66.985 23.20924
66.990 23.508923
66.995 23.782213
67.000 23.796402
67.005 23.703028
67.010 23.37788
67.015 22.953785
67.020 22.663137
67.025 22.674774
67.030 22.502682
67.035 22.910435
67.040 23.238235
67.045 23.630383
67.050 23.72834
67.055 23.982498
67.060 24.027847
67.065 23.781076
67.070 23.048256
67.075 22.758909
67.080 22.454922
67.085 22.205687
67.090 21.624542
67.095 21.294472
67.100 22.66774
67.105 23.55929
67.110 23.980183
67.115 24.150305
67.120 24.515388
67.125 24.612514
67.130 24.406788
67.135 23.67712
67.140 22.566771
67.145 21.541258
67.150 21.387041
67.155 20.712471
67.160 20.688148
67.165 20.446402
67.170 20.292826
67.175 20.718626
67.180 21.365114
67.185 21.151892
67.190 21.109428
67.195 21.020327
67.200 20.886818
67.205 21.401831
67.210 21.874107
67.215 21.550726
67.220 21.666883
67.225 21.990011
67.230 22.256048
67.235 22.55423
67.240 22.466349
67.245 22.423563
67.250 22.521898
67.255 22.528772
67.260 22.813692
67.265 22.749969
67.270 22.370678
67.275 21.330748
67.280 21.111116
67.285 21.448317
67.290 21.631361
67.295 21.30937
67.300 21.520994
67.305 21.224241
67.310 21.49004
67.315 21.078911
67.320 21.064207
67.325 20.527365
67.330 20.452042
67.335 19.72081
67.340 19.940111
67.345 20.42523
67.350 20.949369
67.355 21.395479
67.360 21.334263
67.365 21.441702
67.370 21.884975
67.375 21.934259
67.380 21.850393
67.385 21.938108
67.390 22.361927
67.395 22.454
67.400 22.400606
67.405 22.349234
67.410 22.649567
67.415 22.934174
67.420 22.556662
67.425 21.946243
67.430 21.900658
67.435 21.476894
67.440 21.613382
67.445 21.708685
67.450 20.612337
67.455 20.261868
67.460 20.067802
67.465 20.16061
67.470 20.746328
67.475 20.82905
67.480 21.187353
67.485 22.572325
67.490 23.17127
67.495 22.94768
67.500 23.382111
67.505 23.261337
67.510 23.124062
67.515 22.82123
67.520 22.356855
67.525 21.899662
67.530 21.791267
67.535 21.727205
67.540 21.680492
67.545 21.421957
67.550 20.690973
67.555 19.901213
67.560 19.996262
67.565 19.840412
67.570 19.143
67.575 19.064653
67.580 19.463579
67.585 19.99324
67.590 21.068821
67.595 21.332905
67.600 22.399363
67.605 23.015053
67.610 23.474628
67.615 23.377777
67.620 22.820999
67.625 22.101328
67.630 21.806225
67.635 21.886099
67.640 21.817312
67.645 21.346537
67.650 20.690704
67.655 20.784628
67.660 21.252356
67.665 21.519991
67.670 21.134619
67.675 20.980272
67.680 21.024473
67.685 21.753775
67.690 22.089954
67.695 21.654533
67.700 21.105795
67.705 20.373407
67.710 20.007767
67.715 20.195066
67.720 20.561729
67.725 20.667273
67.730 20.746841
67.735 21.284286
67.740 21.865477
67.745 21.779768
67.750 21.412357
67.755 20.611845
67.760 20.116661
67.765 20.234331
67.770 20.581442
67.775 20.899401
67.780 20.995499
67.785 21.336988
67.790 21.656712
67.795 21.860067
67.800 22.375023
67.805 22.005758
67.810 21.480774
67.815 21.035192
67.820 20.714033
67.825 20.238712
67.830 19.892942
67.835 19.620674
67.840 19.46241
67.845 19.83536
67.850 20.535761
67.855 20.724693
67.860 21.139427
67.865 21.518192
67.870 21.475636
67.875 21.869688
67.880 21.902193
67.885 21.610716
67.890 22.009094
67.895 22.030354
67.900 22.27965
67.905 22.332447
67.910 22.357679
67.915 22.715765
67.920 22.718348
67.925 22.443624
67.930 22.505945
67.935 22.483625
67.940 22.684883
67.945 23.091242
67.950 23.092642
67.955 23.030476
67.960 22.533545
67.965 22.409092
67.970 21.994379
67.975 21.576336
67.980 20.92812
67.985 20.8556
67.990 20.956488
67.995 20.874826
68.000 20.451595
68.005 20.280626
68.010 20.121645
68.015 19.931553
68.020 19.735146
68.025 19.49287
68.030 20.061314
68.035 21.031549
68.040 21.509296
68.045 21.627966
68.050 21.985237
68.055 22.6031
68.060 23.244562
68.065 22.864964
68.070 21.994211
68.075 21.638807
68.080 21.476992
68.085 20.952335
68.090 20.49148
68.095 20.749535
68.100 21.036587
68.105 21.303255
68.110 21.286556
68.115 21.665667
68.120 21.682978
68.125 21.24869
68.130 20.769768
68.135 20.737232
68.140 21.241814
68.145 21.738424
68.150 22.062401
68.155 21.976839
68.160 22.34572
68.165 22.178495
68.170 22.067976
68.175 21.079781
68.180 19.929247
68.185 19.754818
68.190 20.324501
68.195 20.229513
68.200 20.253338
68.205 20.510574
68.210 21.132219
68.215 21.42985
68.220 21.466751
68.225 21.130373
68.230 20.894676
68.235 20.621492
68.240 19.926661
68.245 19.1731
68.250 19.523968
68.255 19.604166
68.260 19.37879
68.265 19.895651
68.270 20.728489
68.275 21.30929
68.280 21.899176
68.285 22.408691
68.290 22.55975
68.295 23.299229
68.300 23.071415
68.305 22.488867
68.310 22.799578
68.315 22.230249
68.320 21.512266
68.325 20.992947
68.330 20.799242
68.335 21.020214
68.340 21.107338
68.345 21.230614
68.350 21.648327
68.355 21.279705
68.360 21.491762
68.365 21.264671
68.370 21.208242
68.375 21.003897
68.380 20.843801
68.385 21.430349
68.390 21.892551
68.395 21.231112
68.400 21.043024
68.405 20.974089
68.410 20.60589
68.415 20.151823
68.420 19.841469
68.425 19.360075
68.430 19.395195
68.435 19.415508
68.440 19.815559
68.445 19.588324
68.450 20.198454
68.455 20.232576
68.460 20.161572
68.465 20.603077
68.470 20.465389
68.475 20.186459
68.480 20.822001
68.485 21.058701
68.490 21.56193
68.495 22.123093
68.500 22.047062
68.505 22.121983
68.510 22.136396
68.515 21.812441
68.520 21.671082
68.525 21.852098
68.530 22.013985
68.535 22.14505
68.540 22.110134
68.545 21.977566
68.550 22.285969
68.555 22.40733
68.560 21.661303
68.565 21.638248
68.570 21.898418
68.575 21.923269
68.580 21.832975
68.585 21.405437
68.590 21.195776
68.595 21.338575
68.600 20.334909
68.605 19.884459
68.610 19.493212
68.615 19.600845
68.620 19.5268
68.625 19.770973
68.630 20.484907
68.635 21.029905
68.640 21.274822
68.645 21.840117
68.650 21.764105
68.655 21.530052
68.660 21.00024
68.665 20.778597
68.670 21.240026
68.675 21.482906
68.680 21.180691
68.685 21.763462
68.690 22.509884
68.695 22.676952
68.700 22.840628
68.705 22.293137
68.710 22.117926
68.715 22.162554
68.720 21.774939
68.725 21.141626
68.730 20.726656
68.735 20.785589
68.740 20.96657
68.745 20.563295
68.750 20.541145
68.755 20.205103
68.760 20.207958
68.765 20.297073
68.770 20.077438
68.775 20.820263
68.780 21.616358
68.785 21.729998
68.790 22.259579
68.795 22.579239
68.800 22.466625
68.805 22.445749
68.810 21.83564
68.815 21.426876
68.820 21.29776
68.825 21.112223
68.830 21.22504
68.835 21.884748
68.840 22.037695
68.845 22.80442
68.850 23.758911
68.855 24.360273
68.860 24.373489
68.865 24.402822
68.870 23.809845
68.875 23.406013
68.880 22.550449
68.885 21.64603
68.890 21.117313
68.895 21.373093
68.900 22.122332
68.905 22.768225
68.910 23.579918
68.915 24.076468
68.920 23.953575
68.925 24.300831
68.930 23.994452
68.935 23.197422
68.940 23.114986
68.945 22.50423
68.950 22.497231
68.955 22.84531
68.960 22.894114
68.965 23.118164
68.970 23.018703
68.975 23.045614
68.980 23.636978
68.985 23.986244
68.990 23.76399
68.995 23.152494
69.000 22.81633
69.005 22.940096
69.010 22.74544
69.015 21.770107
69.020 21.410627
69.025 21.720598
69.030 22.012228
69.035 22.505377
69.040 23.310083
69.045 23.671448
69.050 24.35874
69.055 24.544827
69.060 24.563328
69.065 25.043201
69.070 24.968597
69.075 24.97817
69.080 24.557327
69.085 24.832987
69.090 25.073259
69.095 25.626474
69.100 26.033026
69.105 26.62587
69.110 25.943127
69.115 26.396807
69.120 25.9932
69.125 25.691702
69.130 25.327948
69.135 24.622547
69.140 24.673771
69.145 24.766602
69.150 25.146181
69.155 25.75507
69.160 25.887875
69.165 25.762671
69.170 25.996565
69.175 25.55756
69.180 25.889889
69.185 26.101999
69.190 25.866512
69.195 25.902905
69.200 25.853598
69.205 25.883852
69.210 26.148508
69.215 26.025274
69.220 25.24251
69.225 25.766039
69.230 25.739414
69.235 25.587198
69.240 25.030149
69.245 24.932022
69.250 25.187519
69.255 26.028963
69.260 25.858364
69.265 26.217819
69.270 27.191008
69.275 27.353348
69.280 26.838745
69.285 26.322117
69.290 26.733191
69.295 27.411337
69.300 27.570797
69.305 27.574112
69.310 28.03076
69.315 28.101442
69.320 28.129717
69.325 27.16008
69.330 26.49008
69.335 26.065811
69.340 26.547523
69.345 27.333481
69.350 27.929358
69.355 28.064953
69.360 27.791647
69.365 27.765821
69.370 27.298254
69.375 26.508896
69.380 25.87488
69.385 25.852747
69.390 25.627075
69.395 26.690187
69.400 27.530525
69.405 27.596409
69.410 27.544655
69.415 28.21797
69.420 29.56876
69.425 30.74983
69.430 30.472006
69.435 30.00696
69.440 30.770411
69.445 31.479851
69.450 31.166008
69.455 30.107775
69.460 28.939693
69.465 27.987675
69.470 27.648132
69.475 26.857525
69.480 26.575911
69.485 26.246113
69.490 26.097174
69.495 26.142868
69.500 26.888081
69.505 27.034401
69.510 27.303326
69.515 28.000067
69.520 28.617126
69.525 28.608736
69.530 29.031164
69.535 29.474171
69.540 30.419039
69.545 30.524601
69.550 29.52132
69.555 29.509789
69.560 29.886942
69.565 29.621693
69.570 29.278986
69.575 28.334566
69.580 27.871595
69.585 27.570946
69.590 27.49321
69.595 26.964375
69.600 26.537682
69.605 26.176416
69.610 26.434008
69.615 26.622377
69.620 27.54418
69.625 27.055321
69.630 27.731018
69.635 28.938314
69.640 29.551672
69.645 29.225782
69.650 29.462553
69.655 29.156351
69.660 29.3433
69.665 28.230921
69.670 27.561768
69.675 27.49929
69.680 27.878025
69.685 28.224072
69.690 28.481117
69.695 28.931803
69.700 28.895109
69.705 28.546568
69.710 27.913691
69.715 27.495811
69.720 26.60671
69.725 26.5769
69.730 26.156614
69.735 26.084826
69.740 26.678318
69.745 27.037348
69.750 27.166344
69.755 27.29932
69.760 26.962317
69.765 27.484215
69.770 27.884222
69.775 28.029846
69.780 28.177547
69.785 27.905151
69.790 27.495951
69.795 27.250992
69.800 27.499212
69.805 27.318319
69.810 26.729734
69.815 27.183039
69.820 27.309294
69.825 27.042839
69.830 26.455591
69.835 25.663765
69.840 24.268412
69.845 24.043713
69.850 24.007284
69.855 24.300339
69.860 23.962139
69.865 23.985905
69.870 24.136677
69.875 24.783106
69.880 25.057171
69.885 24.542185
69.890 24.659758
69.895 24.726761
69.900 24.558426
69.905 24.60552
69.910 24.656677
69.915 23.853296
69.920 23.610628
69.925 22.970226
69.930 23.450714
69.935 23.567053
69.940 23.150791
69.945 22.347185
69.950 22.228315
69.955 21.893028
69.960 21.773733
69.965 22.183258
69.970 22.576141
69.975 22.614534
69.980 22.553753
69.985 22.552841
69.990 22.989265
69.995 23.039717
70.000 22.154049
70.005 21.6975
70.010 21.881914
70.015 22.181341
70.020 21.723965
70.025 21.672873
70.030 22.236204
70.035 22.697214
70.040 22.675583
70.045 21.879835
70.050 21.61655
70.055 22.203926
70.060 22.202831
70.065 21.137747
70.070 20.214388
70.075 20.490578
70.080 21.503206
70.085 22.260414
70.090 22.123171
70.095 22.596268
70.100 22.994631
70.105 23.193968
70.110 22.444786
70.115 21.713718
70.120 21.187
70.125 20.319365
70.130 19.653698
70.135 19.388855
70.140 20.005476
70.145 20.884472
70.150 20.91976
70.155 20.946413
70.160 21.760323
70.165 22.247425
70.170 22.490377
70.175 22.085089
70.180 21.982645
70.185 21.939548
70.190 21.913891
70.195 21.718452
70.200 21.228159
70.205 20.877855
70.210 20.18022
70.215 19.913105
70.220 19.944061
70.225 18.8302
70.230 18.038906
70.235 18.072424
70.240 18.542479
70.245 19.211613
70.250 19.448956
70.255 19.656199
70.260 20.179602
70.265 20.27323
70.270 20.352274
70.275 20.079969
70.280 20.280224
70.285 20.222687
70.290 20.065294
70.295 20.232466
70.300 20.225338
70.305 19.685514
70.310 19.424047
70.315 19.134233
70.320 19.325504
70.325 19.541576
70.330 19.009279
70.335 19.056252
70.340 19.203629
70.345 18.764307
70.350 19.031605
70.355 18.91353
70.360 19.427086
70.365 20.28297
70.370 20.063499
70.375 20.327705
70.380 20.473787
70.385 20.275114
70.390 20.102451
70.395 19.868923
70.400 19.917145
70.405 19.842426
70.410 19.914921
70.415 19.673313
70.420 19.356251
70.425 19.096157
70.430 19.124235
70.435 18.916452
70.440 19.029369
70.445 18.680582
70.450 18.312553
70.455 18.54772
70.460 18.921259
70.465 18.694475
70.470 18.468508
70.475 18.36516
70.480 18.312304
70.485 18.741577
70.490 18.481543
70.495 17.93989
70.500 18.290197
70.505 19.389122
70.510 20.246778
70.515 20.321117
70.520 20.458673
70.525 20.744585
70.530 20.986017
70.535 20.889797
70.540 20.472252
70.545 20.506262
70.550 20.549664
70.555 20.621246
70.560 20.888168
70.565 20.871628
70.570 20.879793
70.575 21.184278
70.580 21.370329
70.585 22.313757
70.590 22.092546
70.595 21.460127
70.600 21.027111
70.605 20.233274
70.610 19.713255
70.615 18.990971
70.620 18.53607
70.625 18.766993
70.630 18.783518
70.635 18.938896
70.640 19.427273
70.645 19.130386
70.650 19.004839
70.655 18.690323
70.660 18.879025
70.665 19.629662
70.670 19.838503
70.675 19.560482
70.680 20.194635
70.685 19.970657
70.690 19.505518
70.695 18.870256
70.700 18.443607
70.705 18.284487
70.710 18.345339
70.715 18.361521
70.720 19.183945
70.725 19.603428
70.730 19.505339
70.735 19.722681
70.740 19.668203
70.745 19.520346
70.750 19.174545
70.755 18.440744
70.760 18.458096
70.765 18.629232
70.770 18.27548
70.775 18.339031
70.780 18.323544
70.785 18.417566
70.790 18.80286
70.795 18.692162
70.800 19.198685
70.805 19.193365
70.810 19.210526
70.815 19.370243
70.820 19.351034
70.825 19.318419
70.830 19.660692
70.835 19.824232
70.840 19.56926
70.845 19.581032
70.850 19.633104
70.855 18.985151
70.860 19.027287
70.865 18.499964
70.870 18.276987
70.875 18.667589
70.880 18.406368
70.885 18.927971
70.890 19.832586
70.895 20.383217
70.900 21.23954
70.905 21.569326
70.910 21.431559
70.915 21.872652
70.920 21.772568
70.925 20.987577
70.930 20.365068
70.935 20.119331
70.940 20.415657
70.945 20.308346
70.950 19.679684
70.955 19.527227
70.960 19.420546
70.965 19.343445
70.970 18.66712
70.975 18.375257
70.980 19.084774
70.985 19.477716
70.990 19.445257
70.995 19.38619
71.000 19.367077
71.005 19.643703
71.010 19.209888
71.015 18.962143
71.020 18.974396
71.025 18.602755
71.030 18.780422
71.035 19.062801
71.040 19.71895
71.045 20.226698
71.050 19.893192
71.055 20.036924
71.060 20.2743
71.065 20.203074
71.070 19.75448
71.075 18.739578
71.080 18.30694
71.085 18.721052
71.090 19.353786
71.095 19.193127
71.100 19.087761
71.105 19.258566
71.110 19.665117
71.115 19.777922
71.120 19.418205
71.125 19.122168
71.130 19.475147
71.135 19.341711
71.140 19.702646
71.145 19.491571
71.150 19.061768
71.155 18.782415
71.160 18.952669
71.165 19.267637
71.170 19.67342
71.175 19.268417
71.180 19.930243
71.185 20.614281
71.190 20.993816
71.195 20.95756
71.200 20.636946
71.205 20.99217
71.210 20.824699
71.215 20.177355
71.220 19.813803
71.225 19.365782
71.230 19.763605
71.235 19.945627
71.240 19.401688
71.245 19.699347
71.250 19.629393
71.255 19.249153
71.260 19.044994
71.265 18.562761
71.270 17.686447
71.275 17.484951
71.280 16.819715
71.285 16.968309
71.290 16.934298
71.295 17.032982
71.300 17.054955
71.305 18.469551
71.310 18.417122
71.315 18.652643
71.320 18.82732
71.325 19.27759
71.330 19.286999
71.335 18.651819
71.340 18.030533
71.345 18.46455
71.350 17.969994
71.355 17.819208
71.360 17.977993
71.365 17.728544
71.370 17.511858
71.375 18.073248
71.380 18.653086
71.385 19.366268
71.390 19.099024
71.395 19.135893
71.400 19.652845
71.405 20.476397
71.410 20.16074
71.415 19.858393
71.420 20.413744
71.425 20.492199
71.430 21.124872
71.435 20.756123
71.440 20.84333
71.445 20.618858
71.450 20.387602
71.455 20.474926
71.460 19.768551
71.465 18.870962
71.470 18.596375
71.475 18.069754
71.480 18.35211
71.485 18.596684
71.490 18.786558
71.495 19.343065
71.500 20.025867
71.505 19.862032
71.510 19.587296
71.515 19.49016
71.520 18.978935
71.525 18.587416
71.530 18.594336
71.535 18.341816
71.540 18.670116
71.545 18.842449
71.550 18.147978
71.555 18.304846
71.560 18.473379
71.565 18.079903
71.570 18.027546
71.575 17.969082
71.580 17.900023
71.585 17.992153
71.590 17.88415
71.595 17.788483
71.600 17.718147
71.605 17.977695
71.610 18.139013
71.615 17.736805
71.620 17.722998
71.625 17.221788
71.630 17.117693
71.635 17.727915
71.640 17.931856
71.645 18.216496
71.650 18.854004
71.655 18.579567
71.660 19.153734
71.665 19.188259
71.670 18.738895
71.675 18.125708
71.680 18.133049
71.685 17.759817
71.690 17.965733
71.695 18.044432
71.700 18.547115
71.705 18.988161
71.710 18.87101
71.715 19.076866
71.720 19.58717
71.725 19.757637
71.730 20.297701
71.735 19.78581
71.740 19.333925
71.745 19.621698
71.750 19.407362
71.755 19.00985
71.760 18.664179
71.765 18.196417
71.770 18.135954
71.775 18.060974
71.780 17.952658
71.785 17.936163
71.790 18.487049
71.795 18.395403
71.800 18.34552
71.805 18.6439
71.810 18.804438
71.815 18.871193
71.820 18.845675
71.825 18.271439
71.830 18.452646
71.835 18.506933
71.840 18.292351
71.845 18.329731
71.850 18.30303
71.855 18.429153
71.860 18.681633
71.865 18.711227
71.870 19.100027
71.875 19.338552
71.880 19.448854
71.885 19.206738
71.890 19.507252
71.895 19.768946
71.900 19.736572
71.905 19.662073
71.910 20.454256
71.915 20.414049
71.920 20.326738
71.925 20.13891
71.930 19.565737
71.935 19.602303
71.940 19.803936
71.945 19.395786
71.950 19.565763
71.955 19.86154
71.960 19.808369
71.965 20.022926
71.970 19.674118
71.975 18.897831
71.980 18.54764
71.985 18.685373
71.990 18.645214
71.995 18.264359
72.000 18.011562
72.005 18.164959
72.010 18.465178
72.015 18.309446
72.020 17.722496
72.025 17.558489
72.030 17.440639
72.035 17.824137
72.040 17.595293
72.045 17.458754
72.050 17.386454
72.055 17.355915
72.060 17.556181
72.065 17.955057
72.070 17.595339
72.075 17.276968
72.080 17.288223
72.085 17.902929
72.090 18.327847
72.095 17.929443
72.100 18.198147
72.105 18.445597
72.110 18.171688
72.115 18.086479
72.120 17.78854
72.125 17.815487
72.130 17.677795
72.135 17.342838
72.140 17.261692
72.145 17.605862
72.150 17.17668
72.155 17.122133
72.160 17.215384
72.165 17.251509
72.170 17.321871
72.175 17.457008
72.180 17.613928
72.185 18.13483
72.190 18.891361
72.195 19.57106
72.200 19.369041
72.205 19.391159
72.210 19.489071
72.215 19.060482
72.220 18.642202
72.225 17.704638
72.230 17.093693
72.235 17.697052
72.240 18.090952
72.245 18.179613
72.250 18.821983
72.255 18.428291
72.260 18.741533
72.265 18.672606
72.270 18.03665
72.275 17.90962
72.280 18.336506
72.285 18.610691
72.290 19.285744
72.295 19.218163
72.300 19.406908
72.305 19.463892
72.310 20.147875
72.315 20.473169
72.320 20.139275
72.325 19.568165
72.330 19.084126
72.335 18.922022
72.340 18.673079
72.345 18.040932
72.350 17.118286
72.355 17.403763
72.360 17.601875
72.365 17.995758
72.370 17.849224
72.375 17.684259
72.380 17.982113
72.385 18.292406
72.390 18.560516
72.395 18.852196
72.400 18.863649
72.405 19.521854
72.410 19.182238
72.415 18.995707
72.420 19.145691
72.425 18.898779
72.430 18.647503
72.435 18.513887
72.440 18.64469
72.445 19.240788
72.450 19.080748
72.455 18.867023
72.460 18.573746
72.465 19.538839
72.470 19.481001
72.475 19.003115
72.480 18.682219
72.485 18.732254
72.490 18.559547
72.495 18.272726
72.500 17.770441
72.505 17.859606
72.510 17.52696
72.515 17.221661
72.520 17.33143
72.525 17.394651
72.530 16.880838
72.535 16.970144
72.540 17.211735
72.545 17.322926
72.550 17.333406
72.555 17.310781
72.560 17.826191
72.565 18.31772
72.570 17.452848
72.575 17.488447
72.580 18.061419
72.585 17.956202
72.590 18.00717
72.595 17.922873
72.600 18.349106
72.605 18.548525
72.610 17.925825
72.615 17.333616
72.620 17.779221
72.625 17.474628
72.630 17.047298
72.635 16.955954
72.640 16.970343
72.645 17.385944
72.650 17.598156
72.655 18.027201
72.660 18.56362
72.665 18.400478
72.670 18.615427
72.675 18.668615
72.680 18.668777
72.685 18.441986
72.690 17.064594
72.695 17.375435
72.700 17.641964
72.705 17.546352
72.710 17.668316
72.715 17.55607
72.720 17.859051
72.725 18.149506
72.730 17.550694
72.735 17.290808
72.740 17.490967
72.745 17.587494
72.750 17.61091
72.755 17.570787
72.760 17.741608
72.765 18.554087
72.770 18.107712
72.775 17.820004
72.780 17.477097
72.785 17.22212
72.790 16.658461
72.795 16.143259
72.800 15.941475
72.805 16.277952
72.810 16.244726
72.815 16.346327
72.820 15.984484
72.825 16.030622
72.830 15.692586
72.835 15.910698
72.840 16.117455
72.845 16.211763
72.850 16.780306
72.855 17.371063
72.860 18.35227
72.865 18.493311
72.870 17.819769
72.875 18.142292
72.880 18.208294
72.885 18.367769
72.890 18.212894
72.895 17.892349
72.900 18.355782
72.905 17.675905
72.910 17.340668
72.915 17.322392
72.920 16.987074
72.925 16.954905
72.930 16.575073
72.935 16.251818
72.940 16.632568
72.945 16.355444
72.950 16.328085
72.955 16.682356
72.960 17.146049
72.965 16.833174
72.970 16.781078
72.975 17.057278
72.980 17.666609
72.985 17.407522
72.990 16.888695
72.995 16.680363
73.000 17.282572
