!@!!GADDS PLOTSO FILE: Chi integration type
!@!!Title/SampleName: map-13e
!@!!Comment: ?
!@!!User: Bruker Instrument Administrator
!@!!Site: University of Illinois Chicago
!@!!Frame: map-13e_01_000.gfrm
!@!!Wavelengths    1.54184   1.54056   1.54439
!@!!Frame angles: 2Theta: 63.000 Omega: 50.000 Phi: 0.000 Chi: 90.000
!@!!Integration range: 2Theta: 53.000 to 73.000  Gamma: -105.000 to -75.000
!@!!Integration method: bin normalized
!@!N
!@!SS
!@!M
!@!L 0.0 0.0 0.0 0.0
!@!XDegrees
!@!YCounts
53.000 9.529725
53.005 9.566657
53.010 9.56365
53.015 9.389853
53.020 8.923476
53.025 8.295229
53.030 8.688608
53.035 9.001992
53.040 8.9405
53.045 8.807907
53.050 8.823874
53.055 9.209246
53.060 9.340302
53.065 9.141767
53.070 9.468832
53.075 9.81341
53.080 9.951322
53.085 10.164457
53.090 10.425646
53.095 10.44551
53.100 10.723025
53.105 10.609916
53.110 10.521546
53.115 10.087571
53.120 9.791838
53.125 9.447762
53.130 9.431136
53.135 9.096318
53.140 8.733932
53.145 8.839949
53.150 9.022339
53.155 8.77013
53.160 8.984889
53.165 9.321092
53.170 9.761185
53.175 10.178512
53.180 10.06427
53.185 10.705736
53.190 11.19312
53.195 11.128091
53.200 10.503153
53.205 10.345168
53.210 10.129167
53.215 10.768082
53.220 10.354037
53.225 10.103274
53.230 9.817761
53.235 10.155798
53.240 10.477076
53.245 10.120305
53.250 9.706023
53.255 9.730463
53.260 10.584207
53.265 10.981867
53.270 10.881606
53.275 10.566762
53.280 10.284108
53.285 10.439809
53.290 10.246472
53.295 9.395134
53.300 9.500624
53.305 9.658725
53.310 9.982693
53.315 10.355342
53.320 9.790783
53.325 9.928176
53.330 10.0614
53.335 10.14395
53.340 10.117859
53.345 9.890713
53.350 9.974808
53.355 10.812479
53.360 10.991808
53.365 11.068822
53.370 11.017183
53.375 11.067671
53.380 11.231277
53.385 10.808165
53.390 10.593549
53.395 10.364043
53.400 10.152696
53.405 9.81884
53.410 9.827605
53.415 9.483007
53.420 9.843562
53.425 9.639935
53.430 9.705995
53.435 10.158545
53.440 10.157624
53.445 10.533204
53.450 10.684181
53.455 10.335368
53.460 10.332589
53.465 10.186691
53.470 9.963394
53.475 10.026902
53.480 9.782849
53.485 9.755566
53.490 10.499068
53.495 10.636605
53.500 10.662722
53.505 10.831735
53.510 10.570164
53.515 10.574591
53.520 10.566762
53.525 10.421449
53.530 10.855638
53.535 10.832386
53.540 10.766657
53.545 10.694674
53.550 10.655111
53.555 10.580477
53.560 10.343299
53.565 10.011406
53.570 9.804128
53.575 9.787762
53.580 10.244572
53.585 9.912807
53.590 9.790633
53.595 9.60234
53.600 9.718019
53.605 9.879804
53.610 9.662072
53.615 9.398815
53.620 9.726555
53.625 9.926994
53.630 10.035129
53.635 10.215232
53.640 10.28541
53.645 10.140599
53.650 10.177011
53.655 10.267186
53.660 10.234571
53.665 10.218751
53.670 10.132582
53.675 9.880133
53.680 10.174962
53.685 10.01893
53.690 9.67369
53.695 9.679374
53.700 9.444171
53.705 9.734542
53.710 9.694662
53.715 9.859054
53.720 10.573081
53.725 10.979331
53.730 10.934914
53.735 10.990516
53.740 11.015217
53.745 11.373615
53.750 10.755627
53.755 10.081713
53.760 10.016299
53.765 10.157231
53.770 9.851797
53.775 9.528052
53.780 9.862269
53.785 10.546581
53.790 10.71918
53.795 10.602419
53.800 10.611616
53.805 11.282371
53.810 11.678425
53.815 11.359773
53.820 10.817949
53.825 10.685721
53.830 10.595409
53.835 10.530046
53.840 10.248389
53.845 10.617473
53.850 10.883556
53.855 10.811882
53.860 11.180788
53.865 11.096531
53.870 10.883331
53.875 10.307819
53.880 9.834983
53.885 10.132485
53.890 10.490987
53.895 10.548719
53.900 10.643863
53.905 10.832276
53.910 11.216887
53.915 11.050213
53.920 10.779463
53.925 10.735508
53.930 10.734119
53.935 10.940904
53.940 10.89333
53.945 10.962695
53.950 11.154373
53.955 10.692924
53.960 10.608767
53.965 10.750755
53.970 10.703983
53.975 10.848137
53.980 10.525244
53.985 10.604323
53.990 10.988666
53.995 11.373631
54.000 11.370053
54.005 11.370015
54.010 10.924791
54.015 10.818399
54.020 10.659998
54.025 10.526123
54.030 9.651593
54.035 9.410002
54.040 9.651742
54.045 9.818682
54.050 10.109759
54.055 10.273428
54.060 10.20154
54.065 10.315671
54.070 10.246915
54.075 9.824888
54.080 10.120961
54.085 9.890017
54.090 9.797798
54.095 10.353221
54.100 10.404387
54.105 10.477005
54.110 10.917252
54.115 10.853573
54.120 11.050935
54.125 10.900396
54.130 10.40266
54.135 10.625737
54.140 10.734921
54.145 10.261373
54.150 10.204524
54.155 10.212417
54.160 10.139871
54.165 10.245454
54.170 10.291654
54.175 10.22631
54.180 10.52629
54.185 10.242764
54.190 9.905586
54.195 9.983704
54.200 9.773701
54.205 9.543495
54.210 9.540103
54.215 9.563761
54.220 9.612818
54.225 9.671211
54.230 10.143912
54.235 11.032274
54.240 11.294474
54.245 11.17735
54.250 10.992771
54.255 11.194005
54.260 11.342428
54.265 10.992151
54.270 10.707109
54.275 11.210496
54.280 11.74112
54.285 11.765865
54.290 11.934395
54.295 11.750273
54.300 11.657048
54.305 11.517076
54.310 11.523137
54.315 11.502547
54.320 11.391772
54.325 11.432703
54.330 12.005175
54.335 12.363036
54.340 12.229435
54.345 12.114004
54.350 12.222589
54.355 12.074355
54.360 11.643223
54.365 11.468369
54.370 11.710428
54.375 11.698433
54.380 11.655385
54.385 11.501349
54.390 11.454177
54.395 12.086867
54.400 11.85608
54.405 11.177851
54.410 10.976546
54.415 10.806346
54.420 10.863465
54.425 11.007848
54.430 10.557821
54.435 10.460594
54.440 11.013599
54.445 11.112186
54.450 11.285061
54.455 11.81011
54.460 11.875428
54.465 11.530361
54.470 11.158134
54.475 10.887066
54.480 10.893786
54.485 10.502364
54.490 10.17035
54.495 10.21909
54.500 10.341783
54.505 10.179071
54.510 10.086746
54.515 9.906886
54.520 9.882292
54.525 10.121022
54.530 10.822414
54.535 11.365397
54.540 11.710793
54.545 11.971894
54.550 12.420897
54.555 12.577475
54.560 12.659796
54.565 12.126653
54.570 12.216774
54.575 12.575542
54.580 12.287834
54.585 12.346572
54.590 12.350597
54.595 12.358137
54.600 12.314461
54.605 11.923641
54.610 11.194283
54.615 11.187009
54.620 10.912639
54.625 10.613049
54.630 10.080599
54.635 10.076029
54.640 10.669338
54.645 11.008463
54.650 11.012527
54.655 11.012102
54.660 11.250329
54.665 11.069489
54.670 10.77698
54.675 10.205467
54.680 10.47972
54.685 10.502797
54.690 10.421897
54.695 10.614661
54.700 10.782981
54.705 10.874877
54.710 11.263376
54.715 11.076541
54.720 11.247366
54.725 11.319509
54.730 11.530261
54.735 11.944858
54.740 12.431792
54.745 12.683307
54.750 12.751357
54.755 12.562987
54.760 12.226199
54.765 12.084684
54.770 11.940575
54.775 11.088428
54.780 10.520592
54.785 10.425535
54.790 10.319292
54.795 10.302739
54.800 10.128284
54.805 10.37184
54.810 10.788142
54.815 10.951646
54.820 11.44611
54.825 12.299338
54.830 12.642023
54.835 12.668502
54.840 12.671135
54.845 12.718463
54.850 12.58207
54.855 12.338848
54.860 11.934315
54.865 11.62547
54.870 11.537832
54.875 11.656523
54.880 12.496653
54.885 13.182299
54.890 13.235575
54.895 13.080727
54.900 13.336261
54.905 13.533561
54.910 13.617804
54.915 13.472658
54.920 13.389509
54.925 13.185088
54.930 13.142655
54.935 13.075432
54.940 12.568909
54.945 12.049371
54.950 11.871725
54.955 11.927291
54.960 12.343111
54.965 12.444551
54.970 12.365164
54.975 12.36745
54.980 12.424891
54.985 12.150834
54.990 12.266336
54.995 12.178833
55.000 12.068798
55.005 12.248275
55.010 12.384799
55.015 12.643235
55.020 12.498244
55.025 11.93659
55.030 11.555373
55.035 11.707453
55.040 12.013627
55.045 12.206912
55.050 11.901812
55.055 12.249164
55.060 12.363221
55.065 12.402824
55.070 12.098378
55.075 11.618914
55.080 11.240912
55.085 10.8612
55.090 10.85994
55.095 11.378794
55.100 11.654311
55.105 12.121182
55.110 12.520365
55.115 12.796506
55.120 12.970218
55.125 12.669724
55.130 12.610382
55.135 12.543504
55.140 11.967019
55.145 11.929162
55.150 11.748109
55.155 11.830976
55.160 12.342223
55.165 12.596685
55.170 12.855169
55.175 13.092466
55.180 13.326231
55.185 13.442212
55.190 13.220416
55.195 12.510323
55.200 12.014219
55.205 12.020874
55.210 11.840678
55.215 11.578414
55.220 11.255258
55.225 10.973969
55.230 10.694787
55.235 10.453019
55.240 9.784419
55.245 9.875292
55.250 9.753272
55.255 9.590925
55.260 9.853658
55.265 10.497458
55.270 10.624744
55.275 11.067169
55.280 10.974699
55.285 10.98456
55.290 11.312668
55.295 11.699353
55.300 11.77221
55.305 11.548179
55.310 11.504526
55.315 11.823965
55.320 11.914519
55.325 11.583654
55.330 10.962684
55.335 11.081264
55.340 11.429879
55.345 11.166013
55.350 10.782475
55.355 10.81052
55.360 10.889154
55.365 10.992884
55.370 10.609891
55.375 10.663621
55.380 10.979736
55.385 11.205382
55.390 11.937924
55.395 12.543283
55.400 12.838465
55.405 13.095069
55.410 13.206384
55.415 13.059137
55.420 13.296662
55.425 13.116648
55.430 12.823178
55.435 13.176931
55.440 13.160664
55.445 13.401106
55.450 13.683895
55.455 13.546367
55.460 13.350546
55.465 13.304054
55.470 13.243245
55.475 13.188049
55.480 12.805024
55.485 12.49261
55.490 12.868412
55.495 12.791813
55.500 12.680195
55.505 12.357542
55.510 12.382955
55.515 12.50178
55.520 12.268672
55.525 11.873879
55.530 11.841915
55.535 11.672756
55.540 11.891811
55.545 11.985734
55.550 12.29002
55.555 12.501395
55.560 12.29245
55.565 12.487915
55.570 12.251326
55.575 12.249762
55.580 12.150609
55.585 11.591581
55.590 11.707822
55.595 11.891399
55.600 11.80819
55.605 11.983344
55.610 11.678546
55.615 11.681151
55.620 12.298448
55.625 12.185642
55.630 12.195053
55.635 12.267766
55.640 12.242934
55.645 11.940442
55.650 11.981182
55.655 12.327436
55.660 12.338901
55.665 12.490847
55.670 12.530733
55.675 12.514783
55.680 12.59151
55.685 11.745042
55.690 10.913521
55.695 10.952268
55.700 11.076376
55.705 10.898686
55.710 10.802902
55.715 10.781738
55.720 11.670028
55.725 12.082942
55.730 12.331406
55.735 11.993693
55.740 12.368488
55.745 12.562552
55.750 13.010012
55.755 13.090454
55.760 13.014152
55.765 12.632957
55.770 12.039104
55.775 11.598013
55.780 12.321897
55.785 12.509562
55.790 12.555287
55.795 12.356942
55.800 12.507117
55.805 13.192201
55.810 13.231949
55.815 12.534304
55.820 11.909945
55.825 11.650709
55.830 12.026948
55.835 12.930184
55.840 13.888475
55.845 13.83431
55.850 13.905015
55.855 14.459816
55.860 14.722952
55.865 14.797482
55.870 14.161386
55.875 13.940845
55.880 14.046685
55.885 14.408703
55.890 13.922539
55.895 13.532671
55.900 13.057427
55.905 12.450495
55.910 11.940425
55.915 11.780794
55.920 11.508625
55.925 11.629663
55.930 12.05135
55.935 11.88394
55.940 12.259184
55.945 13.214603
55.950 13.582954
55.955 13.342229
55.960 12.867787
55.965 12.518276
55.970 12.934978
55.975 12.941605
55.980 12.606943
55.985 12.398843
55.990 12.705887
55.995 13.180188
56.000 13.416656
56.005 12.970198
56.010 12.559629
56.015 12.235205
56.020 11.933465
56.025 11.910413
56.030 12.037348
56.035 12.156679
56.040 12.50598
56.045 12.207558
56.050 12.310876
56.055 12.327871
56.060 12.187627
56.065 11.644613
56.070 11.432981
56.075 11.542009
56.080 11.86191
56.085 12.197595
56.090 12.418728
56.095 12.711281
56.100 12.729585
56.105 12.916724
56.110 12.447299
56.115 12.213284
56.120 11.960477
56.125 11.605738
56.130 11.415754
56.135 12.07279
56.140 12.503051
56.145 13.00304
56.150 13.418281
56.155 13.787196
56.160 13.756557
56.165 13.866593
56.170 13.814022
56.175 13.272337
56.180 13.162002
56.185 12.679921
56.190 12.682969
56.195 12.749576
56.200 12.914449
56.205 12.828268
56.210 12.92497
56.215 12.602164
56.220 12.435258
56.225 12.408949
56.230 12.18964
56.235 11.853803
56.240 11.85713
56.245 12.361352
56.250 12.761656
56.255 13.292524
56.260 13.022714
56.265 13.045621
56.270 12.84681
56.275 12.315982
56.280 11.659888
56.285 11.836877
56.290 11.80453
56.295 12.052085
56.300 11.900881
56.305 12.202256
56.310 12.498666
56.315 13.027885
56.320 12.59304
56.325 12.713578
56.330 13.161153
56.335 13.472355
56.340 13.129227
56.345 12.94392
56.350 13.056623
56.355 13.360668
56.360 13.018521
56.365 13.092577
56.370 12.963648
56.375 13.464754
56.380 13.719766
56.385 14.016494
56.390 14.164706
56.395 14.12814
56.400 14.403494
56.405 14.899957
56.410 14.637311
56.415 14.398761
56.420 14.861814
56.425 14.822229
56.430 14.818675
56.435 14.634187
56.440 14.642723
56.445 14.428686
56.450 14.479707
56.455 13.927061
56.460 14.108354
56.465 13.586997
56.470 12.999287
56.475 12.608224
56.480 12.710589
56.485 12.361285
56.490 12.185969
56.495 12.259377
56.500 12.588493
56.505 12.903655
56.510 13.109985
56.515 13.640351
56.520 13.794999
56.525 13.467946
56.530 13.300079
56.535 13.690997
56.540 13.573443
56.545 13.527749
56.550 13.331197
56.555 13.240765
56.560 13.3056
56.565 13.931391
56.570 14.069371
56.575 13.801198
56.580 13.693387
56.585 13.46435
56.590 13.781902
56.595 14.155087
56.600 13.307186
56.605 13.035782
56.610 13.306418
56.615 13.082335
56.620 13.369125
56.625 13.438007
56.630 13.694064
56.635 14.038576
56.640 14.464575
56.645 14.883209
56.650 14.767565
56.655 14.95612
56.660 15.10658
56.665 14.429252
56.670 14.099651
56.675 13.652565
56.680 13.895109
56.685 14.255253
56.690 14.10889
56.695 14.395988
56.700 14.380124
56.705 14.556355
56.710 14.43287
56.715 13.809834
56.720 14.034866
56.725 13.561152
56.730 13.523096
56.735 14.011953
56.740 14.120584
56.745 14.349174
56.750 14.523905
56.755 14.523065
56.760 15.047691
56.765 14.834669
56.770 14.989594
56.775 15.054805
56.780 15.120162
56.785 14.970382
56.790 14.742905
56.795 13.988674
56.800 13.543957
56.805 13.155224
56.810 13.080675
56.815 12.891163
56.820 12.919965
56.825 12.957332
56.830 13.122368
56.835 13.288601
56.840 13.085036
56.845 12.903125
56.850 12.59663
56.855 12.563953
56.860 12.681418
56.865 12.971656
56.870 12.671572
56.875 12.681007
56.880 12.237912
56.885 12.41915
56.890 12.340348
56.895 12.493382
56.900 12.928578
56.905 13.811406
56.910 13.847457
56.915 13.848817
56.920 13.66393
56.925 14.03892
56.930 13.697019
56.935 13.222479
56.940 12.570066
56.945 13.081423
56.950 13.636706
56.955 13.403305
56.960 13.080288
56.965 12.978462
56.970 12.647183
56.975 12.967259
56.980 12.617091
56.985 12.793753
56.990 13.189891
56.995 13.312406
57.000 13.45215
57.005 13.582354
57.010 13.471391
57.015 14.001344
57.020 14.263364
57.025 14.338337
57.030 14.282887
57.035 14.445203
57.040 14.232977
57.045 13.803003
57.050 13.348155
57.055 13.058819
57.060 12.823785
57.065 12.936128
57.070 13.428259
57.075 13.121535
57.080 13.180271
57.085 13.318888
57.090 13.320178
57.095 13.648705
57.100 13.231987
57.105 13.184353
57.110 13.623515
57.115 13.764154
57.120 13.817041
57.125 14.401401
57.130 14.370514
57.135 14.126581
57.140 13.850905
57.145 13.643283
57.150 13.863124
57.155 13.696974
57.160 12.50644
57.165 12.3881
57.170 12.678485
57.175 13.110506
57.180 13.030641
57.185 12.597391
57.190 12.742843
57.195 13.309819
57.200 13.563692
57.205 13.704994
57.210 13.902946
57.215 14.777045
57.220 15.141532
57.225 15.277678
57.230 15.164098
57.235 15.032484
57.240 14.836449
57.245 14.916265
57.250 14.735113
57.255 14.742165
57.260 15.062409
57.265 15.161893
57.270 15.071651
57.275 14.733808
57.280 14.480042
57.285 14.23322
57.290 14.386331
57.295 13.673174
57.300 13.558681
57.305 14.034256
57.310 14.341349
57.315 15.193223
57.320 15.768675
57.325 15.385815
57.330 15.984363
57.335 15.910808
57.340 15.523025
57.345 15.488317
57.350 14.555448
57.355 14.148594
57.360 13.966868
57.365 14.131636
57.370 14.413085
57.375 14.248101
57.380 14.070886
57.385 14.129733
57.390 13.884608
57.395 13.953483
57.400 13.702971
57.405 13.274093
57.410 14.041231
57.415 14.054156
57.420 13.919003
57.425 14.164186
57.430 13.853262
57.435 13.942832
57.440 14.111718
57.445 14.04528
57.450 14.195832
57.455 14.444167
57.460 14.134461
57.465 14.37698
57.470 14.755975
57.475 14.37182
57.480 13.819997
57.485 13.884449
57.490 14.375086
57.495 15.187604
57.500 15.01154
57.505 14.598093
57.510 14.413893
57.515 14.536946
57.520 14.335495
57.525 13.978133
57.530 13.316991
57.535 12.912777
57.540 13.115516
57.545 13.224721
57.550 12.939382
57.555 12.814538
57.560 12.956491
57.565 13.130275
57.570 13.509871
57.575 13.180274
57.580 13.099699
57.585 13.358811
57.590 14.002949
57.595 14.197296
57.600 14.340974
57.605 14.692924
57.610 15.231055
57.615 15.467338
57.620 15.013021
57.625 14.295842
57.630 13.945766
57.635 13.607451
57.640 13.243686
57.645 13.321872
57.650 13.573965
57.655 13.718196
57.660 13.916162
57.665 14.196278
57.670 14.941212
57.675 15.428741
57.680 15.501128
57.685 15.533095
57.690 15.769394
57.695 15.68597
57.700 15.765541
57.705 15.282644
57.710 14.664876
57.715 14.550518
57.720 14.091087
57.725 13.829152
57.730 13.655375
57.735 13.524449
57.740 13.79163
57.745 14.518822
57.750 14.835789
57.755 14.973049
57.760 15.271235
57.765 16.116375
57.770 16.630766
57.775 16.413687
57.780 15.921178
57.785 15.510675
57.790 15.57979
57.795 15.584819
57.800 15.183314
57.805 14.547931
57.810 14.663506
57.815 15.082099
57.820 15.484614
57.825 15.328014
57.830 14.773101
57.835 14.373538
57.840 14.524356
57.845 14.365946
57.850 13.669594
57.855 13.35058
57.860 13.163583
57.865 13.564441
57.870 13.859993
57.875 13.795737
57.880 14.094871
57.885 14.501486
57.890 14.568464
57.895 14.803896
57.900 14.809117
57.905 15.311586
57.910 15.241966
57.915 14.631772
57.920 14.301682
57.925 13.983994
57.930 13.989504
57.935 13.707713
57.940 13.736791
57.945 13.800951
57.950 13.759445
57.955 14.115149
57.960 14.613812
57.965 14.62418
57.970 14.59303
57.975 14.623237
57.980 14.746235
57.985 15.146091
57.990 14.773443
57.995 14.7355
58.000 14.939628
58.005 14.690331
58.010 15.092182
58.015 15.146879
58.020 15.62816
58.025 16.593784
58.030 16.82555
58.035 17.00153
58.040 17.288174
58.045 16.881815
58.050 16.727121
58.055 16.280916
58.060 16.310986
58.065 15.928602
58.070 15.557703
58.075 15.484309
58.080 15.181505
58.085 15.368494
58.090 15.020321
58.095 14.333753
58.100 14.31379
58.105 14.243091
58.110 14.287271
58.115 14.30809
58.120 13.931363
58.125 14.081598
58.130 14.250106
58.135 14.084533
58.140 14.659334
58.145 14.603143
58.150 15.03985
58.155 15.376679
58.160 15.321915
58.165 16.234758
58.170 16.78619
58.175 16.658962
58.180 16.42358
58.185 16.291403
58.190 16.570856
58.195 16.614992
58.200 16.42598
58.205 16.10371
58.210 15.921955
58.215 16.100756
58.220 15.813961
58.225 15.660415
58.230 15.087044
58.235 14.769813
58.240 14.823503
58.245 14.717634
58.250 14.332328
58.255 14.779892
58.260 14.900375
58.265 14.952603
58.270 14.445927
58.275 14.447287
58.280 14.74122
58.285 15.46506
58.290 15.308918
58.295 15.577051
58.300 15.995403
58.305 16.568054
58.310 16.853977
58.315 16.713917
58.320 16.435085
58.325 16.071459
58.330 16.190603
58.335 16.767437
58.340 16.772335
58.345 17.006886
58.350 16.581829
58.355 16.698431
58.360 16.962114
58.365 16.836864
58.370 16.463478
58.375 16.559395
58.380 16.42783
58.385 16.738359
58.390 16.978657
58.395 17.003109
58.400 17.178112
58.405 17.181845
58.410 16.42305
58.415 16.166357
58.420 16.204769
58.425 16.675402
58.430 16.742949
58.435 16.966381
58.440 17.074734
58.445 17.541935
58.450 17.920937
58.455 17.702665
58.460 17.923079
58.465 17.736277
58.470 17.292555
58.475 17.199894
58.480 17.827581
58.485 17.968208
58.490 18.265949
58.495 17.749731
58.500 17.981241
58.505 18.273626
58.510 18.52529
58.515 18.14469
58.520 18.145359
58.525 18.066755
58.530 18.435532
58.535 18.490875
58.540 17.96983
58.545 17.678238
58.550 17.169165
58.555 16.911926
58.560 16.829599
58.565 16.551001
58.570 16.336662
58.575 16.470201
58.580 16.240728
58.585 16.673491
58.590 16.789562
58.595 16.866295
58.600 16.927998
58.605 16.997766
58.610 17.153557
58.615 17.467573
58.620 17.486559
58.625 17.584545
58.630 17.856319
58.635 17.991634
58.640 17.823816
58.645 18.318424
58.650 19.125616
58.655 19.526125
58.660 19.859766
58.665 19.391273
58.670 19.20949
58.675 19.536528
58.680 19.258101
58.685 18.528084
58.690 18.359167
58.695 18.714291
58.700 18.843479
58.705 19.312216
58.710 19.504873
58.715 19.605854
58.720 19.005444
58.725 19.17267
58.730 18.557541
58.735 18.027815
58.740 17.717587
58.745 17.777243
58.750 17.985077
58.755 18.537413
58.760 18.639189
58.765 19.13114
58.770 19.898815
58.775 19.853758
58.780 19.752419
58.785 19.899298
58.790 19.835573
58.795 19.176268
58.800 18.975105
58.805 18.631632
58.810 18.69759
58.815 18.372414
58.820 18.006283
58.825 18.213017
58.830 18.145355
58.835 17.778584
58.840 18.192392
58.845 18.168985
58.850 18.383266
58.855 18.582211
58.860 18.19286
58.865 18.022749
58.870 17.990263
58.875 17.743752
58.880 17.151257
58.885 17.525074
58.890 18.484148
58.895 19.198788
58.900 19.324648
58.905 18.896065
58.910 19.307467
58.915 19.923916
58.920 18.740242
58.925 18.061123
58.930 18.168209
58.935 18.131725
58.940 18.967625
58.945 18.789577
58.950 18.674452
58.955 18.821156
58.960 18.631905
58.965 18.0219
58.970 18.652802
58.975 18.449286
58.980 18.532164
58.985 19.088442
58.990 19.690948
58.995 19.400993
59.000 19.986446
59.005 19.955118
59.010 19.616076
59.015 20.015108
59.020 19.862284
59.025 19.843903
59.030 20.229328
59.035 20.016195
59.040 20.33082
59.045 20.633457
59.050 20.200333
59.055 19.512978
59.060 18.905855
59.065 18.689743
59.070 18.871943
59.075 18.50186
59.080 18.479906
59.085 18.335331
59.090 18.72805
59.095 19.10483
59.100 19.57749
59.105 19.343069
59.110 19.244341
59.115 19.180733
59.120 19.579041
59.125 19.989416
59.130 19.863747
59.135 19.436783
59.140 19.481789
59.145 19.771362
59.150 20.311907
59.155 19.729067
59.160 19.495548
59.165 19.642878
59.170 19.872723
59.175 19.95804
59.180 19.739395
59.185 19.244335
59.190 19.852581
59.195 20.575859
59.200 20.337687
59.205 20.008368
59.210 20.112215
59.215 19.959152
59.220 20.215279
59.225 19.856791
59.230 19.610365
59.235 19.803467
59.240 19.611233
59.245 19.742035
59.250 19.262455
59.255 18.511404
59.260 18.06448
59.265 17.775864
59.270 18.081123
59.275 17.896946
59.280 17.680407
59.285 18.01757
59.290 18.851776
59.295 19.075298
59.300 18.823214
59.305 18.274525
59.310 17.991371
59.315 18.042713
59.320 18.14827
59.325 17.690384
59.330 17.959112
59.335 18.301386
59.340 19.088444
59.345 19.630093
59.350 19.069012
59.355 18.728552
59.360 19.043667
59.365 18.831463
59.370 18.552359
59.375 18.103239
59.380 18.207617
59.385 18.432014
59.390 18.818668
59.395 18.820251
59.400 19.235291
59.405 18.892538
59.410 18.973566
59.415 19.055773
59.420 19.100365
59.425 18.924198
59.430 18.844311
59.435 18.388525
59.440 19.284096
59.445 19.005817
59.450 18.861437
59.455 19.387018
59.460 19.905003
59.465 20.386873
59.470 21.248999
59.475 21.170696
59.480 21.11762
59.485 21.158579
59.490 21.006447
59.495 20.033911
59.500 19.612167
59.505 18.707747
59.510 18.484858
59.515 18.69198
59.520 18.453869
59.525 18.311512
59.530 18.210331
59.535 17.952572
59.540 18.268351
59.545 18.602705
59.550 18.868734
59.555 19.129679
59.560 19.830261
59.565 20.35355
59.570 20.394806
59.575 19.707628
59.580 19.456165
59.585 19.323433
59.590 19.820313
59.595 20.035269
59.600 20.180696
59.605 20.343889
59.610 20.33696
59.615 20.282049
59.620 20.312506
59.625 19.862875
59.630 19.271664
59.635 18.879036
59.640 18.949158
59.645 19.30965
59.650 19.983189
59.655 20.129322
59.660 19.784899
59.665 20.189939
59.670 20.632484
59.675 20.931339
59.680 21.382933
59.685 20.330593
59.690 19.672321
59.695 19.409609
59.700 19.562973
59.705 19.40099
59.710 18.822767
59.715 18.83633
59.720 19.195166
59.725 19.531139
59.730 20.035151
59.735 19.850241
59.740 19.894772
59.745 20.713041
59.750 20.688505
59.755 20.735487
59.760 21.183701
59.765 21.166298
59.770 21.56418
59.775 22.223833
59.780 21.715984
59.785 21.763103
59.790 21.462074
59.795 21.126451
59.800 21.264488
59.805 20.65782
59.810 19.701839
59.815 19.85078
59.820 19.596067
59.825 20.415815
59.830 20.847403
59.835 20.785284
59.840 20.949224
59.845 21.238245
59.850 20.90023
59.855 20.753355
59.860 20.384438
59.865 19.925615
59.870 19.672544
59.875 20.080048
59.880 20.152082
59.885 20.659288
59.890 21.178852
59.895 21.278372
59.900 21.549744
59.905 21.234003
59.910 20.708553
59.915 20.406242
59.920 20.354723
59.925 20.051832
59.930 19.894163
59.935 20.108934
59.940 20.133343
59.945 19.637501
59.950 19.516649
59.955 19.628063
59.960 20.345861
59.965 20.907402
59.970 20.946001
59.975 21.292517
59.980 21.312975
59.985 22.011885
59.990 21.883606
59.995 21.072464
60.000 20.520086
60.005 20.178104
60.010 19.972118
60.015 20.809502
60.020 20.535406
60.025 20.661631
60.030 20.865993
60.035 20.624807
60.040 20.892424
60.045 21.400953
60.050 21.599314
60.055 21.278048
60.060 20.439724
60.065 20.47558
60.070 20.823435
60.075 20.289221
60.080 19.961914
60.085 19.443041
60.090 19.785921
60.095 20.047997
60.100 19.328899
60.105 18.689083
60.110 19.031975
60.115 19.394976
60.120 19.309793
60.125 19.439646
60.130 20.000875
60.135 20.654827
60.140 21.391373
60.145 21.788874
60.150 21.525007
60.155 21.29982
60.160 20.408318
60.165 19.62631
60.170 19.771509
60.175 19.372248
60.180 18.388935
60.185 17.925901
60.190 17.983486
60.195 18.121361
60.200 18.256777
60.205 17.871937
60.210 17.930628
60.215 17.699205
60.220 17.325739
60.225 16.968266
60.230 17.276587
60.235 17.295593
60.240 17.242907
60.245 17.210644
60.250 17.527641
60.255 17.721977
60.260 17.714556
60.265 17.811592
60.270 17.688591
60.275 17.501152
60.280 17.275852
60.285 17.410894
60.290 18.035847
60.295 18.283829
60.300 17.945045
60.305 17.852722
60.310 17.643259
60.315 17.937054
60.320 17.894487
60.325 17.497944
60.330 17.414715
60.335 17.97344
60.340 18.024611
60.345 18.010807
60.350 17.912968
60.355 17.723143
60.360 17.183531
60.365 17.1504
60.370 16.809187
60.375 17.275827
60.380 17.492016
60.385 17.261934
60.390 17.038588
60.395 18.058943
60.400 17.939335
60.405 17.684956
60.410 17.858198
60.415 18.535006
60.420 19.022419
60.425 19.130342
60.430 18.786184
60.435 18.551933
60.440 18.202848
60.445 17.748287
60.450 17.311174
60.455 17.23398
60.460 17.057465
60.465 17.03306
60.470 16.816877
60.475 17.230831
60.480 17.528112
60.485 17.199493
60.490 16.961369
60.495 16.951355
60.500 16.867727
60.505 17.753944
60.510 18.086626
60.515 18.388226
60.520 18.903584
60.525 19.382406
60.530 19.186356
60.535 18.444176
60.540 18.298464
60.545 18.103287
60.550 17.521816
60.555 17.33123
60.560 16.922268
60.565 17.182066
60.570 17.906263
60.575 17.803221
60.580 17.474607
60.585 17.578844
60.590 17.813263
60.595 18.25983
60.600 18.465509
60.605 18.655085
60.610 18.666265
60.615 18.558695
60.620 18.658194
60.625 18.168695
60.630 17.948107
60.635 17.740057
60.640 17.169413
60.645 17.200481
60.650 16.850451
60.655 16.18952
60.660 15.701612
60.665 15.314427
60.670 14.940072
60.675 15.119451
60.680 15.063281
60.685 15.587643
60.690 16.06498
60.695 16.176256
60.700 16.780119
60.705 17.227642
60.710 16.910521
60.715 16.747553
60.720 17.110886
60.725 16.983179
60.730 17.180189
60.735 17.145948
60.740 17.327486
60.745 17.511734
60.750 17.007385
60.755 16.263557
60.760 16.470413
60.765 16.163189
60.770 15.633796
60.775 15.324084
60.780 15.02765
60.785 14.997811
60.790 14.630442
60.795 14.417218
60.800 14.480886
60.805 14.709658
60.810 14.718139
60.815 15.152974
60.820 15.669341
60.825 16.303652
60.830 16.95636
60.835 17.117752
60.840 17.154341
60.845 17.025764
60.850 16.933235
60.855 16.902935
60.860 17.303377
60.865 17.203209
60.870 17.189539
60.875 17.20726
60.880 17.398296
60.885 17.507376
60.890 17.236849
60.895 16.788292
60.900 16.736677
60.905 16.977421
60.910 17.299185
60.915 16.718422
60.920 16.204145
60.925 16.585464
60.930 16.196367
60.935 15.496182
60.940 15.06278
60.945 15.092619
60.950 15.313995
60.955 15.983185
60.960 15.612602
60.965 15.574355
60.970 15.806718
60.975 15.398182
60.980 14.935731
60.985 15.220019
60.990 14.744803
60.995 14.266996
61.000 14.380024
61.005 15.038725
61.010 15.483327
61.015 15.723534
61.020 15.559242
61.025 16.016773
61.030 17.022083
61.035 17.483866
61.040 17.462549
61.045 17.224106
61.050 17.087753
61.055 17.17499
61.060 16.790573
61.065 16.333086
61.070 16.140982
61.075 15.898855
61.080 16.282106
61.085 16.498577
61.090 16.20446
61.095 16.54781
61.100 16.861574
61.105 16.749149
61.110 16.823841
61.115 16.317564
61.120 15.86745
61.125 15.535755
61.130 15.458267
61.135 14.992696
61.140 15.774351
61.145 15.91607
61.150 16.19519
61.155 16.59095
61.160 17.061764
61.165 16.894485
61.170 17.211838
61.175 16.603777
61.180 16.14872
61.185 15.798878
61.190 15.628932
61.195 16.314758
61.200 16.607876
61.205 16.484623
61.210 16.498499
61.215 16.764103
61.220 17.13736
61.225 17.336248
61.230 17.044889
61.235 16.620661
61.240 16.142567
61.245 16.403378
61.250 16.646576
61.255 17.296431
61.260 17.419987
61.265 17.253647
61.270 17.136564
61.275 17.386459
61.280 17.051533
61.285 17.189837
61.290 16.842291
61.295 16.322418
61.300 15.913788
61.305 16.047083
61.310 15.790832
61.315 15.824838
61.320 15.942907
61.325 15.692739
61.330 15.626493
61.335 16.343193
61.340 16.423704
61.345 16.325804
61.350 16.255827
61.355 16.306652
61.360 16.680838
61.365 16.784182
61.370 15.949588
61.375 16.319405
61.380 16.183308
61.385 16.175198
61.390 15.487537
61.395 15.590547
61.400 15.688996
61.405 16.406282
61.410 16.909346
61.415 17.308163
61.420 17.264357
61.425 17.551468
61.430 16.944208
61.435 17.25215
61.440 17.486885
61.445 16.880432
61.450 16.639637
61.455 16.959185
61.460 16.73909
61.465 17.001627
61.470 16.442442
61.475 15.934567
61.480 15.988819
61.485 16.465437
61.490 16.34416
61.495 16.339104
61.500 16.133022
61.505 16.401241
61.510 16.33176
61.515 16.804733
61.520 16.663284
61.525 16.648367
61.530 16.544287
61.535 16.614443
61.540 16.638498
61.545 17.38073
61.550 17.488646
61.555 17.321878
61.560 17.373707
61.565 17.27697
61.570 17.200104
61.575 17.867018
61.580 17.835695
61.585 17.46331
61.590 17.376785
61.595 17.758202
61.600 18.549458
61.605 18.919477
61.610 18.481939
61.615 18.311529
61.620 18.44108
61.625 18.549276
61.630 18.486313
61.635 18.413847
61.640 18.05007
61.645 17.757296
61.650 17.201067
61.655 17.829969
61.660 17.821054
61.665 17.342476
61.670 16.730288
61.675 16.649429
61.680 16.559118
61.685 16.429144
61.690 15.937152
61.695 16.111294
61.700 16.843058
61.705 17.309555
61.710 17.266176
61.715 17.232016
61.720 16.971924
61.725 16.365967
61.730 16.542355
61.735 16.22419
61.740 15.641811
61.745 15.800249
61.750 15.629889
61.755 15.574074
61.760 15.754709
61.765 15.360778
61.770 15.459476
61.775 15.826708
61.780 16.075415
61.785 17.459911
61.790 18.924824
61.795 19.103964
61.800 18.960403
61.805 18.845985
61.810 19.477182
61.815 19.490992
61.820 18.388535
61.825 17.547768
61.830 17.374815
61.835 17.397152
61.840 17.570515
61.845 17.140924
61.850 17.051893
61.855 17.379333
61.860 17.927193
61.865 18.344263
61.870 18.544668
61.875 18.753763
61.880 19.063965
61.885 18.149109
61.890 17.912739
61.895 17.713785
61.900 17.685892
61.905 17.598505
61.910 17.376333
61.915 16.788084
61.920 16.90106
61.925 16.701693
61.930 16.16543
61.935 15.550423
61.940 15.693863
61.945 15.48552
61.950 15.659163
61.955 15.931638
61.960 16.083023
61.965 15.959689
61.970 16.687729
61.975 16.745773
61.980 16.799534
61.985 17.140171
61.990 17.064327
61.995 16.231863
62.000 16.087496
62.005 15.297403
62.010 15.446537
62.015 15.659802
62.020 15.746892
62.025 16.058563
62.030 16.691381
62.035 17.212065
62.040 17.251154
62.045 16.799168
62.050 16.469463
62.055 16.246925
62.060 16.145075
62.065 15.773277
62.070 15.93685
62.075 15.67848
62.080 15.825006
62.085 16.131035
62.090 16.312021
62.095 16.613209
62.100 16.94268
62.105 16.597954
62.110 16.692249
62.115 16.72867
62.120 16.329443
62.125 16.356895
62.130 16.645853
62.135 16.935272
62.140 17.608255
62.145 18.086802
62.150 17.646433
62.155 18.162701
62.160 18.296587
62.165 18.300777
62.170 18.337355
62.175 18.215033
62.180 18.289602
62.185 18.593374
62.190 18.50886
62.195 18.138279
62.200 17.252127
62.205 16.979429
62.210 16.562199
62.215 16.370979
62.220 16.295473
62.225 16.028732
62.230 16.546263
62.235 16.787899
62.240 16.925083
62.245 17.24968
62.250 16.845179
62.255 16.544794
62.260 16.247528
62.265 16.19906
62.270 17.045101
62.275 16.933239
62.280 16.388926
62.285 16.821327
62.290 16.994736
62.295 17.146509
62.300 16.551445
62.305 15.96704
62.310 15.989596
62.315 15.823985
62.320 16.115826
62.325 16.513212
62.330 16.591095
62.335 16.749147
62.340 16.331816
62.345 15.988838
62.350 15.831534
62.355 14.986126
62.360 14.743018
62.365 14.629277
62.370 14.776223
62.375 14.969701
62.380 15.54275
62.385 16.099356
62.390 16.250431
62.395 16.076834
62.400 16.245575
62.405 16.225136
62.410 16.534636
62.415 16.466007
62.420 16.552395
62.425 17.016653
62.430 17.515562
62.435 17.571831
62.440 17.890446
62.445 17.711937
62.450 17.984465
62.455 18.041161
62.460 17.888823
62.465 17.540071
62.470 17.701298
62.475 17.931412
62.480 18.391953
62.485 17.878012
62.490 17.594095
62.495 18.21031
62.500 18.987778
62.505 18.954502
62.510 18.277815
62.515 17.864622
62.520 18.009443
62.525 18.055313
62.530 17.273726
62.535 15.935925
62.540 15.602062
62.545 15.643104
62.550 15.221513
62.555 15.034293
62.560 15.397724
62.565 15.454092
62.570 16.343122
62.575 16.671846
62.580 16.734095
62.585 16.958223
62.590 16.967705
62.595 16.356869
62.600 16.709829
62.605 15.917597
62.610 15.430923
62.615 15.686023
62.620 16.51182
62.625 17.097202
62.630 17.726109
62.635 17.469692
62.640 17.699715
62.645 17.821917
62.650 17.330315
62.655 16.658813
62.660 16.752174
62.665 16.566374
62.670 16.780891
62.675 17.118366
62.680 17.863726
62.685 18.617762
62.690 19.147732
62.695 18.852571
62.700 18.28763
62.705 17.837095
62.710 17.81307
62.715 17.424564
62.720 17.20155
62.725 17.229734
62.730 17.728123
62.735 18.771984
62.740 19.057842
62.745 19.050472
62.750 19.122959
62.755 18.802183
62.760 18.089066
62.765 17.759472
62.770 17.003119
62.775 17.129236
62.780 17.002262
62.785 16.821321
62.790 17.081238
62.795 17.636543
62.800 17.546059
62.805 17.801329
62.810 17.658024
62.815 18.015627
62.820 18.145721
62.825 18.497128
62.830 17.975122
62.835 17.543509
62.840 17.330154
62.845 17.481707
62.850 17.424
62.855 17.543741
62.860 17.305651
62.865 17.171055
62.870 17.264242
62.875 17.169901
62.880 17.076893
62.885 16.540461
62.890 15.964542
62.895 15.194132
62.900 15.730679
62.905 15.442022
62.910 15.58455
62.915 15.835104
62.920 16.280756
62.925 16.329023
62.930 16.474667
62.935 16.320084
62.940 16.844702
62.945 16.97154
62.950 16.648336
62.955 17.067616
62.960 17.569586
62.965 18.256975
62.970 18.487923
62.975 18.407417
62.980 18.708393
62.985 19.271338
62.990 19.003208
62.995 18.883644
63.000 18.916883
63.005 18.640274
63.010 18.511484
63.015 17.934824
63.020 17.536211
63.025 17.215622
63.030 16.802252
63.035 16.445745
63.040 16.414438
63.045 16.252348
63.050 16.134548
63.055 15.873603
63.060 15.924581
63.065 16.059921
63.070 16.124296
63.075 16.093861
63.080 16.65119
63.085 17.15836
63.090 17.230175
63.095 17.282246
63.100 17.652418
63.105 17.298496
63.110 17.341061
63.115 17.398914
63.120 17.220951
63.125 17.10384
63.130 17.086737
63.135 16.866804
63.140 17.225962
63.145 16.96167
63.150 16.473822
63.155 16.468571
63.160 16.871164
63.165 17.630867
63.170 18.251665
63.175 18.211664
63.180 18.765663
63.185 18.557604
63.190 18.471148
63.195 18.324739
63.200 17.569426
63.205 16.925325
63.210 16.587305
63.215 16.584644
63.220 17.055748
63.225 17.331926
63.230 17.169918
63.235 16.87232
63.240 17.66181
63.245 18.316174
63.250 17.965242
63.255 17.772528
63.260 17.310766
63.265 17.440706
63.270 17.317547
63.275 17.427906
63.280 17.727118
63.285 18.166883
63.290 18.180737
63.295 18.322056
63.300 17.990433
63.305 17.849901
63.310 17.08334
63.315 16.573128
63.320 16.583237
63.325 16.428795
63.330 16.714235
63.335 17.190662
63.340 17.649794
63.345 17.665562
63.350 17.363319
63.355 17.388184
63.360 17.827284
63.365 17.903465
63.370 18.089689
63.375 18.18494
63.380 18.040905
63.385 18.33099
63.390 18.29879
63.395 18.448275
63.400 18.658648
63.405 18.196718
63.410 18.082712
63.415 17.823853
63.420 17.368977
63.425 16.998238
63.430 16.583576
63.435 16.107189
63.440 15.553948
63.445 15.312192
63.450 15.703459
63.455 15.72181
63.460 16.334629
63.465 16.715473
63.470 17.199417
63.475 18.220592
63.480 18.228939
63.485 18.184216
63.490 18.481773
63.495 18.314592
63.500 18.466492
63.505 18.580202
63.510 18.405077
63.515 18.576422
63.520 18.821795
63.525 18.407251
63.530 18.098927
63.535 17.880905
63.540 17.721046
63.545 17.479116
63.550 16.920748
63.555 16.617247
63.560 16.694792
63.565 16.423252
63.570 16.895929
63.575 17.2299
63.580 17.575441
63.585 17.531803
63.590 17.529787
63.595 17.990681
63.600 18.239599
63.605 17.780725
63.610 17.733934
63.615 17.764952
63.620 18.252401
63.625 18.554811
63.630 19.11586
63.635 19.298304
63.640 18.974463
63.645 18.692041
63.650 18.874664
63.655 19.301584
63.660 19.546101
63.665 19.645449
63.670 19.873308
63.675 20.024181
63.680 20.546787
63.685 20.586376
63.690 20.470682
63.695 20.396276
63.700 19.912258
63.705 19.763065
63.710 19.413446
63.715 19.120806
63.720 19.299667
63.725 19.064934
63.730 18.808161
63.735 19.107119
63.740 18.639973
63.745 18.730043
63.750 18.550995
63.755 18.470655
63.760 18.423548
63.765 18.300051
63.770 18.004759
63.775 18.05138
63.780 17.997768
63.785 18.409761
63.790 17.723841
63.795 17.539629
63.800 17.94924
63.805 18.265211
63.810 18.539518
63.815 18.540514
63.820 18.557739
63.825 18.926985
63.830 19.191248
63.835 19.424267
63.840 19.530781
63.845 19.976326
63.850 20.075853
63.855 19.705671
63.860 19.372198
63.865 18.713772
63.870 17.54443
63.875 17.049366
63.880 16.583845
63.885 16.678011
63.890 17.12606
63.895 17.16917
63.900 17.427248
63.905 17.51968
63.910 17.862465
63.915 18.010599
63.920 17.953121
63.925 17.753485
63.930 18.52651
63.935 19.233141
63.940 19.959635
63.945 19.678616
63.950 20.080786
63.955 20.673716
63.960 20.799149
63.965 20.346611
63.970 20.025187
63.975 19.618082
63.980 19.710293
63.985 19.954185
63.990 19.616064
63.995 19.883318
64.000 20.202515
64.005 19.785038
64.010 20.226358
64.015 20.516798
64.020 20.127321
64.025 20.573027
64.030 20.957056
64.035 20.965504
64.040 21.474197
64.045 21.625322
64.050 21.390074
64.055 21.183603
64.060 20.581535
64.065 19.954678
64.070 20.081289
64.075 20.190386
64.080 20.018055
64.085 20.897467
64.090 21.458323
64.095 22.023666
64.100 22.690487
64.105 22.260742
64.110 22.127293
64.115 22.215441
64.120 21.517641
64.125 21.269236
64.130 20.951891
64.135 20.546686
64.140 20.651779
64.145 20.620279
64.150 20.065626
64.155 19.349279
64.160 18.604622
64.165 18.071318
64.170 18.177277
64.175 18.262154
64.180 18.822117
64.185 19.358675
64.190 20.210112
64.195 20.9867
64.200 21.007595
64.205 21.268002
64.210 21.170601
64.215 20.507893
64.220 20.525299
64.225 20.695866
64.230 20.980579
64.235 21.302235
64.240 21.180738
64.245 21.665792
64.250 21.620955
64.255 21.748863
64.260 21.015623
64.265 20.570305
64.270 20.222294
64.275 20.425135
64.280 20.449219
64.285 20.503035
64.290 20.584536
64.295 20.887814
64.300 21.372866
64.305 21.356535
64.310 20.916368
64.315 20.848417
64.320 20.607916
64.325 20.249605
64.330 19.865873
64.335 19.6154
64.340 20.0436
64.345 19.89868
64.350 19.863113
64.355 20.072935
64.360 20.394024
64.365 20.717182
64.370 20.563351
64.375 20.789534
64.380 21.381735
64.385 21.802849
64.390 22.205406
64.395 22.501572
64.400 22.240005
64.405 22.004013
64.410 21.712328
64.415 21.523132
64.420 21.145985
64.425 20.956295
64.430 21.518337
64.435 21.831629
64.440 21.990595
64.445 22.090364
64.450 21.792397
64.455 21.658089
64.460 21.617901
64.465 21.25462
64.470 20.846422
64.475 20.763376
64.480 20.60244
64.485 20.946346
64.490 20.97794
64.495 20.985939
64.500 21.24387
64.505 21.467199
64.510 21.488342
64.515 21.254301
64.520 20.866844
64.525 21.121435
64.530 21.16626
64.535 20.862833
64.540 21.196762
64.545 21.034525
64.550 21.887859
64.555 22.561434
64.560 22.750502
64.565 22.944021
64.570 22.869627
64.575 23.188152
64.580 23.902687
64.585 23.48954
64.590 23.078976
64.595 22.25877
64.600 21.586535
64.605 21.24427
64.610 20.879629
64.615 20.809175
64.620 20.82272
64.625 20.614424
64.630 20.756063
64.635 21.235525
64.640 22.045704
64.645 21.663691
64.650 21.139551
64.655 21.060013
64.660 21.398241
64.665 21.608969
64.670 21.754633
64.675 21.69828
64.680 21.917704
64.685 22.564018
64.690 22.818377
64.695 22.864113
64.700 22.458254
64.705 21.918713
64.710 22.17931
64.715 22.104265
64.720 22.062868
64.725 22.184565
64.730 22.020863
64.735 21.685053
64.740 22.227285
64.745 22.065678
64.750 21.703165
64.755 21.250259
64.760 20.632488
64.765 21.776955
64.770 22.413767
64.775 22.388584
64.780 22.210873
64.785 22.546497
64.790 22.65152
64.795 22.658876
64.800 21.376907
64.805 21.087099
64.810 21.059401
64.815 21.199709
64.820 21.659908
64.825 22.111027
64.830 22.883568
64.835 23.680437
64.840 24.102539
64.845 24.302549
64.850 24.467033
64.855 24.690262
64.860 24.589682
64.865 24.480433
64.870 24.539141
64.875 23.916193
64.880 23.475382
64.885 23.216679
64.890 23.054287
64.895 22.606838
64.900 22.457235
64.905 22.694168
64.910 23.150568
64.915 24.118326
64.920 24.713041
64.925 24.685875
64.930 24.832344
64.935 24.511856
64.940 24.44079
64.945 24.534113
64.950 24.039734
64.955 23.793497
64.960 23.783659
64.965 24.429192
64.970 24.544706
64.975 24.193514
64.980 24.166349
64.985 24.112349
64.990 24.677446
64.995 24.541876
65.000 24.774498
65.005 25.11824
65.010 26.165575
65.015 26.375946
65.020 27.752371
65.025 28.377117
65.030 28.58511
65.035 27.940161
65.040 27.872355
65.045 27.725229
65.050 27.570023
65.055 26.430426
65.060 26.161245
65.065 26.007401
65.070 26.649675
65.075 27.145121
65.080 27.843071
65.085 27.940123
65.090 27.662127
65.095 27.427105
65.100 27.527136
65.105 27.852205
65.110 27.293911
65.115 26.433096
65.120 26.430899
65.125 26.682417
65.130 26.985884
65.135 27.086193
65.140 27.682831
65.145 27.810524
65.150 27.853825
65.155 28.092592
65.160 28.245228
65.165 28.198538
65.170 27.76366
65.175 27.67382
65.180 27.982273
65.185 27.809685
65.190 27.799936
65.195 27.771441
65.200 27.47526
65.205 27.871265
65.210 27.657133
65.215 27.543425
65.220 27.752876
65.225 27.217108
65.230 26.254478
65.235 26.693439
65.240 26.373079
65.245 25.719284
65.250 24.990307
65.255 25.366943
65.260 25.997875
65.265 25.646019
65.270 25.035709
65.275 25.322346
65.280 25.164118
65.285 25.660641
65.290 25.456682
65.295 25.001072
65.300 25.543907
65.305 25.549038
65.310 24.735992
65.315 25.161291
65.320 25.113914
65.325 25.070877
65.330 25.492805
65.335 26.091089
65.340 26.545208
65.345 27.254629
65.350 26.98106
65.355 26.959856
65.360 26.815756
65.365 26.768072
65.370 25.863256
65.375 25.280231
65.380 25.440098
65.385 25.439337
65.390 24.829899
65.395 24.81868
65.400 24.02387
65.405 24.069448
65.410 23.977833
65.415 23.812233
65.420 24.191334
65.425 24.01866
65.430 23.923447
65.435 24.339657
65.440 24.721638
65.445 24.732325
65.450 25.230721
65.455 24.988297
65.460 26.10622
65.465 26.604069
65.470 26.377409
65.475 26.612951
65.480 26.689453
65.485 26.22686
65.490 26.569874
65.495 25.742231
65.500 25.203518
65.505 26.234404
65.510 26.355286
65.515 26.372381
65.520 26.209671
65.525 26.01173
65.530 26.179174
65.535 26.103472
65.540 25.429213
65.545 25.16231
65.550 25.252386
65.555 25.075655
65.560 24.822197
65.565 24.9172
65.570 25.353527
65.575 25.37999
65.580 26.010012
65.585 25.546782
65.590 25.356333
65.595 25.042562
65.600 24.834417
65.605 24.77034
65.610 25.04282
65.615 25.124748
65.620 26.197111
65.625 27.203255
65.630 27.208109
65.635 27.88521
65.640 28.471815
65.645 28.116066
65.650 27.870926
65.655 28.034336
65.660 28.188765
65.665 29.402422
65.670 29.692293
65.675 29.621761
65.680 30.091339
65.685 30.455606
65.690 29.831312
65.695 29.654474
65.700 29.050995
65.705 29.054266
65.710 28.917452
65.715 28.330074
65.720 27.446556
65.725 27.87797
65.730 28.673117
65.735 29.611027
65.740 29.821228
65.745 29.854656
65.750 30.635263
65.755 31.54213
65.760 31.756632
65.765 31.441563
65.770 31.365913
65.775 31.697308
65.780 32.193317
65.785 32.267563
65.790 32.047253
65.795 32.464027
65.800 32.70755
65.805 32.597378
65.810 32.120411
65.815 32.087345
65.820 32.327202
65.825 31.867167
65.830 30.996378
65.835 30.212729
65.840 29.992531
65.845 30.116194
65.850 29.990744
65.855 29.8638
65.860 30.581369
65.865 31.562109
65.870 32.374134
65.875 32.529652
65.880 32.925018
65.885 33.293201
65.890 34.524078
65.895 34.714302
65.900 34.303879
65.905 34.203609
65.910 34.017746
65.915 33.694962
65.920 33.984577
65.925 33.288742
65.930 32.968498
65.935 32.560978
65.940 32.100628
65.945 32.311146
65.950 33.071804
65.955 33.64698
65.960 34.718418
65.965 35.280838
65.970 36.486046
65.975 37.278435
65.980 37.240738
65.985 37.286037
65.990 37.303043
65.995 36.732868
66.000 36.812199
66.005 36.111565
66.010 36.080055
66.015 36.065426
66.020 35.644695
66.025 35.639381
66.030 36.381035
66.035 36.744732
66.040 37.411385
66.045 37.572929
66.050 37.24815
66.055 37.168144
66.060 36.620678
66.065 36.819599
66.070 36.654613
66.075 36.785107
66.080 37.01469
66.085 37.216545
66.090 36.653027
66.095 36.267685
66.100 35.985229
66.105 36.186352
66.110 35.916824
66.115 36.039024
66.120 36.967892
66.125 37.844055
66.130 38.653416
66.135 38.392006
66.140 38.569321
66.145 38.861538
66.150 38.689896
66.155 38.891632
66.160 38.996212
66.165 39.207371
66.170 39.497051
66.175 39.937565
66.180 40.528999
66.185 40.925373
66.190 40.748226
66.195 40.309956
66.200 40.739258
66.205 41.26897
66.210 40.567444
66.215 40.200336
66.220 40.15976
66.225 40.31768
66.230 40.485779
66.235 40.567726
66.240 41.203575
66.245 40.568272
66.250 40.012489
66.255 39.319084
66.260 39.415184
66.265 38.89233
66.270 38.566483
66.275 38.160622
66.280 38.805428
66.285 38.249401
66.290 38.840889
66.295 38.922867
66.300 38.980373
66.305 38.523586
66.310 37.166473
66.315 37.114208
66.320 37.592125
66.325 37.156055
66.330 36.390446
66.335 36.174911
66.340 35.692772
66.345 35.894592
66.350 35.779358
66.355 35.635765
66.360 35.403187
66.365 35.20657
66.370 34.355637
66.375 34.066936
66.380 33.151382
66.385 32.305386
66.390 31.950682
66.395 32.509552
66.400 33.694126
66.405 34.057941
66.410 34.943592
66.415 35.346943
66.420 35.56216
66.425 35.381207
66.430 34.489151
66.435 33.762642
66.440 33.398842
66.445 32.445694
66.450 32.13966
66.455 31.959383
66.460 31.858969
66.465 31.635788
66.470 31.213175
66.475 30.484415
66.480 30.659988
66.485 30.544771
66.490 30.378847
66.495 29.976442
66.500 29.928675
66.505 30.207056
66.510 29.97328
66.515 28.633478
66.520 28.45927
66.525 29.188343
66.530 28.916578
66.535 28.527073
66.540 28.69101
66.545 29.528795
66.550 30.167761
66.555 29.126619
66.560 28.022762
66.565 27.73572
66.570 27.026735
66.575 26.155666
66.580 25.55533
66.585 24.899305
66.590 25.359667
66.595 25.182165
66.600 25.681934
66.605 25.93996
66.610 25.688145
66.615 25.302134
66.620 24.9849
66.625 24.73897
66.630 25.03739
66.635 24.651014
66.640 24.972473
66.645 24.191092
66.650 23.493423
66.655 23.926596
66.660 23.685392
66.665 23.194799
66.670 22.955637
66.675 22.659859
66.680 22.739336
66.685 23.210251
66.690 23.216454
66.695 22.123522
66.700 21.697622
66.705 21.413227
66.710 21.664946
66.715 22.47788
66.720 22.112597
66.725 21.326788
66.730 21.525549
66.735 21.72736
66.740 22.064159
66.745 21.830452
66.750 21.69626
66.755 21.513704
66.760 21.79871
66.765 21.824751
66.770 21.623608
66.775 21.195162
66.780 21.289431
66.785 21.551489
66.790 22.135143
66.795 22.113733
66.800 22.257961
66.805 22.052767
66.810 22.19713
66.815 22.321241
66.820 22.160637
66.825 22.149296
66.830 22.530359
66.835 22.49988
66.840 22.292953
66.845 22.17425
66.850 21.334562
66.855 20.739988
66.860 20.412066
66.865 19.591469
66.870 19.790203
66.875 19.811279
66.880 19.929747
66.885 20.173658
66.890 20.26717
66.895 20.825922
66.900 21.305803
66.905 21.463041
66.910 21.225191
66.915 21.004978
66.920 20.665371
66.925 20.400406
66.930 19.996603
66.935 19.909925
66.940 19.79937
66.945 19.667793
66.950 19.296188
66.955 18.933384
66.960 18.424583
66.965 18.462021
66.970 18.270185
66.975 18.009325
66.980 18.335182
66.985 18.814978
66.990 19.417109
66.995 19.575018
67.000 19.12632
67.005 19.052938
67.010 18.967045
67.015 18.940514
67.020 18.648676
67.025 18.629347
67.030 18.989841
67.035 19.559391
67.040 19.896051
67.045 20.279215
67.050 20.863081
67.055 20.788252
67.060 20.848751
67.065 20.972464
67.070 20.830757
67.075 20.777769
67.080 20.309433
67.085 20.252062
67.090 21.011259
67.095 20.657993
67.100 20.608374
67.105 21.294483
67.110 21.354658
67.115 21.094147
67.120 20.981966
67.125 20.733027
67.130 20.92205
67.135 20.875889
67.140 20.091049
67.145 20.471008
67.150 21.004568
67.155 20.509518
67.160 20.006189
67.165 20.734392
67.170 20.276773
67.175 20.106756
67.180 20.073265
67.185 20.452576
67.190 20.495792
67.195 20.040503
67.200 19.475952
67.205 19.596386
67.210 19.395374
67.215 19.380447
67.220 18.841202
67.225 19.098362
67.230 19.432232
67.235 19.534748
67.240 19.439407
67.245 19.314697
67.250 19.336637
67.255 19.760433
67.260 20.04977
67.265 20.024084
67.270 19.688274
67.275 19.925694
67.280 20.646441
67.285 20.896278
67.290 20.886805
67.295 20.789114
67.300 20.876669
67.305 20.857773
67.310 20.427378
67.315 19.85565
67.320 19.492342
67.325 18.963041
67.330 18.647095
67.335 18.994186
67.340 19.283417
67.345 19.84247
67.350 19.565023
67.355 19.683992
67.360 20.485968
67.365 20.72332
67.370 20.440117
67.375 20.050383
67.380 20.109232
67.385 19.978441
67.390 19.987366
67.395 19.680408
67.400 20.171476
67.405 20.711706
67.410 20.729128
67.415 20.841248
67.420 21.276924
67.425 21.23838
67.430 21.119417
67.435 21.196877
67.440 21.183559
67.445 21.502106
67.450 21.330002
67.455 21.384058
67.460 20.883036
67.465 20.544054
67.470 20.523935
67.475 20.189857
67.480 19.614847
67.485 19.764883
67.490 19.907928
67.495 20.186804
67.500 20.370533
67.505 19.974026
67.510 20.249182
67.515 21.022812
67.520 20.6497
67.525 19.876598
67.530 19.723022
67.535 19.515951
67.540 19.200434
67.545 19.045263
67.550 18.656885
67.555 18.980324
67.560 19.466875
67.565 19.454073
67.570 19.143763
67.575 19.245396
67.580 19.562809
67.585 20.217199
67.590 20.167231
67.595 19.714174
67.600 19.461964
67.605 19.829678
67.610 19.921814
67.615 19.44416
67.620 18.792791
67.625 19.28853
67.630 19.998127
67.635 20.685865
67.640 20.548836
67.645 20.071014
67.650 20.508556
67.655 20.906538
67.660 20.322929
67.665 20.216606
67.670 20.196787
67.675 20.452923
67.680 21.305716
67.685 21.544945
67.690 21.24276
67.695 21.51594
67.700 21.525541
67.705 21.623602
67.710 21.166225
67.715 20.307047
67.720 19.812487
67.725 19.642771
67.730 19.431047
67.735 19.334229
67.740 19.064142
67.745 19.233795
67.750 18.950197
67.755 18.841694
67.760 18.903419
67.765 18.632353
67.770 18.740294
67.775 18.649487
67.780 18.890701
67.785 19.393587
67.790 19.524786
67.795 19.726387
67.800 19.651745
67.805 19.758083
67.810 19.568455
67.815 19.406141
67.820 18.756687
67.825 18.759909
67.830 18.043001
67.835 17.29393
67.840 16.944445
67.845 17.048401
67.850 16.979345
67.855 17.003721
67.860 16.783823
67.865 17.728487
67.870 18.392138
67.875 18.625917
67.880 18.617439
67.885 18.429096
67.890 18.797855
67.895 19.015179
67.900 19.244732
67.905 18.742104
67.910 18.964582
67.915 18.410471
67.920 18.913363
67.925 19.041649
67.930 18.860678
67.935 18.858734
67.940 18.666227
67.945 18.096361
67.950 18.635775
67.955 18.824364
67.960 18.551693
67.965 18.228802
67.970 18.161442
67.975 18.595581
67.980 19.356899
67.985 19.303743
67.990 18.970709
67.995 18.923965
68.000 18.738321
68.005 19.276531
68.010 19.209269
68.015 19.360331
68.020 19.72192
68.025 20.382494
68.030 20.760576
68.035 21.6224
68.040 21.524395
68.045 21.767773
68.050 21.898603
68.055 21.551828
68.060 21.117424
68.065 20.448473
68.070 20.343899
68.075 20.211025
68.080 20.582537
68.085 21.069511
68.090 21.196287
68.095 21.271473
68.100 21.892765
68.105 21.802166
68.110 22.323639
68.115 22.170586
68.120 21.418182
68.125 21.782892
68.130 22.031105
68.135 21.397011
68.140 20.918175
68.145 20.045082
68.150 19.60737
68.155 19.457336
68.160 19.279718
68.165 19.290419
68.170 19.289902
68.175 19.440496
68.180 19.489162
68.185 19.803257
68.190 20.673285
68.195 20.352869
68.200 19.967588
68.205 20.293352
68.210 20.307495
68.215 20.335541
68.220 20.153316
68.225 19.771095
68.230 19.954161
68.235 20.474007
68.240 20.654388
68.245 21.016975
68.250 21.347603
68.255 20.945705
68.260 20.735102
68.265 21.08007
68.270 21.138445
68.275 20.803585
68.280 20.357065
68.285 20.37467
68.290 20.332085
68.295 20.100086
68.300 19.768902
68.305 19.797297
68.310 20.125769
68.315 19.893948
68.320 19.905104
68.325 19.580976
68.330 19.516438
68.335 19.049744
68.340 18.898289
68.345 18.616093
68.350 18.806877
68.355 19.183897
68.360 19.314068
68.365 19.516857
68.370 20.129511
68.375 20.080576
68.380 21.182838
68.385 21.477491
68.390 21.292809
68.395 21.842058
68.400 21.767277
68.405 21.701801
68.410 22.024311
68.415 20.946087
68.420 20.404966
68.425 19.920727
68.430 19.35364
68.435 18.504665
68.440 17.102524
68.445 16.604776
68.450 17.298605
68.455 17.560011
68.460 17.742598
68.465 18.083763
68.470 18.778595
68.475 20.31493
68.480 20.487196
68.485 20.456064
68.490 20.386702
68.495 20.062963
68.500 19.691847
68.505 19.52025
68.510 19.185442
68.515 19.08581
68.520 18.773592
68.525 19.573538
68.530 20.164864
68.535 21.207611
68.540 21.404766
68.545 21.014782
68.550 21.22366
68.555 21.698236
68.560 21.595181
68.565 20.919203
68.570 20.234251
68.575 19.983736
68.580 20.027113
68.585 19.93565
68.590 19.927166
68.595 19.747017
68.600 20.520967
68.605 21.133331
68.610 21.531401
68.615 22.289251
68.620 22.064558
68.625 21.65934
68.630 21.734062
68.635 20.853104
68.640 20.948048
68.645 21.076391
68.650 20.148491
68.655 20.572966
68.660 20.422039
68.665 20.749638
68.670 21.041485
68.675 20.595531
68.680 20.364891
68.685 20.20265
68.690 20.099432
68.695 20.788582
68.700 20.280783
68.705 19.851635
68.710 19.47094
68.715 19.634047
68.720 19.778984
68.725 19.587326
68.730 19.536493
68.735 20.314844
68.740 20.563387
68.745 20.440401
68.750 20.234341
68.755 20.295515
68.760 20.766129
68.765 20.660738
68.770 20.560776
68.775 20.867926
68.780 20.675837
68.785 20.64703
68.790 20.896088
68.795 20.449795
68.800 20.392376
68.805 20.367277
68.810 20.671198
68.815 21.191326
68.820 21.862774
68.825 21.851238
68.830 21.829624
68.835 22.148714
68.840 22.081673
68.845 21.716143
68.850 22.088039
68.855 21.908731
68.860 21.899704
68.865 21.523575
68.870 21.117489
68.875 21.264025
68.880 21.398205
68.885 21.120327
68.890 21.067375
68.895 20.936378
68.900 20.654507
68.905 20.581093
68.910 20.777946
68.915 20.925518
68.920 21.085215
68.925 21.106644
68.930 20.877331
68.935 21.210352
68.940 21.698555
68.945 21.648554
68.950 21.434963
68.955 21.461975
68.960 21.798693
68.965 22.433435
68.970 23.242693
68.975 23.122734
68.980 23.477243
68.985 24.081436
68.990 24.157274
68.995 24.169037
69.000 24.167727
69.005 23.710552
69.010 24.112627
69.015 24.022512
69.020 23.647171
69.025 23.289793
69.030 23.397913
69.035 23.647495
69.040 23.866953
69.045 23.257326
69.050 23.069424
69.055 23.125046
69.060 23.166431
69.065 23.073591
69.070 23.100183
69.075 23.220856
69.080 23.617876
69.085 24.575384
69.090 24.94018
69.095 25.165052
69.100 25.30735
69.105 25.938309
69.110 26.223555
69.115 26.09244
69.120 25.028002
69.125 24.977795
69.130 25.269917
69.135 25.081722
69.140 24.67248
69.145 24.188587
69.150 24.26367
69.155 25.498226
69.160 25.019623
69.165 24.986065
69.170 25.06566
69.175 26.07023
69.180 26.938049
69.185 27.188572
69.190 26.884106
69.195 26.921906
69.200 26.827045
69.205 26.488529
69.210 25.457483
69.215 26.145866
69.220 26.451225
69.225 26.846973
69.230 26.985706
69.235 27.536219
69.240 28.553892
69.245 28.842546
69.250 28.619471
69.255 28.995136
69.260 29.487844
69.265 30.0289
69.270 29.686773
69.275 29.455282
69.280 29.415991
69.285 29.093493
69.290 28.11121
69.295 27.96829
69.300 28.475983
69.305 28.732275
69.310 29.614805
69.315 29.94437
69.320 30.455128
69.325 30.462721
69.330 30.345722
69.335 29.996925
69.340 29.201647
69.345 28.933432
69.350 28.931122
69.355 28.4359
69.360 28.293121
69.365 28.09597
69.370 28.830824
69.375 29.396957
69.380 29.601551
69.385 30.045525
69.390 31.149166
69.395 31.645573
69.400 32.007038
69.405 32.360096
69.410 33.006397
69.415 33.148338
69.420 32.791058
69.425 32.982948
69.430 33.31271
69.435 33.395779
69.440 32.929585
69.445 32.435226
69.450 33.396328
69.455 32.895687
69.460 31.916668
69.465 31.679213
69.470 31.30414
69.475 31.39171
69.480 31.460594
69.485 30.630707
69.490 31.299994
69.495 31.825665
69.500 31.963936
69.505 31.609125
69.510 31.957329
69.515 31.928806
69.520 31.844191
69.525 31.632862
69.530 31.058075
69.535 30.941778
69.540 31.208223
69.545 31.275318
69.550 31.620789
69.555 31.27887
69.560 31.94767
69.565 32.993195
69.570 33.905777
69.575 33.645168
69.580 33.627468
69.585 33.657001
69.590 34.217251
69.595 33.954506
69.600 33.823219
69.605 33.887272
69.610 34.630016
69.615 34.113575
69.620 34.408882
69.625 33.583977
69.630 33.430576
69.635 33.495605
69.640 33.430862
69.645 33.050571
69.650 33.543232
69.655 33.696556
69.660 34.163795
69.665 33.978901
69.670 33.333549
69.675 32.784447
69.680 32.190159
69.685 31.933619
69.690 31.41959
69.695 31.301376
69.700 31.665911
69.705 31.430656
69.710 31.336107
69.715 31.328598
69.720 30.474094
69.725 30.027643
69.730 29.760378
69.735 29.485819
69.740 29.232346
69.745 28.445421
69.750 28.616539
69.755 28.644234
69.760 29.046745
69.765 29.268641
69.770 28.853121
69.775 29.005142
69.780 29.234064
69.785 29.246374
69.790 29.331818
69.795 28.72687
69.800 28.497953
69.805 28.285746
69.810 28.680525
69.815 28.615818
69.820 28.229605
69.825 27.769329
69.830 27.890211
69.835 27.829245
69.840 27.678087
69.845 27.463146
69.850 26.728239
69.855 26.441225
69.860 25.498411
69.865 25.099213
69.870 25.292139
69.875 25.8988
69.880 26.282494
69.885 26.781502
69.890 26.463634
69.895 27.178585
69.900 26.829662
69.905 26.475462
69.910 25.573757
69.915 24.650351
69.920 24.626181
69.925 24.466139
69.930 23.977869
69.935 23.615736
69.940 23.23756
69.945 23.452965
69.950 23.646915
69.955 23.261639
69.960 22.978083
69.965 22.73937
69.970 22.173037
69.975 21.437759
69.980 20.930134
69.985 21.672997
69.990 21.929663
69.995 22.289999
70.000 22.819904
70.005 22.771807
70.010 23.054287
70.015 22.7932
70.020 21.654829
70.025 21.447945
70.030 21.967712
70.035 21.878038
70.040 22.24719
70.045 21.709099
70.050 21.833803
70.055 22.519611
70.060 22.433605
70.065 21.400471
70.070 21.856115
70.075 21.65391
70.080 21.809366
70.085 21.593233
70.090 20.904434
70.095 21.10606
70.100 21.55315
70.105 20.681177
70.110 20.704502
70.115 20.81974
70.120 20.578978
70.125 20.369595
70.130 19.867693
70.135 19.816362
70.140 19.17202
70.145 18.665342
70.150 18.349094
70.155 18.312355
70.160 18.815077
70.165 18.882397
70.170 18.872032
70.175 19.483027
70.180 19.965923
70.185 20.157228
70.190 20.693085
70.195 20.56205
70.200 20.677397
70.205 20.541561
70.210 20.338333
70.215 19.928139
70.220 19.423338
70.225 18.879217
70.230 18.243242
70.235 18.15172
70.240 18.711836
70.245 18.778206
70.250 19.351088
70.255 19.88345
70.260 20.603662
70.265 21.151344
70.270 20.994114
70.275 21.260336
70.280 21.493034
70.285 21.505293
70.290 20.575453
70.295 20.086857
70.300 19.583122
70.305 19.006971
70.310 17.838345
70.315 17.233873
70.320 16.913239
70.325 16.848272
70.330 17.054277
70.335 17.603207
70.340 18.052258
70.345 18.363583
70.350 17.912191
70.355 17.871473
70.360 18.498125
70.365 18.458885
70.370 17.801825
70.375 17.540611
70.380 17.638014
70.385 17.909506
70.390 18.600441
70.395 18.510691
70.400 18.746851
70.405 18.793314
70.410 19.189489
70.415 19.845081
70.420 19.804705
70.425 19.374208
70.430 18.865257
70.435 19.08053
70.440 19.27672
70.445 18.987833
70.450 18.62702
70.455 18.970367
70.460 19.216919
70.465 19.656246
70.470 19.680004
70.475 19.827515
70.480 19.32513
70.485 19.37476
70.490 19.640032
70.495 19.60713
70.500 19.197184
70.505 19.318075
70.510 19.780611
70.515 19.996859
70.520 19.887861
70.525 19.358988
70.530 19.91399
70.535 20.33639
70.540 20.093937
70.545 20.276148
70.550 20.330759
70.555 20.054592
70.560 19.650684
70.565 19.781759
70.570 19.731333
70.575 19.510456
70.580 19.637438
70.585 19.981466
70.590 19.864035
70.595 19.567347
70.600 18.907936
70.605 18.381889
70.610 18.18302
70.615 17.407957
70.620 16.904963
70.625 17.355726
70.630 17.622049
70.635 18.318729
70.640 18.563622
70.645 18.845749
70.650 19.052612
70.655 19.105068
70.660 19.287676
70.665 18.771545
70.670 18.090857
70.675 18.11042
70.680 18.330456
70.685 18.208704
70.690 18.391005
70.695 18.0222
70.700 18.01712
70.705 18.148945
70.710 18.092726
70.715 18.555113
70.720 18.849997
70.725 18.72431
70.730 19.455965
70.735 19.686848
70.740 19.759207
70.745 19.848507
70.750 19.813694
70.755 20.259613
70.760 20.208248
70.765 19.660172
70.770 20.024532
70.775 19.544533
70.780 19.022287
70.785 18.573158
70.790 18.82494
70.795 18.699869
70.800 18.452925
70.805 18.174463
70.810 17.866877
70.815 17.600216
70.820 17.524677
70.825 17.40045
70.830 17.420673
70.835 17.522242
70.840 17.388477
70.845 17.992245
70.850 18.398697
70.855 18.086975
70.860 17.498781
70.865 17.993742
70.870 18.050058
70.875 17.853872
70.880 18.030807
70.885 18.540939
70.890 18.692429
70.895 18.752905
70.900 18.822275
70.905 19.591812
70.910 20.174469
70.915 19.51306
70.920 19.284946
70.925 19.070578
70.930 18.27857
70.935 17.618807
70.940 17.045193
70.945 16.617643
70.950 16.481413
70.955 16.553661
70.960 17.113335
70.965 18.230091
70.970 18.275915
70.975 18.395296
70.980 18.792686
70.985 18.763897
70.990 19.043209
70.995 18.886868
71.000 18.099323
71.005 18.109379
71.010 17.906071
71.015 17.874266
71.020 17.673723
71.025 17.207846
71.030 17.203379
71.035 17.500128
71.040 17.454327
71.045 17.749269
71.050 18.288876
71.055 18.874533
71.060 19.376919
71.065 19.128937
71.070 18.911835
71.075 19.15592
71.080 18.819717
71.085 18.868069
71.090 18.472307
71.095 17.636177
71.100 17.832623
71.105 17.741106
71.110 17.506361
71.115 18.024324
71.120 17.447065
71.125 17.381638
71.130 17.603775
71.135 18.093193
71.140 18.17099
71.145 18.389511
71.150 18.250053
71.155 17.92977
71.160 18.634344
71.165 18.959965
71.170 18.900618
71.175 18.817289
71.180 18.149199
71.185 18.250498
71.190 18.787842
71.195 18.443573
71.200 17.665564
71.205 17.871698
71.210 18.685347
71.215 18.605848
71.220 18.640186
71.225 18.436529
71.230 18.480345
71.235 18.783604
71.240 18.907104
71.245 18.709047
71.250 19.139666
71.255 19.184347
71.260 19.523827
71.265 19.861031
71.270 19.593763
71.275 19.176228
71.280 18.688919
71.285 18.74548
71.290 18.502966
71.295 18.234774
71.300 17.617521
71.305 17.382669
71.310 17.886667
71.315 18.162376
71.320 17.837927
71.325 17.974476
71.330 17.994688
71.335 18.985569
71.340 18.769754
71.345 18.509056
71.350 18.306492
71.355 18.283829
71.360 18.456644
71.365 18.882751
71.370 18.740717
71.375 18.641657
71.380 18.57102
71.385 18.516338
71.390 18.224478
71.395 17.815666
71.400 18.002647
71.405 18.66551
71.410 18.903633
71.415 19.313349
71.420 19.281982
71.425 19.418037
71.430 18.836889
71.435 17.618576
71.440 16.967087
71.445 16.601345
71.450 16.17075
71.455 16.323326
71.460 16.386354
71.465 16.500891
71.470 16.246431
71.475 16.335245
71.480 17.320658
71.485 17.658291
71.490 17.56485
71.495 17.689556
71.500 18.01906
71.505 18.086073
71.510 17.942673
71.515 17.187834
71.520 17.376839
71.525 17.252766
71.530 17.251266
71.535 18.029139
71.540 18.664284
71.545 18.887119
71.550 19.258673
71.555 19.073315
71.560 19.319609
71.565 19.206221
71.570 18.606445
71.575 17.915636
71.580 17.517887
71.585 17.548111
71.590 17.808414
71.595 17.940697
71.600 18.01792
71.605 18.116968
71.610 18.262402
71.615 18.35898
71.620 17.848455
71.625 17.642582
71.630 17.817213
71.635 17.967365
71.640 18.239958
71.645 18.736322
71.650 18.501595
71.655 18.106524
71.660 18.219305
71.665 17.946402
71.670 18.004227
71.675 18.491093
71.680 18.236261
71.685 18.127253
71.690 18.447245
71.695 18.389935
71.700 18.649717
71.705 18.733688
71.710 18.358366
71.715 18.880709
71.720 19.381489
71.725 18.987919
71.730 18.829222
71.735 18.901569
71.740 19.029318
71.745 18.690693
71.750 18.431284
71.755 18.800396
71.760 19.164715
71.765 19.412241
71.770 18.93347
71.775 18.46273
71.780 18.812803
71.785 18.66312
71.790 18.561161
71.795 18.631535
71.800 18.286943
71.805 18.263088
71.810 17.924208
71.815 17.938824
71.820 17.695684
71.825 17.450012
71.830 17.122189
71.835 16.96336
71.840 17.234245
71.845 17.331787
71.850 17.747751
71.855 17.634247
71.860 17.578934
71.865 18.138853
71.870 18.233437
71.875 18.690245
71.880 18.986141
71.885 19.417015
71.890 19.794977
71.895 19.867107
71.900 19.560125
71.905 19.854122
71.910 19.515717
71.915 18.667341
71.920 17.79615
71.925 17.581024
71.930 17.116945
71.935 17.401804
71.940 17.385984
71.945 17.876524
71.950 18.129467
71.955 18.034201
71.960 17.731308
71.965 17.77606
71.970 17.538004
71.975 16.836798
71.980 16.57864
71.985 17.319157
71.990 17.847847
71.995 18.580759
72.000 18.880255
72.005 19.191267
72.010 18.916975
72.015 19.077251
72.020 19.422495
72.025 19.237171
72.030 18.556931
72.035 18.926012
72.040 19.203136
72.045 19.529215
72.050 19.102922
72.055 18.428125
72.060 18.327097
72.065 18.64488
72.070 17.871756
72.075 17.605156
72.080 16.690647
72.085 16.401659
72.090 16.355444
72.095 16.052881
72.100 15.887259
72.105 15.944157
72.110 16.304136
72.115 17.195034
72.120 17.571466
72.125 18.217703
72.130 18.347696
72.135 18.060894
72.140 18.413799
72.145 18.716574
72.150 18.090212
72.155 17.55723
72.160 16.813356
72.165 16.862446
72.170 17.223049
72.175 16.813148
72.180 16.644014
72.185 17.199013
72.190 17.29357
72.195 17.10232
72.200 17.153862
72.205 17.200695
72.210 17.355822
72.215 16.793303
72.220 16.750441
72.225 16.727774
72.230 16.930763
72.235 17.722027
72.240 17.376789
72.245 17.817503
72.250 18.926163
72.255 19.13168
72.260 19.402645
72.265 19.726341
72.270 19.145727
72.275 19.53182
72.280 19.517187
72.285 18.707277
72.290 19.024025
72.295 19.245251
72.300 19.013571
72.305 18.589611
72.310 18.239643
72.315 17.815914
72.320 17.921455
72.325 17.473103
72.330 17.660366
72.335 18.114202
72.340 18.185671
72.345 18.167618
72.350 18.483501
72.355 18.364508
72.360 18.514915
72.365 18.130007
72.370 17.960932
72.375 18.094877
72.380 18.129658
72.385 18.453959
72.390 18.287052
72.395 17.911854
72.400 17.464931
72.405 17.056513
72.410 16.627544
72.415 16.302565
72.420 16.051935
72.425 16.011648
72.430 16.80303
72.435 17.040346
72.440 16.931187
72.445 17.242712
72.450 17.467525
72.455 17.690866
72.460 17.553183
72.465 17.378405
72.470 17.927
72.475 17.949978
72.480 17.569044
72.485 17.892563
72.490 18.25737
72.495 17.766047
72.500 17.519609
72.505 17.702749
72.510 17.858898
72.515 18.052464
72.520 18.038965
72.525 17.707298
72.530 17.881237
72.535 18.101055
72.540 18.140192
72.545 18.33572
72.550 18.253754
72.555 18.464703
72.560 18.967394
72.565 19.325348
72.570 18.803995
72.575 18.93198
72.580 19.747395
72.585 19.943699
72.590 19.616777
72.595 18.849062
72.600 18.661844
72.605 18.89679
72.610 18.407192
72.615 17.345842
72.620 17.256573
72.625 17.200195
72.630 17.465805
72.635 17.558342
72.640 17.468586
72.645 17.690746
72.650 17.90406
72.655 17.692064
72.660 17.43993
72.665 17.114014
72.670 16.976812
72.675 17.183474
72.680 17.152943
72.685 16.957047
72.690 16.961348
72.695 17.553371
72.700 17.428785
72.705 17.169624
72.710 16.514761
72.715 16.353922
72.720 16.169127
72.725 16.51651
72.730 16.690876
72.735 17.554586
72.740 17.72831
72.745 18.04184
72.750 18.042601
72.755 18.009705
72.760 17.60939
72.765 17.121712
72.770 16.456896
72.775 16.247818
72.780 16.0909
72.785 15.762997
72.790 15.438499
72.795 15.539863
72.800 15.708149
72.805 15.61623
72.810 15.146974
72.815 15.368345
72.820 16.351341
72.825 16.66803
72.830 16.531815
72.835 17.015022
72.840 17.775917
72.845 18.083618
72.850 18.202862
72.855 17.859657
72.860 18.00807
72.865 17.965466
72.870 18.033724
72.875 17.618429
72.880 17.785437
72.885 17.363676
72.890 17.597282
72.895 16.948355
72.900 16.388601
72.905 16.369595
72.910 15.995439
72.915 15.753626
72.920 15.840404
72.925 15.710145
72.930 16.000795
72.935 15.237428
72.940 14.857722
72.945 15.294771
72.950 15.282454
72.955 14.990108
72.960 14.7871
72.965 15.036974
72.970 15.662097
72.975 15.810571
72.980 16.111025
72.985 16.355536
72.990 16.622906
72.995 16.602016
73.000 16.972982
