!@!!GADDS PLOTSO FILE: Chi integration type
!@!!Title/SampleName: map-f
!@!!Comment: ?
!@!!User: Bruker Instrument Administrator
!@!!Site: University of Illinois Chicago
!@!!Frame: map-f_01_000.gfrm
!@!!Wavelengths    1.54184   1.54056   1.54439
!@!!Frame angles: 2Theta: 63.000 Omega: 50.000 Phi: 0.000 Chi: 90.000
!@!!Integration range: 2Theta: 53.000 to 73.000  Gamma: -105.000 to -75.000
!@!!Integration method: bin normalized
!@!N
!@!SS
!@!M
!@!L 0.0 0.0 0.0 0.0
!@!XDegrees
!@!YCounts
53.000 8.209976
53.005 8.185901
53.010 8.51129
53.015 8.205508
53.020 7.929827
53.025 7.881642
53.030 7.778517
53.035 7.929461
53.040 8.263182
53.045 8.344094
53.050 8.441896
53.055 8.793963
53.060 8.674181
53.065 8.713636
53.070 8.874803
53.075 8.277432
53.080 7.691108
53.085 7.393565
53.090 7.323318
53.095 7.316323
53.100 7.603501
53.105 7.437178
53.110 7.856078
53.115 8.255994
53.120 7.849501
53.125 7.712566
53.130 7.618804
53.135 7.183987
53.140 7.253319
53.145 7.142895
53.150 7.046354
53.155 7.330627
53.160 7.234019
53.165 7.11336
53.170 7.676405
53.175 7.515163
53.180 7.531305
53.185 7.680506
53.190 8.173409
53.195 8.353967
53.200 8.628918
53.205 8.090362
53.210 8.332305
53.215 8.917143
53.220 9.04448
53.225 8.726755
53.230 9.086379
53.235 8.911296
53.240 9.004101
53.245 9.122961
53.250 8.829808
53.255 9.146345
53.260 9.441631
53.265 8.684039
53.270 8.441247
53.275 8.59568
53.280 8.26793
53.285 8.427956
53.290 8.118149
53.295 7.925786
53.300 8.369068
53.305 8.692573
53.310 8.95839
53.315 8.759605
53.320 8.703051
53.325 8.647751
53.330 8.793108
53.335 9.287153
53.340 8.622705
53.345 8.208614
53.350 8.282847
53.355 8.188765
53.360 7.972284
53.365 7.484886
53.370 7.55075
53.375 7.939507
53.380 7.97502
53.385 8.216124
53.390 8.48061
53.395 8.636863
53.400 9.014556
53.405 8.894231
53.410 8.93196
53.415 8.922059
53.420 8.822666
53.425 9.250629
53.430 9.484546
53.435 9.59184
53.440 9.30208
53.445 9.272084
53.450 9.507812
53.455 9.033988
53.460 8.468453
53.465 8.139797
53.470 7.924884
53.475 7.922503
53.480 7.824673
53.485 7.642272
53.490 7.62434
53.495 7.719201
53.500 7.66717
53.505 7.919501
53.510 8.275732
53.515 8.523896
53.520 8.704372
53.525 9.012546
53.530 9.292437
53.535 9.509046
53.540 9.460832
53.545 9.546774
53.550 9.27267
53.555 9.321281
53.560 9.300582
53.565 8.917776
53.570 9.034336
53.575 8.803276
53.580 8.388722
53.585 8.711846
53.590 8.28391
53.595 8.443519
53.600 8.754371
53.605 8.873292
53.610 8.96655
53.615 8.754685
53.620 8.514974
53.625 9.02154
53.630 8.851229
53.635 8.816295
53.640 8.803301
53.645 9.123199
53.650 9.705402
53.655 9.999687
53.660 9.85541
53.665 9.459835
53.670 9.23365
53.675 9.085635
53.680 8.699381
53.685 8.306849
53.690 8.349221
53.695 8.895
53.700 9.45811
53.705 9.578854
53.710 9.310947
53.715 9.380817
53.720 9.283023
53.725 9.570538
53.730 9.248971
53.735 8.941897
53.740 9.344729
53.745 9.732924
53.750 9.806784
53.755 9.815268
53.760 9.853725
53.765 9.981688
53.770 9.958187
53.775 9.7137
53.780 9.933546
53.785 10.049471
53.790 9.830918
53.795 9.370537
53.800 8.823631
53.805 8.580436
53.810 8.325505
53.815 8.258478
53.820 8.249084
53.825 8.044909
53.830 8.103472
53.835 8.980212
53.840 9.572707
53.845 9.5667
53.850 9.423051
53.855 9.572745
53.860 10.570199
53.865 10.252814
53.870 9.638293
53.875 9.602065
53.880 9.676752
53.885 9.57231
53.890 9.515735
53.895 9.186024
53.900 9.208793
53.905 9.339651
53.910 9.051581
53.915 9.18857
53.920 9.275986
53.925 9.041693
53.930 9.157317
53.935 9.315933
53.940 9.307552
53.945 9.068339
53.950 9.14712
53.955 9.156744
53.960 8.986606
53.965 9.108184
53.970 9.123165
53.975 9.171999
53.980 9.728539
53.985 9.869527
53.990 10.245045
53.995 9.948283
54.000 9.697173
54.005 9.720938
54.010 9.999335
54.015 10.100075
54.020 10.065623
54.025 10.080612
54.030 10.879761
54.035 11.159599
54.040 10.950675
54.045 10.518605
54.050 9.626437
54.055 9.096469
54.060 8.92373
54.065 8.239069
54.070 7.91904
54.075 8.146513
54.080 8.609965
54.085 8.789815
54.090 8.738872
54.095 8.875983
54.100 9.806111
54.105 9.836047
54.110 10.143385
54.115 10.474644
54.120 11.005191
54.125 10.999925
54.130 10.453751
54.135 10.346361
54.140 10.64186
54.145 10.412041
54.150 10.225365
54.155 9.978125
54.160 9.733559
54.165 9.659654
54.170 9.414515
54.175 9.038092
54.180 8.501356
54.185 8.423009
54.190 8.786746
54.195 9.505672
54.200 9.971748
54.205 10.350666
54.210 10.492715
54.215 10.513593
54.220 10.325897
54.225 10.025139
54.230 10.50951
54.235 10.090467
54.240 9.9334
54.245 9.786754
54.250 9.864977
54.255 10.122517
54.260 9.953135
54.265 9.171368
54.270 9.542275
54.275 9.343445
54.280 9.624909
54.285 9.476933
54.290 9.321505
54.295 9.240161
54.300 9.855014
54.305 9.600679
54.310 9.658682
54.315 9.873312
54.320 10.035988
54.325 10.252558
54.330 10.587962
54.335 10.461495
54.340 10.269824
54.345 9.939837
54.350 9.774223
54.355 9.990675
54.360 10.487627
54.365 9.953248
54.370 9.727261
54.375 10.103761
54.380 10.04003
54.385 9.887967
54.390 9.572578
54.395 9.205012
54.400 9.559124
54.405 9.312368
54.410 9.337841
54.415 9.475874
54.420 9.678183
54.425 9.632591
54.430 9.847059
54.435 10.146614
54.440 10.22897
54.445 10.346586
54.450 10.616609
54.455 10.788821
54.460 10.397445
54.465 9.942009
54.470 9.669277
54.475 9.793676
54.480 9.549973
54.485 9.341457
54.490 9.358162
54.495 9.342515
54.500 9.319309
54.505 9.132111
54.510 9.455031
54.515 9.619765
54.520 9.526962
54.525 9.592021
54.530 9.999999
54.535 10.527255
54.540 10.356589
54.545 9.563776
54.550 9.4026
54.555 9.37316
54.560 9.683534
54.565 9.797066
54.570 9.627934
54.575 10.205827
54.580 10.612906
54.585 10.967336
54.590 11.090597
54.595 10.928442
54.600 11.284132
54.605 11.191399
54.610 11.002114
54.615 10.888855
54.620 10.432105
54.625 10.444731
54.630 9.990462
54.635 9.765105
54.640 9.887429
54.645 9.72984
54.650 10.16193
54.655 10.633787
54.660 10.525143
54.665 10.729009
54.670 10.96037
54.675 10.522857
54.680 10.48096
54.685 10.158201
54.690 10.145145
54.695 10.034524
54.700 9.99047
54.705 9.672305
54.710 10.086712
54.715 10.440674
54.720 10.363823
54.725 10.156387
54.730 9.9109
54.735 9.926988
54.740 10.368361
54.745 10.087852
54.750 9.762557
54.755 9.694955
54.760 10.025626
54.765 10.526291
54.770 10.412245
54.775 10.422827
54.780 10.99343
54.785 11.216438
54.790 11.43759
54.795 11.799106
54.800 12.07
54.805 12.28301
54.810 12.051656
54.815 11.982334
54.820 11.97469
54.825 11.631644
54.830 11.108309
54.835 10.809774
54.840 10.286071
54.845 10.482192
54.850 10.229411
54.855 10.171224
54.860 10.164349
54.865 10.142813
54.870 10.197395
54.875 10.236455
54.880 10.043267
54.885 10.008799
54.890 10.498273
54.895 10.934524
54.900 11.182841
54.905 11.26732
54.910 11.812675
54.915 12.40922
54.920 12.624421
54.925 12.256647
54.930 11.920028
54.935 11.854303
54.940 11.9027
54.945 11.355996
54.950 10.872424
54.955 10.648756
54.960 10.758059
54.965 11.090148
54.970 10.359443
54.975 10.174386
54.980 10.213714
54.985 10.684805
54.990 10.835497
54.995 10.542006
55.000 11.028249
55.005 11.263539
55.010 11.607683
55.015 12.212431
55.020 11.716574
55.025 11.459452
55.030 11.03363
55.035 10.298038
55.040 10.356755
55.045 10.010414
55.050 9.700846
55.055 9.772416
55.060 9.922413
55.065 10.378364
55.070 10.421536
55.075 10.249985
55.080 10.456152
55.085 9.766215
55.090 9.543279
55.095 9.688412
55.100 9.982685
55.105 10.635494
55.110 10.685693
55.115 10.494708
55.120 11.044465
55.125 11.100481
55.130 11.069013
55.135 10.719481
55.140 10.402363
55.145 10.424477
55.150 10.286309
55.155 10.242945
55.160 10.149462
55.165 10.082743
55.170 10.137395
55.175 10.555559
55.180 11.230913
55.185 11.390602
55.190 11.231342
55.195 11.386364
55.200 10.933996
55.205 10.833148
55.210 10.690987
55.215 10.760326
55.220 10.74278
55.225 11.306651
55.230 11.494651
55.235 11.78613
55.240 11.906109
55.245 11.89122
55.250 12.068316
55.255 12.716168
55.260 12.50586
55.265 12.46814
55.270 12.567433
55.275 12.325364
55.280 12.181933
55.285 11.690067
55.290 11.306349
55.295 11.182932
55.300 11.143091
55.305 11.317448
55.310 11.563722
55.315 11.737914
55.320 11.91992
55.325 12.464263
55.330 12.482288
55.335 12.047632
55.340 11.852551
55.345 11.320313
55.350 10.940955
55.355 10.624782
55.360 10.036552
55.365 10.117405
55.370 10.003288
55.375 10.384174
55.380 10.385904
55.385 10.541636
55.390 10.694793
55.395 10.568381
55.400 10.620824
55.405 10.83711
55.410 11.010607
55.415 11.542294
55.420 12.001766
55.425 12.454779
55.430 13.22638
55.435 13.742888
55.440 13.878305
55.445 13.351665
55.450 12.65771
55.455 12.351492
55.460 11.577026
55.465 11.149398
55.470 10.813865
55.475 10.768579
55.480 11.186705
55.485 11.33338
55.490 11.723488
55.495 11.994851
55.500 11.972532
55.505 12.228834
55.510 12.619148
55.515 12.295643
55.520 12.17876
55.525 11.594004
55.530 12.076561
55.535 11.983511
55.540 11.901057
55.545 11.394698
55.550 11.13133
55.555 11.291308
55.560 11.88532
55.565 11.633395
55.570 11.528328
55.575 11.981305
55.580 12.375172
55.585 12.881866
55.590 12.761923
55.595 12.564234
55.600 12.603776
55.605 12.472631
55.610 12.290607
55.615 12.260467
55.620 12.072997
55.625 12.283397
55.630 12.010791
55.635 11.937817
55.640 12.052584
55.645 11.981694
55.650 11.738978
55.655 11.636731
55.660 11.896524
55.665 11.757195
55.670 12.080521
55.675 11.866401
55.680 11.868505
55.685 11.874141
55.690 11.990158
55.695 11.727264
55.700 11.629693
55.705 10.695745
55.710 10.371064
55.715 10.534507
55.720 10.715411
55.725 10.441781
55.730 10.357069
55.735 10.762978
55.740 11.167714
55.745 11.396913
55.750 11.187316
55.755 10.687465
55.760 10.230382
55.765 10.238523
55.770 10.481962
55.775 10.501328
55.780 10.268626
55.785 10.535954
55.790 11.203416
55.795 11.875815
55.800 12.212489
55.805 12.169348
55.810 12.494849
55.815 12.347665
55.820 12.187542
55.825 11.914724
55.830 12.294828
55.835 13.038033
55.840 13.553346
55.845 13.330117
55.850 13.407159
55.855 13.691381
55.860 13.406316
55.865 12.560882
55.870 11.505351
55.875 11.170236
55.880 11.34451
55.885 11.533275
55.890 11.306419
55.895 11.374846
55.900 11.079855
55.905 10.392658
55.910 10.371694
55.915 10.549028
55.920 10.219441
55.925 10.189462
55.930 10.522565
55.935 11.660851
55.940 12.200963
55.945 12.03824
55.950 12.027539
55.955 12.188248
55.960 12.361979
55.965 12.06413
55.970 11.598095
55.975 11.794997
55.980 11.873423
55.985 11.798982
55.990 11.853627
55.995 11.920929
56.000 12.254113
56.005 12.080886
56.010 11.343341
56.015 11.178033
56.020 11.3561
56.025 11.240474
56.030 11.124899
56.035 11.176601
56.040 11.50923
56.045 11.762202
56.050 11.145023
56.055 10.985897
56.060 10.990577
56.065 10.786314
56.070 10.41349
56.075 10.164681
56.080 10.441905
56.085 10.883185
56.090 11.247073
56.095 11.310664
56.100 11.270314
56.105 11.650588
56.110 12.518504
56.115 12.848157
56.120 13.002187
56.125 12.997287
56.130 13.618746
56.135 13.672512
56.140 13.538487
56.145 13.117048
56.150 12.766339
56.155 13.416424
56.160 13.393792
56.165 12.810679
56.170 13.156981
56.175 12.847369
56.180 12.574877
56.185 12.608862
56.190 11.735544
56.195 12.351782
56.200 12.804029
56.205 12.369495
56.210 12.365353
56.215 12.957405
56.220 13.469841
56.225 13.327383
56.230 13.071675
56.235 13.000699
56.240 13.221878
56.245 13.486546
56.250 12.35336
56.255 11.698626
56.260 11.724047
56.265 11.653748
56.270 11.110068
56.275 10.977258
56.280 10.531273
56.285 11.138033
56.290 11.358433
56.295 11.704794
56.300 11.737659
56.305 11.822412
56.310 12.009319
56.315 12.387155
56.320 12.672276
56.325 12.313842
56.330 11.617138
56.335 11.323842
56.340 11.526057
56.345 11.515437
56.350 11.478906
56.355 11.452094
56.360 11.838673
56.365 12.167801
56.370 12.264572
56.375 12.028286
56.380 11.869233
56.385 11.663588
56.390 11.127422
56.395 10.931026
56.400 11.125392
56.405 10.897173
56.410 11.131361
56.415 11.315229
56.420 12.094245
56.425 12.862103
56.430 12.993455
56.435 12.648523
56.440 12.60427
56.445 12.516141
56.450 12.205036
56.455 11.548134
56.460 11.709708
56.465 11.399777
56.470 11.10871
56.475 11.008506
56.480 10.886684
56.485 10.56112
56.490 10.604336
56.495 10.250327
56.500 10.338108
56.505 10.268506
56.510 10.228419
56.515 10.470161
56.520 11.068254
56.525 11.024472
56.530 11.209421
56.535 11.945296
56.540 12.79915
56.545 13.079439
56.550 12.885989
56.555 12.446697
56.560 12.116902
56.565 12.225099
56.570 11.955669
56.575 11.620131
56.580 12.291241
56.585 12.526872
56.590 13.022253
56.595 13.145359
56.600 12.783476
56.605 12.931877
56.610 12.726151
56.615 11.962689
56.620 11.950095
56.625 11.801739
56.630 11.702211
56.635 11.451532
56.640 11.487336
56.645 11.970269
56.650 12.631822
56.655 12.786151
56.660 13.108488
56.665 13.411489
56.670 13.876403
56.675 13.861762
56.680 13.638506
56.685 13.04311
56.690 13.110815
56.695 13.267677
56.700 12.856432
56.705 12.834341
56.710 12.536268
56.715 12.196727
56.720 12.411538
56.725 12.238433
56.730 12.056415
56.735 13.082516
56.740 12.968664
56.745 13.343806
56.750 13.5974
56.755 13.483718
56.760 13.303583
56.765 13.12194
56.770 12.152077
56.775 11.654491
56.780 11.520229
56.785 12.222212
56.790 12.927899
56.795 12.988702
56.800 13.386396
56.805 14.195467
56.810 14.590969
56.815 14.502757
56.820 13.819895
56.825 13.55105
56.830 13.55514
56.835 13.135021
56.840 12.569321
56.845 12.722959
56.850 12.788471
56.855 13.040329
56.860 13.058454
56.865 12.888162
56.870 13.046128
56.875 13.37362
56.880 13.422588
56.885 13.18605
56.890 12.86416
56.895 12.823746
56.900 12.89712
56.905 13.050644
56.910 12.956732
56.915 12.598001
56.920 12.812222
56.925 13.071984
56.930 12.985373
56.935 13.101446
56.940 13.289503
56.945 13.771184
56.950 13.926638
56.955 13.417618
56.960 13.338746
56.965 13.394053
56.970 13.337957
56.975 13.0919
56.980 12.669883
56.985 12.641782
56.990 12.536075
56.995 12.393456
57.000 12.764141
57.005 12.35151
57.010 11.826184
57.015 11.778057
57.020 12.000366
57.025 12.249207
57.030 11.880486
57.035 11.481696
57.040 12.222747
57.045 12.76451
57.050 12.835382
57.055 13.109384
57.060 13.326428
57.065 13.374968
57.070 13.393707
57.075 13.516167
57.080 13.479135
57.085 13.400657
57.090 12.77346
57.095 12.626239
57.100 12.656599
57.105 12.371373
57.110 11.78615
57.115 11.849332
57.120 12.156283
57.125 12.798605
57.130 12.994499
57.135 13.68934
57.140 14.471621
57.145 14.808304
57.150 14.728598
57.155 14.509654
57.160 14.40053
57.165 14.205427
57.170 14.151185
57.175 13.595246
57.180 14.122066
57.185 14.061622
57.190 13.845415
57.195 13.475266
57.200 13.488555
57.205 13.730798
57.210 13.596677
57.215 13.431746
57.220 13.215252
57.225 13.408548
57.230 13.56762
57.235 13.239094
57.240 12.716359
57.245 12.447838
57.250 12.5915
57.255 13.317381
57.260 13.794856
57.265 13.856959
57.270 13.957584
57.275 14.280732
57.280 14.82679
57.285 14.441898
57.290 14.172547
57.295 14.443422
57.300 15.042842
57.305 14.739326
57.310 14.59675
57.315 14.390717
57.320 14.567197
57.325 14.373898
57.330 13.967975
57.335 14.309062
57.340 14.810586
57.345 15.185378
57.350 15.364543
57.355 15.026772
57.360 15.110851
57.365 14.943189
57.370 14.691866
57.375 14.760984
57.380 14.521844
57.385 14.146563
57.390 14.047967
57.395 14.077613
57.400 14.128336
57.405 13.613428
57.410 12.918478
57.415 12.71135
57.420 12.823732
57.425 13.233783
57.430 12.852649
57.435 12.764049
57.440 13.029297
57.445 13.516734
57.450 13.899593
57.455 14.146677
57.460 14.241803
57.465 14.555961
57.470 14.874804
57.475 14.833362
57.480 14.848603
57.485 14.860541
57.490 14.377913
57.495 13.772716
57.500 13.40259
57.505 13.508373
57.510 13.648134
57.515 13.31119
57.520 13.216037
57.525 13.661177
57.530 14.120943
57.535 14.581471
57.540 14.34391
57.545 14.396787
57.550 14.885639
57.555 15.296257
57.560 15.271534
57.565 15.082393
57.570 14.553445
57.575 14.316117
57.580 13.933697
57.585 13.171288
57.590 13.020212
57.595 13.283387
57.600 13.590835
57.605 13.658437
57.610 13.656498
57.615 13.705531
57.620 13.914535
57.625 13.669653
57.630 13.414661
57.635 13.198714
57.640 13.283991
57.645 13.476424
57.650 13.645737
57.655 13.595458
57.660 13.236276
57.665 13.315358
57.670 13.227079
57.675 13.252162
57.680 13.416066
57.685 13.787508
57.690 14.601538
57.695 14.706729
57.700 14.481493
57.705 14.642035
57.710 14.693683
57.715 14.508356
57.720 13.935345
57.725 13.006413
57.730 13.19206
57.735 13.294555
57.740 13.614647
57.745 13.781259
57.750 13.950274
57.755 14.0626
57.760 14.468062
57.765 14.804973
57.770 14.486342
57.775 14.100267
57.780 14.202134
57.785 13.737059
57.790 13.644236
57.795 13.30373
57.800 13.41844
57.805 13.705527
57.810 13.700066
57.815 13.207342
57.820 13.631227
57.825 13.522649
57.830 13.534373
57.835 13.496286
57.840 13.367681
57.845 12.967544
57.850 13.149735
57.855 13.036117
57.860 13.050072
57.865 13.338676
57.870 13.626726
57.875 13.772517
57.880 14.06807
57.885 14.292651
57.890 14.530733
57.895 14.787191
57.900 14.639725
57.905 14.211948
57.910 14.07687
57.915 14.358814
57.920 14.170239
57.925 14.007803
57.930 13.973488
57.935 13.508343
57.940 14.079331
57.945 14.695958
57.950 15.332619
57.955 15.390765
57.960 15.345816
57.965 15.109115
57.970 15.115834
57.975 14.693632
57.980 14.192538
57.985 13.386593
57.990 13.365703
57.995 13.181709
58.000 13.374645
58.005 13.429985
58.010 13.473967
58.015 13.105865
58.020 12.831053
58.025 13.238958
58.030 13.732566
58.035 13.74477
58.040 13.840075
58.045 13.899495
58.050 14.554275
58.055 14.971565
58.060 15.214982
58.065 15.135509
58.070 15.107995
58.075 15.071445
58.080 14.917532
58.085 15.023864
58.090 14.248167
58.095 13.535801
58.100 13.592114
58.105 13.604671
58.110 13.680762
58.115 13.613097
58.120 13.205737
58.125 13.675194
58.130 13.773898
58.135 13.299558
58.140 13.456832
58.145 13.516911
58.150 13.311734
58.155 13.496211
58.160 13.582903
58.165 13.768065
58.170 14.347549
58.175 14.410799
58.180 14.079511
58.185 14.320637
58.190 14.181652
58.195 13.743805
58.200 13.758562
58.205 13.721769
58.210 13.685243
58.215 13.759842
58.220 13.583454
58.225 13.511417
58.230 13.623539
58.235 13.546736
58.240 13.328836
58.245 13.292781
58.250 13.192091
58.255 13.28443
58.260 13.202314
58.265 13.351854
58.270 13.809159
58.275 13.971071
58.280 14.619068
58.285 15.270084
58.290 15.484488
58.295 15.480101
58.300 15.707504
58.305 15.638652
58.310 15.380881
58.315 14.84854
58.320 14.213562
58.325 13.750624
58.330 14.073039
58.335 13.845755
58.340 13.60785
58.345 13.956418
58.350 13.595413
58.355 13.95506
58.360 14.48987
58.365 14.554237
58.370 14.437806
58.375 14.271661
58.380 13.83938
58.385 14.220665
58.390 14.110141
58.395 14.196767
58.400 14.029692
58.405 13.784398
58.410 13.699523
58.415 13.950702
58.420 14.415975
58.425 15.078029
58.430 15.440967
58.435 15.506387
58.440 16.017523
58.445 16.430273
58.450 16.341635
58.455 16.528219
58.460 16.391424
58.465 15.832951
58.470 15.930432
58.475 15.527142
58.480 15.433867
58.485 15.473877
58.490 15.160247
58.495 15.079502
58.500 15.15488
58.505 15.056836
58.510 15.528101
58.515 15.576856
58.520 15.379107
58.525 14.98545
58.530 15.405385
58.535 15.803226
58.540 15.198547
58.545 14.645284
58.550 14.39681
58.555 14.667459
58.560 14.839566
58.565 14.048291
58.570 13.71337
58.575 14.244805
58.580 14.265502
58.585 14.138451
58.590 13.653594
58.595 13.347102
58.600 14.027929
58.605 14.030456
58.610 14.254314
58.615 14.437132
58.620 14.962737
58.625 15.023291
58.630 14.672724
58.635 14.962698
58.640 15.446983
58.645 15.45761
58.650 15.29308
58.655 14.974929
58.660 15.153769
58.665 15.366987
58.670 15.179857
58.675 15.624686
58.680 15.583436
58.685 15.864612
58.690 16.550196
58.695 17.037062
58.700 17.01111
58.705 16.88448
58.710 16.154995
58.715 16.245443
58.720 16.109903
58.725 15.819753
58.730 15.293172
58.735 15.080467
58.740 14.656165
58.745 14.767158
58.750 14.775415
58.755 15.052021
58.760 14.965157
58.765 15.104753
58.770 15.870532
58.775 16.094578
58.780 16.33709
58.785 16.451458
58.790 16.287371
58.795 16.289007
58.800 16.802004
58.805 16.391691
58.810 16.624594
58.815 16.695353
58.820 16.452229
58.825 17.148268
58.830 17.514082
58.835 16.953131
58.840 16.40737
58.845 16.2481
58.850 16.174366
58.855 16.202579
58.860 15.26947
58.865 15.205254
58.870 15.781263
58.875 16.330231
58.880 16.333649
58.885 17.040819
58.890 17.112467
58.895 17.38839
58.900 16.867241
58.905 16.517042
58.910 16.287199
58.915 15.912638
58.920 14.858889
58.925 15.282157
58.930 15.659657
58.935 15.610237
58.940 15.215481
58.945 14.847072
58.950 14.939337
58.955 15.261878
58.960 15.057938
58.965 14.442157
58.970 14.76384
58.975 15.183695
58.980 15.334475
58.985 15.405287
58.990 15.098839
58.995 15.104651
59.000 15.479347
59.005 15.774738
59.010 16.329021
59.015 16.569466
59.020 16.286146
59.025 16.229937
59.030 16.474783
59.035 16.502275
59.040 16.440195
59.045 16.416969
59.050 16.779835
59.055 16.986322
59.060 17.167059
59.065 16.976067
59.070 17.02397
59.075 16.445471
59.080 15.996102
59.085 15.870094
59.090 16.11784
59.095 16.016115
59.100 15.735995
59.105 15.417244
59.110 16.007469
59.115 16.261959
59.120 16.287409
59.125 16.40238
59.130 16.510687
59.135 16.429016
59.140 16.392412
59.145 15.632097
59.150 15.494572
59.155 15.860839
59.160 15.52421
59.165 15.64797
59.170 15.883584
59.175 16.495047
59.180 16.514679
59.185 16.213625
59.190 15.672016
59.195 15.704518
59.200 15.425801
59.205 15.224627
59.210 15.119206
59.215 15.064529
59.220 14.720184
59.225 15.103971
59.230 15.189614
59.235 15.656869
59.240 16.146006
59.245 16.147972
59.250 16.592205
59.255 16.694994
59.260 17.200317
59.265 17.565493
59.270 17.132971
59.275 16.934919
59.280 16.736637
59.285 16.990734
59.290 17.251776
59.295 16.838978
59.300 16.899042
59.305 16.682631
59.310 16.577526
59.315 16.398867
59.320 15.713849
59.325 15.586737
59.330 15.465812
59.335 15.690182
59.340 15.913805
59.345 15.874823
59.350 15.90473
59.355 15.931089
59.360 15.990687
59.365 16.090212
59.370 15.66284
59.375 15.789702
59.380 15.874875
59.385 16.166748
59.390 16.715666
59.395 16.657021
59.400 16.279779
59.405 16.610287
59.410 16.884157
59.415 17.142159
59.420 17.185354
59.425 16.519554
59.430 16.663902
59.435 16.482737
59.440 16.087551
59.445 15.869246
59.450 15.901243
59.455 15.774823
59.460 16.048573
59.465 15.647041
59.470 15.694714
59.475 15.692262
59.480 15.588184
59.485 15.728098
59.490 15.501874
59.495 15.35254
59.500 15.734194
59.505 16.451097
59.510 17.018435
59.515 17.264479
59.520 17.400959
59.525 17.763903
59.530 17.978621
59.535 17.875937
59.540 17.642197
59.545 16.966164
59.550 16.607414
59.555 16.901215
59.560 16.600054
59.565 16.40094
59.570 16.078846
59.575 15.685279
59.580 15.937491
59.585 15.666122
59.590 15.215519
59.595 15.126024
59.600 15.162562
59.605 15.758791
59.610 15.422433
59.615 15.432214
59.620 15.800743
59.625 15.906918
59.630 16.540674
59.635 16.807631
59.640 16.664858
59.645 16.98955
59.650 16.929291
59.655 16.67881
59.660 16.640404
59.665 16.895374
59.670 16.678398
59.675 16.80641
59.680 17.034956
59.685 17.466518
59.690 18.141161
59.695 18.153717
59.700 18.014248
59.705 18.417307
59.710 18.132792
59.715 18.293402
59.720 18.153042
59.725 17.56855
59.730 17.556627
59.735 17.727718
59.740 17.637022
59.745 17.678907
59.750 17.420847
59.755 17.642715
59.760 18.194201
59.765 17.929722
59.770 17.821085
59.775 18.112465
59.780 18.435019
59.785 18.167555
59.790 17.82395
59.795 17.696836
59.800 17.456625
59.805 17.336124
59.810 16.993223
59.815 17.326494
59.820 17.698614
59.825 17.816351
59.830 17.981819
59.835 18.214617
59.840 18.325949
59.845 18.419605
59.850 18.144646
59.855 18.532412
59.860 17.955587
59.865 17.265699
59.870 17.150604
59.875 17.65337
59.880 18.066519
59.885 18.091442
59.890 18.123991
59.895 19.012247
59.900 19.436058
59.905 19.569422
59.910 19.6915
59.915 19.654478
59.920 19.83671
59.925 19.841568
59.930 20.036535
59.935 20.698078
59.940 20.562
59.945 19.927832
59.950 19.546482
59.955 19.328476
59.960 19.181805
59.965 19.285275
59.970 19.046242
59.975 19.293575
59.980 20.038443
59.985 19.998245
59.990 20.133074
59.995 19.678732
60.000 19.596333
60.005 19.969002
60.010 20.105349
60.015 20.052658
60.020 20.504848
60.025 20.656542
60.030 21.477261
60.035 21.032089
60.040 20.748276
60.045 20.809309
60.050 21.181231
60.055 22.185568
60.060 22.419992
60.065 22.028284
60.070 22.235325
60.075 22.220995
60.080 21.828979
60.085 21.859898
60.090 20.472494
60.095 20.174078
60.100 20.74345
60.105 21.47035
60.110 21.927753
60.115 21.543056
60.120 20.767479
60.125 21.049398
60.130 20.497763
60.135 20.466669
60.140 20.246738
60.145 19.831406
60.150 20.451849
60.155 20.661388
60.160 20.902199
60.165 21.499531
60.170 21.516068
60.175 21.187466
60.180 21.668833
60.185 21.675394
60.190 22.143497
60.195 22.076479
60.200 21.804817
60.205 21.473551
60.210 21.28133
60.215 20.497074
60.220 19.968626
60.225 19.421156
60.230 20.083195
60.235 20.846416
60.240 21.192089
60.245 21.56525
60.250 22.317131
60.255 23.263346
60.260 23.471205
60.265 22.556328
60.270 21.7069
60.275 21.629608
60.280 21.917852
60.285 21.613174
60.290 21.613028
60.295 21.21319
60.300 21.230909
60.305 21.242615
60.310 21.327976
60.315 21.594549
60.320 21.402802
60.325 21.410065
60.330 21.751842
60.335 22.001379
60.340 22.324873
60.345 22.613716
60.350 22.354067
60.355 22.340916
60.360 21.764744
60.365 21.619839
60.370 21.760241
60.375 21.514036
60.380 20.727129
60.385 19.862297
60.390 20.026661
60.395 20.775488
60.400 20.677975
60.405 20.177471
60.410 19.817019
60.415 20.12932
60.420 20.870068
60.425 20.764374
60.430 20.045486
60.435 19.781816
60.440 19.843828
60.445 19.544065
60.450 19.282393
60.455 19.226452
60.460 18.998558
60.465 19.455381
60.470 20.166477
60.475 20.891857
60.480 21.192692
60.485 21.455442
60.490 21.581387
60.495 21.65501
60.500 21.187878
60.505 20.775631
60.510 20.206135
60.515 20.244095
60.520 19.378878
60.525 18.739519
60.530 18.592716
60.535 18.253864
60.540 18.231358
60.545 18.129601
60.550 17.866812
60.555 18.432915
60.560 18.517244
60.565 18.493332
60.570 18.590557
60.575 18.910126
60.580 19.093468
60.585 19.733103
60.590 19.974876
60.595 21.035143
60.600 21.94195
60.605 22.340548
60.610 21.955606
60.615 22.220354
60.620 21.991667
60.625 21.663717
60.630 21.001593
60.635 20.452789
60.640 19.533733
60.645 18.919567
60.650 17.913179
60.655 17.416039
60.660 17.299931
60.665 17.241625
60.670 17.843191
60.675 18.681562
60.680 19.298998
60.685 19.94241
60.690 20.117899
60.695 20.060976
60.700 19.832413
60.705 19.584396
60.710 20.021738
60.715 20.171864
60.720 19.589939
60.725 19.062098
60.730 19.11231
60.735 19.0382
60.740 18.740866
60.745 17.560369
60.750 17.029501
60.755 17.327202
60.760 17.835718
60.765 18.070665
60.770 17.993864
60.775 17.449604
60.780 17.569263
60.785 17.5308
60.790 17.152617
60.795 17.544491
60.800 17.584118
60.805 17.589127
60.810 18.068661
60.815 17.73304
60.820 17.755327
60.825 18.098392
60.830 17.781349
60.835 17.314651
60.840 17.588278
60.845 17.527912
60.850 17.911251
60.855 18.428343
60.860 18.699352
60.865 18.623545
60.870 18.865662
60.875 18.457045
60.880 19.160431
60.885 19.585857
60.890 19.60111
60.895 19.208685
60.900 19.304388
60.905 19.005806
60.910 19.378656
60.915 19.139349
60.920 18.256975
60.925 17.606758
60.930 17.159142
60.935 17.044638
60.940 17.077349
60.945 16.523472
60.950 16.465952
60.955 17.603317
60.960 17.764862
60.965 18.406481
60.970 18.689816
60.975 18.659212
60.980 18.71228
60.985 18.659576
60.990 18.344433
60.995 18.689993
61.000 18.828611
61.005 18.273506
61.010 18.215006
61.015 18.223375
61.020 18.143631
61.025 17.119949
61.030 16.957396
61.035 17.070282
61.040 17.681635
61.045 17.883684
61.050 17.511518
61.055 16.935596
61.060 17.338593
61.065 17.226536
61.070 16.667913
61.075 15.81736
61.080 15.347671
61.085 15.467333
61.090 16.053759
61.095 16.279236
61.100 15.764884
61.105 15.698683
61.110 16.226002
61.115 16.898193
61.120 17.255831
61.125 17.143553
61.130 17.012939
61.135 17.343443
61.140 17.539528
61.145 17.05711
61.150 16.555447
61.155 16.752819
61.160 17.008856
61.165 16.893862
61.170 16.9746
61.175 16.770752
61.180 16.828253
61.185 16.562143
61.190 15.793102
61.195 15.975769
61.200 16.440165
61.205 16.55764
61.210 16.653404
61.215 16.856676
61.220 16.859922
61.225 17.32711
61.230 17.383215
61.235 17.073139
61.240 16.866423
61.245 17.095814
61.250 17.425299
61.255 17.914873
61.260 18.244404
61.265 18.151098
61.270 18.505358
61.275 18.338684
61.280 17.997169
61.285 17.470554
61.290 17.818756
61.295 17.69968
61.300 17.107632
61.305 17.170906
61.310 17.264151
61.315 17.942505
61.320 18.559549
61.325 17.86408
61.330 17.444611
61.335 17.716324
61.340 17.454189
61.345 17.563925
61.350 17.347895
61.355 16.818474
61.360 16.820028
61.365 16.712799
61.370 16.470373
61.375 16.601093
61.380 16.778584
61.385 17.002523
61.390 16.980618
61.395 16.954607
61.400 17.447508
61.405 17.255196
61.410 16.828335
61.415 16.951439
61.420 17.17565
61.425 17.877941
61.430 17.918894
61.435 17.944593
61.440 17.559708
61.445 17.906128
61.450 17.500921
61.455 17.250208
61.460 17.234632
61.465 17.142746
61.470 16.844702
61.475 16.843449
61.480 16.406933
61.485 16.350307
61.490 15.964917
61.495 15.585113
61.500 15.341487
61.505 15.496271
61.510 15.869354
61.515 15.593142
61.520 15.924832
61.525 16.457268
61.530 17.153141
61.535 17.797501
61.540 18.114912
61.545 18.281574
61.550 18.956106
61.555 19.15567
61.560 18.84947
61.565 18.341509
61.570 17.915407
61.575 18.044266
61.580 17.851486
61.585 17.223743
61.590 17.018385
61.595 16.987413
61.600 16.976694
61.605 17.024492
61.610 17.040308
61.615 17.603199
61.620 17.726736
61.625 16.853523
61.630 16.388117
61.635 16.035585
61.640 15.981574
61.645 15.577481
61.650 14.920509
61.655 15.373096
61.660 15.939219
61.665 16.269815
61.670 16.680059
61.675 16.844782
61.680 16.617775
61.685 17.053242
61.690 17.147619
61.695 17.094402
61.700 16.719877
61.705 16.570431
61.710 16.442122
61.715 17.176664
61.720 16.948414
61.725 16.673647
61.730 16.787325
61.735 16.845903
61.740 16.696604
61.745 16.255375
61.750 15.891116
61.755 16.045511
61.760 15.912208
61.765 15.727999
61.770 15.774634
61.775 15.795276
61.780 15.552369
61.785 14.981309
61.790 14.645906
61.795 14.916088
61.800 15.352747
61.805 15.622197
61.810 15.969986
61.815 16.456095
61.820 17.329018
61.825 17.656691
61.830 17.226851
61.835 16.909233
61.840 16.606184
61.845 16.341116
61.850 15.538207
61.855 15.309275
61.860 15.334557
61.865 15.779274
61.870 16.373493
61.875 16.48962
61.880 16.872311
61.885 17.454689
61.890 18.613117
61.895 18.789562
61.900 18.514042
61.905 18.547918
61.910 18.61869
61.915 18.555283
61.920 18.475204
61.925 17.47233
61.930 17.337122
61.935 17.376423
61.940 17.121098
61.945 17.13859
61.950 17.245014
61.955 17.357595
61.960 17.646408
61.965 17.393353
61.970 17.480339
61.975 17.586454
61.980 17.687254
61.985 17.808554
61.990 18.053764
61.995 17.663048
62.000 17.910799
62.005 17.846889
62.010 17.654554
62.015 17.330164
62.020 16.796993
62.025 16.147545
62.030 15.895856
62.035 16.076193
62.040 16.127422
62.045 16.253973
62.050 16.432232
62.055 16.64995
62.060 17.229046
62.065 17.846724
62.070 17.51828
62.075 17.267012
62.080 17.042189
62.085 17.25812
62.090 16.878826
62.095 16.295918
62.100 15.870852
62.105 15.532864
62.110 15.336263
62.115 15.52047
62.120 15.233945
62.125 15.361129
62.130 15.326591
62.135 15.159497
62.140 15.602861
62.145 16.395229
62.150 16.192154
62.155 16.8279
62.160 17.596436
62.165 18.757431
62.170 19.343611
62.175 19.584333
62.180 19.45109
62.185 19.440966
62.190 19.080694
62.195 18.609507
62.200 17.536188
62.205 17.152531
62.210 16.607767
62.215 16.515652
62.220 16.481655
62.225 16.498817
62.230 16.144915
62.235 16.216927
62.240 16.576982
62.245 16.742466
62.250 16.790873
62.255 16.7332
62.260 16.355663
62.265 16.402002
62.270 16.551956
62.275 15.976597
62.280 16.203465
62.285 16.581261
62.290 16.692093
62.295 17.044283
62.300 17.165794
62.305 16.805229
62.310 17.366837
62.315 16.811125
62.320 16.462889
62.325 16.72883
62.330 17.361362
62.335 17.116646
62.340 17.09096
62.345 16.955797
62.350 16.921663
62.355 16.97337
62.360 16.703512
62.365 16.353865
62.370 16.355061
62.375 15.691772
62.380 15.143206
62.385 15.195794
62.390 15.118527
62.395 14.781546
62.400 14.427382
62.405 14.756373
62.410 15.491917
62.415 16.402296
62.420 17.014881
62.425 17.0168
62.430 17.507641
62.435 17.926205
62.440 18.291718
62.445 18.353617
62.450 18.574791
62.455 18.728811
62.460 18.726702
62.465 17.898563
62.470 17.977198
62.475 18.304968
62.480 18.345228
62.485 17.713055
62.490 17.346148
62.495 17.392164
62.500 18.327095
62.505 17.86861
62.510 17.165213
62.515 16.983892
62.520 17.271059
62.525 17.115738
62.530 16.906622
62.535 16.575531
62.540 16.649374
62.545 17.183516
62.550 16.61146
62.555 16.194576
62.560 15.901874
62.565 15.965374
62.570 15.946656
62.575 15.696466
62.580 15.418901
62.585 16.415556
62.590 16.486649
62.595 16.960564
62.600 17.370567
62.605 17.535921
62.610 17.827635
62.615 17.531708
62.620 16.816469
62.625 16.712461
62.630 16.313604
62.635 15.998531
62.640 16.07477
62.645 16.36727
62.650 16.640324
62.655 16.709356
62.660 16.754219
62.665 16.645075
62.670 17.079062
62.675 17.478794
62.680 17.154047
62.685 16.859781
62.690 17.80221
62.695 18.78545
62.700 19.095724
62.705 18.776751
62.710 18.176529
62.715 18.327309
62.720 18.563463
62.725 17.548498
62.730 16.714533
62.735 16.47978
62.740 16.141359
62.745 16.001137
62.750 16.087475
62.755 15.780333
62.760 15.53418
62.765 15.124283
62.770 14.991872
62.775 14.966102
62.780 15.246293
62.785 15.442639
62.790 15.958557
62.795 16.744877
62.800 17.357256
62.805 17.780731
62.810 18.131496
62.815 18.018782
62.820 17.929474
62.825 18.112583
62.830 18.555979
62.835 18.500914
62.840 18.225109
62.845 17.592543
62.850 17.353449
62.855 16.835428
62.860 16.41083
62.865 15.958202
62.870 15.94868
62.875 16.354616
62.880 16.970123
62.885 17.63225
62.890 17.658318
62.895 17.111593
62.900 16.869932
62.905 16.622631
62.910 15.78846
62.915 15.021358
62.920 14.384059
62.925 14.399924
62.930 15.111469
62.935 15.610789
62.940 16.344372
62.945 17.2327
62.950 17.945105
62.955 18.128494
62.960 18.413284
62.965 18.418314
62.970 18.537024
62.975 18.010191
62.980 18.014402
62.985 18.377407
62.990 18.671165
62.995 18.433739
63.000 18.094496
63.005 17.633383
63.010 17.59771
63.015 16.966166
63.020 16.368254
63.025 16.226143
63.030 16.312113
63.035 16.347439
63.040 15.641072
63.045 15.798022
63.050 16.294622
63.055 16.23984
63.060 15.862558
63.065 16.082821
63.070 16.729706
63.075 17.323385
63.080 16.929937
63.085 16.623987
63.090 17.09729
63.095 17.108971
63.100 16.627041
63.105 16.46368
63.110 17.049051
63.115 17.709742
63.120 17.624199
63.125 17.200985
63.130 17.365505
63.135 17.743298
63.140 17.169468
63.145 17.020535
63.150 16.931955
63.155 17.117926
63.160 17.318474
63.165 17.68248
63.170 17.80517
63.175 17.9175
63.180 17.403688
63.185 16.81917
63.190 16.81628
63.195 16.958529
63.200 16.77268
63.205 16.830574
63.210 16.862658
63.215 17.161934
63.220 17.498112
63.225 17.712662
63.230 17.678684
63.235 17.332123
63.240 17.336674
63.245 16.884974
63.250 17.211508
63.255 17.374533
63.260 17.095688
63.265 16.749697
63.270 16.938292
63.275 16.967327
63.280 17.456738
63.285 17.067312
63.290 16.988407
63.295 17.379604
63.300 17.866201
63.305 17.549421
63.310 17.342999
63.315 17.87974
63.320 18.04467
63.325 17.949913
63.330 18.061676
63.335 18.520027
63.340 18.519783
63.345 17.818796
63.350 16.96607
63.355 16.844625
63.360 16.998516
63.365 16.818727
63.370 16.765759
63.375 17.815817
63.380 18.371059
63.385 18.40864
63.390 18.258873
63.395 18.221197
63.400 17.837759
63.405 17.461195
63.410 16.565151
63.415 16.239929
63.420 16.464197
63.425 16.570944
63.430 16.544779
63.435 16.602859
63.440 16.539345
63.445 16.814974
63.450 17.477797
63.455 18.168324
63.460 18.557755
63.465 18.933207
63.470 19.035769
63.475 19.061024
63.480 18.844408
63.485 18.301321
63.490 16.957375
63.495 16.192482
63.500 15.69137
63.505 15.606532
63.510 15.756968
63.515 15.622779
63.520 15.510044
63.525 16.239193
63.530 16.916122
63.535 17.024801
63.540 16.98926
63.545 16.706488
63.550 16.887577
63.555 16.765455
63.560 16.062712
63.565 15.5198
63.570 15.318208
63.575 15.218781
63.580 14.902739
63.585 14.920806
63.590 14.9856
63.595 15.138023
63.600 15.007634
63.605 15.047705
63.610 15.057279
63.615 15.474952
63.620 15.689301
63.625 15.617243
63.630 16.180691
63.635 16.49408
63.640 16.41456
63.645 16.55007
63.650 16.645662
63.655 16.507635
63.660 16.954586
63.665 16.912542
63.670 16.878391
63.675 16.982307
63.680 16.528904
63.685 16.512671
63.690 16.614023
63.695 16.48295
63.700 16.127987
63.705 16.091303
63.710 16.232353
63.715 16.873255
63.720 17.360117
63.725 17.394588
63.730 17.732824
63.735 18.249584
63.740 18.260942
63.745 18.365282
63.750 18.008577
63.755 17.904207
63.760 17.951519
63.765 17.49235
63.770 17.224728
63.775 17.062361
63.780 16.507851
63.785 16.956106
63.790 16.976368
63.795 16.999115
63.800 17.056566
63.805 16.880524
63.810 16.960762
63.815 17.08745
63.820 17.007854
63.825 16.425007
63.830 16.294346
63.835 16.293734
63.840 16.921471
63.845 17.614618
63.850 17.862764
63.855 18.020746
63.860 18.225248
63.865 18.514172
63.870 18.302006
63.875 17.740736
63.880 17.583744
63.885 17.272738
63.890 17.024393
63.895 16.814079
63.900 16.511192
63.905 17.185863
63.910 17.638599
63.915 17.798483
63.920 18.506451
63.925 18.268497
63.930 18.353281
63.935 18.735884
63.940 18.155457
63.945 18.040564
63.950 18.258749
63.955 18.188028
63.960 18.400406
63.965 18.603662
63.970 18.288971
63.975 18.183571
63.980 18.486015
63.985 18.201368
63.990 18.27508
63.995 18.500437
64.000 18.490776
64.005 18.080524
64.010 18.69968
64.015 18.664986
64.020 18.475731
64.025 18.417568
64.030 18.659422
64.035 19.032482
64.040 19.631002
64.045 19.408979
64.050 19.342836
64.055 18.916965
64.060 19.195051
64.065 18.96932
64.070 18.845243
64.075 18.816008
64.080 19.093657
64.085 18.819023
64.090 19.118885
64.095 18.704771
64.100 18.173367
64.105 18.377895
64.110 18.958334
64.115 18.648336
64.120 18.623308
64.125 18.371469
64.130 18.611431
64.135 18.967316
64.140 18.057669
64.145 17.587597
64.150 17.427029
64.155 17.589203
64.160 17.973223
64.165 17.723808
64.170 17.92914
64.175 18.447674
64.180 18.764013
64.185 18.888891
64.190 18.411703
64.195 18.347012
64.200 18.686415
64.205 18.734291
64.210 18.589684
64.215 18.172825
64.220 18.655087
64.225 19.266752
64.230 19.170626
64.235 18.657698
64.240 18.648653
64.245 18.799883
64.250 18.915136
64.255 18.60236
64.260 18.046453
64.265 17.768545
64.270 17.287457
64.275 17.328829
64.280 17.218849
64.285 17.107445
64.290 16.51672
64.295 16.603569
64.300 17.193167
64.305 17.500393
64.310 17.372883
64.315 17.675945
64.320 17.534285
64.325 18.014429
64.330 18.107027
64.335 17.793787
64.340 18.171694
64.345 18.486816
64.350 18.209776
64.355 18.449484
64.360 18.742874
64.365 18.71751
64.370 18.739824
64.375 18.116571
64.380 17.650517
64.385 18.361839
64.390 18.57015
64.395 18.270323
64.400 18.317148
64.405 18.575838
64.410 18.869371
64.415 18.571583
64.420 17.923733
64.425 18.351126
64.430 18.701818
64.435 18.404543
64.440 18.764061
64.445 19.449284
64.450 19.732998
64.455 20.180822
64.460 19.861351
64.465 19.635103
64.470 19.594696
64.475 18.863811
64.480 18.819687
64.485 18.843184
64.490 18.574114
64.495 18.785032
64.500 19.865463
64.505 20.840708
64.510 21.393177
64.515 21.826557
64.520 21.988548
64.525 21.42882
64.530 20.859983
64.535 20.637802
64.540 20.545246
64.545 20.271
64.550 19.564728
64.555 19.695784
64.560 20.248644
64.565 20.201019
64.570 19.777798
64.575 19.20336
64.580 19.440493
64.585 20.020918
64.590 19.710991
64.595 19.520733
64.600 19.110121
64.605 18.308422
64.610 18.131182
64.615 17.834654
64.620 17.116276
64.625 16.882458
64.630 17.264511
64.635 18.020882
64.640 19.138998
64.645 18.992741
64.650 18.661148
64.655 19.055014
64.660 18.971317
64.665 18.536674
64.670 18.29459
64.675 18.200129
64.680 18.529387
64.685 18.645075
64.690 18.513784
64.695 18.491547
64.700 18.735538
64.705 18.754524
64.710 18.7759
64.715 19.020231
64.720 19.00499
64.725 19.862049
64.730 20.304983
64.735 20.096462
64.740 19.971142
64.745 19.921871
64.750 19.770559
64.755 19.719252
64.760 18.850542
64.765 18.655363
64.770 18.571478
64.775 18.175087
64.780 18.163458
64.785 18.094139
64.790 18.589548
64.795 19.285496
64.800 19.833927
64.805 19.791344
64.810 20.464731
64.815 20.683239
64.820 20.84631
64.825 20.466581
64.830 19.941246
64.835 19.810247
64.840 20.246416
64.845 19.905727
64.850 19.983101
64.855 19.762354
64.860 20.04525
64.865 20.230141
64.870 20.306313
64.875 19.828049
64.880 19.390015
64.885 19.120451
64.890 19.081118
64.895 18.934235
64.900 19.552948
64.905 19.90704
64.910 20.490877
64.915 21.310566
64.920 21.543322
64.925 21.607204
64.930 21.833912
64.935 21.522383
64.940 21.596502
64.945 21.429798
64.950 20.905146
64.955 21.37257
64.960 21.545227
64.965 21.351564
64.970 20.955637
64.975 20.714762
64.980 20.834953
64.985 20.851156
64.990 21.268566
64.995 21.852964
65.000 22.169916
65.005 22.701897
65.010 23.031769
65.015 23.134352
65.020 23.367165
65.025 22.815943
65.030 22.777897
65.035 23.093328
65.040 23.04427
65.045 23.707596
65.050 24.739382
65.055 24.800629
65.060 24.429438
65.065 23.050102
65.070 22.340715
65.075 21.764482
65.080 20.407755
65.085 19.31624
65.090 18.674782
65.095 19.152592
65.100 19.453602
65.105 19.397839
65.110 19.304167
65.115 19.182268
65.120 19.471889
65.125 20.236633
65.130 20.216211
65.135 21.120802
65.140 21.952892
65.145 22.995291
65.150 23.718908
65.155 24.025007
65.160 23.599642
65.165 23.791338
65.170 23.668097
65.175 23.250338
65.180 23.019033
65.185 22.944
65.190 22.667
65.195 22.83173
65.200 22.770987
65.205 22.506203
65.210 22.671391
65.215 22.789347
65.220 22.708523
65.225 22.856783
65.230 22.914953
65.235 22.619703
65.240 22.689697
65.245 22.332279
65.250 22.175489
65.255 22.30324
65.260 22.719467
65.265 22.540571
65.270 22.796461
65.275 22.625504
65.280 22.601402
65.285 22.75956
65.290 22.840446
65.295 22.3337
65.300 22.662725
65.305 23.173162
65.310 23.997274
65.315 23.816164
65.320 23.927025
65.325 23.392731
65.330 23.297501
65.335 22.910006
65.340 22.984446
65.345 22.843107
65.350 22.507145
65.355 21.741043
65.360 21.747301
65.365 22.587591
65.370 23.327124
65.375 22.871605
65.380 22.813931
65.385 23.293943
65.390 23.777668
65.395 24.174726
65.400 23.960863
65.405 24.314358
65.410 24.600815
65.415 25.062605
65.420 25.262041
65.425 25.489756
65.430 25.801348
65.435 25.818106
65.440 25.552374
65.445 25.463652
65.450 25.218494
65.455 25.11552
65.460 24.965517
65.465 24.182755
65.470 23.828358
65.475 23.232426
65.480 23.130087
65.485 22.665787
65.490 22.701597
65.495 22.338894
65.500 22.412355
65.505 22.313219
65.510 23.146383
65.515 23.338079
65.520 23.688059
65.525 24.538576
65.530 26.049534
65.535 26.505341
65.540 26.992176
65.545 27.048714
65.550 27.670517
65.555 27.907463
65.560 27.751314
65.565 27.10619
65.570 27.478951
65.575 27.857738
65.580 28.25927
65.585 28.354656
65.590 28.123034
65.595 28.282179
65.600 28.809931
65.605 29.319374
65.610 29.181591
65.615 28.536535
65.620 28.676485
65.625 29.301401
65.630 29.458511
65.635 29.583511
65.640 28.988623
65.645 29.913359
65.650 31.205605
65.655 31.261078
65.660 31.428873
65.665 31.341623
65.670 31.066151
65.675 31.748978
65.680 32.309261
65.685 32.620621
65.690 33.731529
65.695 34.132931
65.700 34.397034
65.705 34.956306
65.710 34.730854
65.715 34.333698
65.720 34.607769
65.725 34.386639
65.730 34.563568
65.735 34.882504
65.740 34.677368
65.745 35.335972
65.750 34.9221
65.755 34.430725
65.760 34.378334
65.765 34.726139
65.770 35.382851
65.775 35.665058
65.780 35.797588
65.785 35.862358
65.790 36.048016
65.795 36.303371
65.800 35.700562
65.805 35.566463
65.810 35.925915
65.815 35.6455
65.820 36.516315
65.825 36.710281
65.830 37.016903
65.835 37.515633
65.840 37.745277
65.845 38.245605
65.850 38.816509
65.855 38.159111
65.860 38.202171
65.865 37.739361
65.870 37.807026
65.875 37.666855
65.880 37.680096
65.885 38.255562
65.890 38.662102
65.895 38.568058
65.900 38.804688
65.905 39.110722
65.910 38.41127
65.915 38.282864
65.920 37.971836
65.925 37.964718
65.930 38.516457
65.935 38.642982
65.940 38.712822
65.945 38.6563
65.950 38.099262
65.955 37.351463
65.960 36.74498
65.965 35.638935
65.970 35.719475
65.975 34.961235
65.980 34.826714
65.985 34.577904
65.990 35.259773
65.995 35.380047
66.000 35.248512
66.005 35.820877
66.010 36.077618
66.015 36.298546
66.020 36.663528
66.025 36.323074
66.030 36.591663
66.035 37.451206
66.040 36.750111
66.045 36.70948
66.050 36.371643
66.055 35.797237
66.060 36.205044
66.065 36.108681
66.070 35.89222
66.075 36.774574
66.080 37.117134
66.085 36.896454
66.090 36.648323
66.095 36.329666
66.100 36.433666
66.105 35.283943
66.110 34.881485
66.115 34.963219
66.120 35.743305
66.125 36.337032
66.130 36.050209
66.135 36.323601
66.140 37.297066
66.145 37.466362
66.150 37.749931
66.155 37.278614
66.160 37.539024
66.165 37.61647
66.170 36.761398
66.175 36.039452
66.180 35.49025
66.185 35.661087
66.190 35.584045
66.195 34.621269
66.200 34.974518
66.205 35.757072
66.210 36.097721
66.215 35.656811
66.220 34.779896
66.225 35.064545
66.230 34.835793
66.235 34.543259
66.240 34.491787
66.245 33.7225
66.250 33.517887
66.255 33.977474
66.260 34.371521
66.265 34.873531
66.270 34.48468
66.275 34.040413
66.280 34.796997
66.285 34.68515
66.290 34.473858
66.295 33.74036
66.300 32.98576
66.305 33.248699
66.310 33.299553
66.315 32.67112
66.320 32.552826
66.325 32.864395
66.330 33.536175
66.335 34.18277
66.340 33.763527
66.345 33.585773
66.350 33.919407
66.355 34.649826
66.360 34.32523
66.365 33.280968
66.370 32.836269
66.375 32.275257
66.380 31.695034
66.385 31.760191
66.390 31.623072
66.395 31.244337
66.400 31.529369
66.405 31.304775
66.410 30.771162
66.415 30.552689
66.420 29.764347
66.425 28.859861
66.430 28.009083
66.435 27.430933
66.440 27.387241
66.445 27.782309
66.450 27.629032
66.455 27.646444
66.460 27.427195
66.465 27.547653
66.470 27.077883
66.475 26.69002
66.480 26.9223
66.485 26.725254
66.490 27.227627
66.495 27.548923
66.500 28.252047
66.505 28.592659
66.510 28.737755
66.515 28.546247
66.520 28.630337
66.525 28.147333
66.530 27.63154
66.535 27.680025
66.540 28.157164
66.545 27.7428
66.550 27.835983
66.555 28.10037
66.560 28.174496
66.565 28.138962
66.570 28.10972
66.575 28.154322
66.580 28.210449
66.585 27.745134
66.590 27.643011
66.595 27.716366
66.600 27.940872
66.605 27.4445
66.610 27.037642
66.615 27.262037
66.620 26.684502
66.625 26.410927
66.630 26.277731
66.635 26.428354
66.640 26.411638
66.645 26.198475
66.650 25.941616
66.655 26.848143
66.660 26.469421
66.665 25.6348
66.670 24.646626
66.675 24.687582
66.680 25.295305
66.685 24.890368
66.690 23.952494
66.695 23.288301
66.700 23.75732
66.705 24.072571
66.710 23.344528
66.715 22.493002
66.720 22.98918
66.725 23.022835
66.730 23.591127
66.735 23.405867
66.740 23.989342
66.745 24.066282
66.750 24.267469
66.755 23.895731
66.760 24.535894
66.765 24.726377
66.770 24.89855
66.775 24.650139
66.780 25.352072
66.785 25.345169
66.790 25.473949
66.795 24.640316
66.800 24.438906
66.805 24.592085
66.810 24.974609
66.815 24.789335
66.820 25.076077
66.825 24.596621
66.830 24.432938
66.835 24.118427
66.840 24.221935
66.845 24.257029
66.850 23.955046
66.855 23.575611
66.860 23.695887
66.865 23.549772
66.870 23.511295
66.875 22.616566
66.880 22.004499
66.885 22.48348
66.890 22.744661
66.895 22.929373
66.900 23.220673
66.905 23.313789
66.910 23.609459
66.915 23.611788
66.920 23.381144
66.925 23.678886
66.930 23.833199
66.935 23.940453
66.940 24.216919
66.945 23.857792
66.950 23.925026
66.955 23.037788
66.960 22.744877
66.965 22.318514
66.970 21.921009
66.975 21.923946
66.980 22.124386
66.985 21.81086
66.990 22.151167
66.995 21.569214
67.000 21.885677
67.005 22.383724
67.010 22.458017
67.015 22.665728
67.020 23.274458
67.025 23.822618
67.030 24.329668
67.035 24.179821
67.040 24.112148
67.045 23.926311
67.050 23.694874
67.055 23.443321
67.060 23.362156
67.065 23.196854
67.070 22.806082
67.075 22.199669
67.080 21.441437
67.085 20.865347
67.090 20.603605
67.095 20.77145
67.100 21.045589
67.105 21.260866
67.110 22.106411
67.115 22.640642
67.120 23.344482
67.125 23.2994
67.130 23.303743
67.135 23.19668
67.140 22.937229
67.145 22.470224
67.150 22.508759
67.155 22.757095
67.160 22.738817
67.165 22.376183
67.170 22.12698
67.175 22.110386
67.180 22.289459
67.185 21.601803
67.190 21.041033
67.195 21.119761
67.200 20.858408
67.205 21.110573
67.210 21.354872
67.215 21.663961
67.220 22.14785
67.225 22.663931
67.230 22.633396
67.235 22.928488
67.240 22.816854
67.245 22.353456
67.250 21.973927
67.255 21.981184
67.260 21.924042
67.265 21.938358
67.270 21.818678
67.275 21.874256
67.280 22.282251
67.285 22.217169
67.290 22.301935
67.295 21.986507
67.300 21.640129
67.305 21.627565
67.310 21.914968
67.315 22.134075
67.320 22.566267
67.325 22.20298
67.330 22.275526
67.335 22.183239
67.340 21.703959
67.345 21.573215
67.350 20.914927
67.355 21.306324
67.360 21.271328
67.365 20.982677
67.370 20.963638
67.375 20.924221
67.380 20.897757
67.385 20.89711
67.390 20.321924
67.395 20.46384
67.400 20.947874
67.405 21.568342
67.410 21.571802
67.415 21.146919
67.420 20.297323
67.425 20.482046
67.430 21.308784
67.435 21.202581
67.440 21.23189
67.445 21.265844
67.450 21.469704
67.455 21.996853
67.460 21.360476
67.465 20.706873
67.470 20.74464
67.475 20.652946
67.480 20.756666
67.485 21.699492
67.490 21.582546
67.495 21.653694
67.500 21.636135
67.505 21.274918
67.510 21.685194
67.515 21.801538
67.520 21.357101
67.525 21.444706
67.530 22.114136
67.535 22.64176
67.540 22.540895
67.545 22.441412
67.550 22.160353
67.555 21.829176
67.560 21.7945
67.565 21.005154
67.570 20.560091
67.575 20.612993
67.580 20.82015
67.585 20.884342
67.590 21.283487
67.595 21.330685
67.600 21.894995
67.605 21.877831
67.610 21.912777
67.615 21.696354
67.620 22.496887
67.625 22.874397
67.630 23.552156
67.635 23.066654
67.640 22.781437
67.645 22.828312
67.650 22.604387
67.655 21.899485
67.660 21.359346
67.665 21.125399
67.670 21.40675
67.675 21.545874
67.680 21.702717
67.685 22.08919
67.690 22.431108
67.695 22.497948
67.700 21.770252
67.705 21.669512
67.710 22.375797
67.715 22.492954
67.720 22.050713
67.725 21.709747
67.730 21.906399
67.735 21.88335
67.740 21.284351
67.745 20.892
67.750 20.359108
67.755 20.523699
67.760 20.537024
67.765 20.562214
67.770 20.826176
67.775 21.170118
67.780 21.209404
67.785 21.895988
67.790 22.057356
67.795 21.482292
67.800 20.948946
67.805 21.141077
67.810 20.596445
67.815 20.137917
67.820 19.960775
67.825 19.843784
67.830 20.443569
67.835 20.256334
67.840 19.956743
67.845 20.135471
67.850 20.302029
67.855 20.039558
67.860 19.528439
67.865 19.374792
67.870 19.520966
67.875 19.779232
67.880 20.146793
67.885 19.890249
67.890 20.369295
67.895 20.556179
67.900 20.482437
67.905 21.071747
67.910 21.346411
67.915 21.200373
67.920 21.198366
67.925 21.092825
67.930 21.712416
67.935 22.076529
67.940 22.16448
67.945 22.097757
67.950 22.505148
67.955 22.063963
67.960 21.628237
67.965 21.215456
67.970 20.925196
67.975 21.064161
67.980 21.474995
67.985 21.535259
67.990 21.485992
67.995 21.516378
68.000 21.845198
68.005 21.98897
68.010 21.529596
68.015 20.614304
68.020 20.702513
68.025 20.904104
68.030 21.088308
68.035 21.162418
68.040 20.897457
68.045 21.318748
68.050 20.81459
68.055 20.518251
68.060 20.387417
68.065 20.435938
68.070 20.405706
68.075 20.392393
68.080 19.932837
68.085 20.736639
68.090 21.002663
68.095 21.25502
68.100 20.412706
68.105 20.865538
68.110 20.905926
68.115 20.886539
68.120 20.310085
68.125 20.184107
68.130 20.197845
68.135 21.202728
68.140 21.118258
68.145 21.010696
68.150 21.84222
68.155 21.983446
68.160 21.894283
68.165 22.208469
68.170 21.832775
68.175 21.509789
68.180 21.051359
68.185 20.756432
68.190 20.955788
68.195 21.341825
68.200 20.808832
68.205 20.242987
68.210 20.027548
68.215 19.740143
68.220 19.624308
68.225 19.839018
68.230 20.016098
68.235 19.895462
68.240 20.060698
68.245 20.735994
68.250 20.886276
68.255 20.797709
68.260 20.679976
68.265 20.463448
68.270 20.645523
68.275 20.666328
68.280 20.610258
68.285 20.935076
68.290 20.487223
68.295 20.231514
68.300 20.477997
68.305 20.485926
68.310 20.093983
68.315 20.00176
68.320 19.969944
68.325 20.051832
68.330 19.643995
68.335 19.54496
68.340 19.905182
68.345 20.703375
68.350 20.603304
68.355 20.800823
68.360 21.033991
68.365 20.939167
68.370 20.517519
68.375 19.930759
68.380 19.80353
68.385 20.376041
68.390 20.729233
68.395 21.043058
68.400 20.792685
68.405 21.488205
68.410 21.819527
68.415 21.432756
68.420 20.639479
68.425 20.864759
68.430 20.533737
68.435 20.566519
68.440 19.891056
68.445 19.661001
68.450 20.064226
68.455 20.114897
68.460 19.535559
68.465 20.158918
68.470 20.511513
68.475 20.854536
68.480 21.149548
68.485 20.772226
68.490 21.134478
68.495 21.839548
68.500 21.665253
68.505 22.073021
68.510 22.33213
68.515 22.552872
68.520 22.219885
68.525 21.894817
68.530 21.140179
68.535 20.487469
68.540 20.083181
68.545 19.531565
68.550 19.483835
68.555 19.918964
68.560 19.370583
68.565 19.303127
68.570 20.29781
68.575 20.950432
68.580 20.818611
68.585 21.05789
68.590 21.178282
68.595 21.727678
68.600 21.367037
68.605 20.684782
68.610 20.690222
68.615 20.787971
68.620 20.22439
68.625 20.289944
68.630 20.686995
68.635 20.871546
68.640 20.746519
68.645 20.685167
68.650 20.649773
68.655 20.392118
68.660 19.930222
68.665 20.174692
68.670 21.098482
68.675 20.952225
68.680 20.512667
68.685 20.703354
68.690 21.41573
68.695 22.223133
68.700 22.096003
68.705 21.842548
68.710 21.86128
68.715 22.119669
68.720 22.328152
68.725 22.020554
68.730 21.154789
68.735 20.547462
68.740 20.918852
68.745 21.225664
68.750 21.051653
68.755 20.821953
68.760 21.005249
68.765 22.030251
68.770 22.295294
68.775 22.141256
68.780 21.966831
68.785 22.260199
68.790 22.802713
68.795 22.249432
68.800 22.069309
68.805 22.365646
68.810 22.459915
68.815 22.912754
68.820 22.753685
68.825 22.756338
68.830 23.555677
68.835 23.447403
68.840 23.438402
68.845 22.704826
68.850 22.743792
68.855 22.544399
68.860 22.213717
68.865 21.995674
68.870 22.339293
68.875 21.747755
68.880 21.826647
68.885 21.551943
68.890 21.90836
68.895 22.722639
68.900 22.906672
68.905 22.704386
68.910 23.097569
68.915 23.207392
68.920 23.453886
68.925 23.132067
68.930 22.60244
68.935 22.13558
68.940 22.345858
68.945 22.75757
68.950 23.34573
68.955 23.152702
68.960 23.195314
68.965 23.519346
68.970 23.513803
68.975 23.896858
68.980 23.49564
68.985 23.391701
68.990 23.638897
68.995 23.801783
69.000 23.998056
69.005 24.000683
69.010 23.331421
69.015 23.679668
69.020 22.769272
69.025 22.617828
69.030 22.385193
69.035 22.09038
69.040 21.827404
69.045 22.243446
69.050 22.558317
69.055 23.193489
69.060 22.995863
69.065 22.833145
69.070 22.605347
69.075 22.787336
69.080 22.949663
69.085 23.28117
69.090 23.713913
69.095 24.359381
69.100 25.394321
69.105 25.465185
69.110 25.95409
69.115 26.105001
69.120 26.359457
69.125 26.236057
69.130 26.089367
69.135 25.321249
69.140 25.577522
69.145 25.374281
69.150 24.773922
69.155 24.54925
69.160 24.307928
69.165 23.983929
69.170 24.136789
69.175 24.426764
69.180 25.218983
69.185 25.628677
69.190 25.664734
69.195 25.935022
69.200 26.008648
69.205 26.861418
69.210 26.670031
69.215 25.618956
69.220 25.582592
69.225 26.076014
69.230 26.925783
69.235 27.809162
69.240 28.307238
69.245 28.947708
69.250 29.390245
69.255 28.990839
69.260 28.718122
69.265 28.321224
69.270 27.844679
69.275 26.973246
69.280 26.170368
69.285 25.858404
69.290 25.956909
69.295 25.976902
69.300 25.980272
69.305 26.279078
69.310 26.66464
69.315 27.344416
69.320 27.859745
69.325 27.74308
69.330 27.851917
69.335 27.326548
69.340 26.887651
69.345 27.406612
69.350 27.943741
69.355 28.178734
69.360 27.559885
69.365 27.674084
69.370 28.390032
69.375 28.975718
69.380 29.086355
69.385 28.673048
69.390 28.946493
69.395 29.591032
69.400 29.610979
69.405 29.152411
69.410 28.553661
69.415 28.897579
69.420 28.559511
69.425 28.6054
69.430 28.761862
69.435 29.160284
69.440 29.308332
69.445 28.609777
69.450 28.440041
69.455 28.915529
69.460 28.705551
69.465 28.480742
69.470 28.042471
69.475 28.137589
69.480 27.800167
69.485 27.467167
69.490 27.064016
69.495 27.126493
69.500 26.900574
69.505 26.69957
69.510 27.22257
69.515 27.735069
69.520 28.071047
69.525 28.135208
69.530 27.878012
69.535 28.635244
69.540 28.822519
69.545 28.872015
69.550 29.047733
69.555 29.035204
69.560 29.322912
69.565 29.427574
69.570 28.731781
69.575 28.594109
69.580 28.243069
69.585 28.322926
69.590 28.676853
69.595 28.78269
69.600 28.905869
69.605 28.91449
69.610 28.860367
69.615 28.965643
69.620 29.246988
69.625 28.412697
69.630 28.696514
69.635 28.696728
69.640 29.233398
69.645 29.588356
69.650 29.759193
69.655 29.246597
69.660 29.381798
69.665 29.351789
69.670 29.582094
69.675 29.49687
69.680 28.98159
69.685 28.844423
69.690 28.298605
69.695 27.953096
69.700 27.450724
69.705 26.776525
69.710 25.980927
69.715 25.556774
69.720 25.550972
69.725 25.98303
69.730 26.31222
69.735 26.230873
69.740 26.310982
69.745 26.891855
69.750 26.739878
69.755 26.27635
69.760 26.207064
69.765 26.329676
69.770 26.338261
69.775 26.41011
69.780 27.183624
69.785 27.843338
69.790 28.290276
69.795 28.224228
69.800 27.763992
69.805 27.709873
69.810 27.301517
69.815 25.925093
69.820 25.166426
69.825 25.183771
69.830 24.959301
69.835 25.442362
69.840 25.689825
69.845 25.859795
69.850 26.121258
69.855 25.562553
69.860 24.807669
69.865 24.458263
69.870 23.735199
69.875 23.30479
69.880 23.623558
69.885 23.947258
69.890 24.37829
69.895 23.775433
69.900 23.73279
69.905 23.082098
69.910 22.886541
69.915 21.938629
69.920 22.300259
69.925 22.641422
69.930 22.91102
69.935 22.819035
69.940 23.367493
69.945 23.078575
69.950 23.311377
69.955 22.845564
69.960 22.527359
69.965 22.891541
69.970 22.992643
69.975 22.610012
69.980 22.793823
69.985 22.898279
69.990 23.173515
69.995 22.744709
70.000 22.458214
70.005 22.305784
70.010 22.454605
70.015 22.536888
70.020 21.838617
70.025 21.734838
70.030 21.970104
70.035 22.749111
70.040 23.216793
70.045 23.488522
70.050 23.346895
70.055 23.102854
70.060 22.559837
70.065 22.27709
70.070 21.290827
70.075 21.858789
70.080 21.344673
70.085 21.625654
70.090 21.992905
70.095 22.223507
70.100 22.648886
70.105 22.854542
70.110 21.871515
70.115 21.94022
70.120 22.194347
70.125 22.422329
70.130 22.208384
70.135 21.875065
70.140 21.623655
70.145 21.948004
70.150 21.724134
70.155 21.492636
70.160 21.626598
70.165 21.289833
70.170 21.730904
70.175 21.896944
70.180 21.973261
70.185 22.000538
70.190 22.012901
70.195 21.848469
70.200 21.753149
70.205 21.566225
70.210 21.655443
70.215 21.334055
70.220 21.079247
70.225 21.416824
70.230 21.439039
70.235 22.101973
70.240 21.906086
70.245 22.034512
70.250 22.802778
70.255 23.162277
70.260 23.006481
70.265 22.72316
70.270 21.739481
70.275 21.616648
70.280 21.399229
70.285 20.924774
70.290 20.165939
70.295 19.913177
70.300 20.709032
70.305 21.147484
70.310 20.968321
70.315 21.182688
70.320 21.136036
70.325 20.826962
70.330 20.1975
70.335 19.396078
70.340 19.115143
70.345 19.116013
70.350 19.246937
70.355 19.467695
70.360 20.055479
70.365 21.052698
70.370 21.395792
70.375 21.29587
70.380 21.492476
70.385 20.958199
70.390 20.761578
70.395 20.836056
70.400 20.41683
70.405 19.924225
70.410 20.381554
70.415 19.961716
70.420 20.342976
70.425 20.717197
70.430 20.357412
70.435 20.488106
70.440 20.733591
70.445 19.735758
70.450 19.843987
70.455 19.439098
70.460 18.508326
70.465 18.889233
70.470 18.655785
70.475 19.564287
70.480 20.413378
70.485 20.833519
70.490 20.98278
70.495 21.546808
70.500 21.563377
70.505 21.815907
70.510 20.814178
70.515 20.566893
70.520 20.267277
70.525 20.29862
70.530 20.40377
70.535 20.195616
70.540 20.13088
70.545 20.150637
70.550 20.189137
70.555 20.669611
70.560 20.505062
70.565 19.923605
70.570 19.276073
70.575 19.038748
70.580 19.117775
70.585 18.868481
70.590 18.525303
70.595 18.898273
70.600 19.684975
70.605 20.388123
70.610 20.707441
70.615 20.606049
70.620 20.746992
70.625 20.849102
70.630 20.379293
70.635 19.820709
70.640 19.625092
70.645 19.969061
70.650 20.083494
70.655 19.536545
70.660 19.2283
70.665 19.05401
70.670 19.414875
70.675 19.204933
70.680 18.680368
70.685 18.902515
70.690 19.171581
70.695 19.996195
70.700 20.556337
70.705 20.896675
70.710 21.018419
70.715 20.961184
70.720 20.753038
70.725 20.691576
70.730 20.502943
70.735 20.153952
70.740 19.884018
70.745 19.925035
70.750 19.932585
70.755 20.627626
70.760 20.8589
70.765 20.581856
70.770 20.531849
70.775 20.240366
70.780 20.120983
70.785 19.670877
70.790 19.207155
70.795 18.377424
70.800 18.435753
70.805 18.261362
70.810 18.458939
70.815 18.288929
70.820 18.494654
70.825 18.62241
70.830 18.883053
70.835 19.12385
70.840 19.383944
70.845 19.933338
70.850 20.285145
70.855 19.750141
70.860 20.216702
70.865 20.119453
70.870 19.322519
70.875 18.859997
70.880 18.131311
70.885 18.259396
70.890 18.81209
70.895 18.126675
70.900 18.342714
70.905 18.384842
70.910 18.318756
70.915 18.123102
70.920 17.884495
70.925 17.760105
70.930 18.888275
70.935 19.167727
70.940 19.381268
70.945 19.333904
70.950 19.708664
70.955 19.245449
70.960 19.565102
70.965 19.241718
70.970 19.211691
70.975 19.494253
70.980 20.160456
70.985 20.434898
70.990 20.730593
70.995 19.448929
71.000 18.679741
71.005 19.15448
71.010 19.247599
71.015 19.083498
71.020 19.295885
71.025 19.302347
71.030 19.602551
71.035 20.293058
71.040 19.913206
71.045 19.444302
71.050 19.281345
71.055 19.494154
71.060 19.557384
71.065 18.931187
71.070 18.386444
71.075 18.394949
71.080 19.014292
71.085 18.954662
71.090 18.770267
71.095 19.072542
71.100 19.552881
71.105 19.688885
71.110 19.521164
71.115 19.106161
71.120 19.23741
71.125 19.476068
71.130 19.39592
71.135 19.066668
71.140 18.315536
71.145 17.813971
71.150 17.565926
71.155 17.285723
71.160 16.670622
71.165 17.195156
71.170 18.25667
71.175 19.114927
71.180 19.594723
71.185 19.447577
71.190 19.678457
71.195 20.19338
71.200 19.629925
71.205 19.708302
71.210 19.587744
71.215 19.73069
71.220 19.833483
71.225 19.524965
71.230 19.466909
71.235 18.950375
71.240 17.943634
71.245 17.800589
71.250 17.380733
71.255 17.155174
71.260 17.476219
71.265 17.732738
71.270 17.864285
71.275 17.98015
71.280 18.139219
71.285 18.461884
71.290 18.72477
71.295 18.337667
71.300 18.375673
71.305 19.040609
71.310 19.593788
71.315 19.674917
71.320 19.614717
71.325 19.806799
71.330 19.542009
71.335 19.794605
71.340 19.70756
71.345 19.462011
71.350 19.334518
71.355 19.549999
71.360 19.70072
71.365 19.751442
71.370 19.100266
71.375 18.845472
71.380 18.896475
71.385 18.747431
71.390 18.406364
71.395 18.783226
71.400 18.309109
71.405 18.021191
71.410 18.182823
71.415 18.22747
71.420 18.93465
71.425 18.731083
71.430 18.470209
71.435 18.78594
71.440 19.261375
71.445 18.91774
71.450 18.962505
71.455 18.53001
71.460 18.690977
71.465 18.907515
71.470 18.44244
71.475 18.048185
71.480 18.289478
71.485 18.416597
71.490 17.925373
71.495 17.521641
71.500 17.657276
71.505 17.42914
71.510 17.339649
71.515 17.844379
71.520 17.858004
71.525 18.539227
71.530 18.490953
71.535 18.389244
71.540 18.338923
71.545 17.687906
71.550 16.888708
71.555 16.356483
71.560 16.163443
71.565 16.692804
71.570 16.893217
71.575 17.290358
71.580 18.143568
71.585 18.145555
71.590 18.123314
71.595 18.37101
71.600 18.013676
71.605 17.831633
71.610 17.344889
71.615 16.961054
71.620 17.743214
71.625 18.152296
71.630 17.931097
71.635 18.137939
71.640 18.650949
71.645 19.439589
71.650 19.324587
71.655 19.036398
71.660 19.103495
71.665 19.435789
71.670 19.432707
71.675 19.872868
71.680 19.327471
71.685 19.272923
71.690 19.590868
71.695 19.369671
71.700 18.925524
71.705 18.289696
71.710 17.728825
71.715 17.932615
71.720 17.74229
71.725 16.826338
71.730 16.65827
71.735 16.755835
71.740 17.257317
71.745 17.208904
71.750 17.39694
71.755 17.811815
71.760 18.455442
71.765 18.321699
71.770 18.3002
71.775 18.478844
71.780 19.106936
71.785 18.569237
71.790 18.431717
71.795 18.915058
71.800 19.407536
71.805 19.269653
71.810 19.434614
71.815 19.216469
71.820 19.160337
71.825 18.942055
71.830 18.325167
71.835 18.713743
71.840 19.676247
71.845 19.32056
71.850 19.385164
71.855 19.843328
71.860 20.691189
71.865 20.760597
71.870 20.297863
71.875 20.075102
71.880 20.306318
71.885 20.686344
71.890 20.509855
71.895 19.822529
71.900 19.339754
71.905 19.129156
71.910 18.674698
71.915 18.882162
71.920 18.762526
71.925 18.645512
71.930 19.236343
71.935 19.513268
71.940 19.383337
71.945 19.014322
71.950 18.560257
71.955 18.367495
71.960 18.310577
71.965 18.332762
71.970 18.623085
71.975 18.821009
71.980 19.433344
71.985 19.924669
71.990 19.895336
71.995 19.475506
72.000 19.460934
72.005 19.451597
72.010 19.468451
72.015 19.302523
72.020 18.96785
72.025 18.939445
72.030 19.011271
72.035 18.554955
72.040 18.458094
72.045 18.442701
72.050 18.278049
72.055 18.309113
72.060 18.675436
72.065 18.912107
72.070 18.900906
72.075 18.254128
72.080 17.731571
72.085 17.865999
72.090 18.029535
72.095 17.515396
72.100 17.291031
72.105 17.70302
72.110 17.900406
72.115 17.595522
72.120 17.827213
72.125 17.332783
72.130 17.242498
72.135 17.581348
72.140 17.500916
72.145 17.689825
72.150 17.653505
72.155 17.534077
72.160 18.127392
72.165 18.609692
72.170 18.284792
72.175 18.835352
72.180 18.716467
72.185 18.839863
72.190 18.761637
72.195 18.703159
72.200 18.540213
72.205 18.227747
72.210 18.631443
72.215 18.848368
72.220 18.73457
72.225 18.405228
72.230 18.230423
72.235 18.667416
72.240 18.830008
72.245 18.804121
72.250 18.853548
72.255 19.383978
72.260 19.209953
72.265 19.478714
72.270 19.365126
72.275 19.436773
72.280 19.343006
72.285 19.184896
72.290 19.291647
72.295 19.664085
72.300 20.008493
72.305 19.91769
72.310 20.240112
72.315 19.813339
72.320 19.395395
72.325 18.817789
72.330 18.911299
72.335 18.372982
72.340 17.864712
72.345 17.32197
72.350 17.665916
72.355 17.896084
72.360 17.992666
72.365 17.813848
72.370 18.06543
72.375 17.746326
72.380 17.793493
72.385 17.696331
72.390 17.674446
72.395 17.910917
72.400 17.687374
72.405 17.4158
72.410 17.804581
72.415 18.305925
72.420 18.32147
72.425 18.035521
72.430 17.832575
72.435 18.357771
72.440 18.834074
72.445 19.290152
72.450 18.814465
72.455 19.131948
72.460 20.023338
72.465 19.921009
72.470 19.788467
72.475 19.43965
72.480 18.690821
72.485 18.787731
72.490 18.557253
72.495 18.39093
72.500 18.583628
72.505 18.006952
72.510 17.780998
72.515 17.937319
72.520 18.413208
72.525 18.211832
72.530 17.859697
72.535 18.117054
72.540 18.788662
72.545 19.324266
72.550 19.115154
72.555 19.62834
72.560 19.567417
72.565 19.420757
72.570 19.651052
72.575 19.682983
72.580 19.559196
72.585 19.860081
72.590 19.660519
72.595 19.277016
72.600 18.877554
72.605 18.331923
72.610 17.929138
72.615 17.916401
72.620 17.820322
72.625 17.784037
72.630 17.741631
72.635 17.731918
72.640 17.318727
72.645 16.934925
72.650 16.834263
72.655 16.447056
72.660 16.163689
72.665 15.959128
72.670 16.995455
72.675 17.064121
72.680 17.350428
72.685 17.283548
72.690 17.527464
72.695 18.201784
72.700 18.261473
72.705 17.638737
72.710 17.618858
72.715 17.422535
72.720 17.582672
72.725 17.231518
72.730 17.395914
72.735 17.719181
72.740 17.85037
72.745 18.406805
72.750 18.205269
72.755 17.846909
72.760 17.862606
72.765 17.521896
72.770 17.530497
72.775 17.709318
72.780 17.754152
72.785 17.927578
72.790 17.813965
72.795 17.272228
72.800 17.508024
72.805 17.609159
72.810 17.905008
72.815 17.775293
72.820 17.937376
72.825 17.89403
72.830 17.981155
72.835 18.168833
72.840 18.014162
72.845 17.925507
72.850 18.317719
72.855 18.451756
72.860 18.43013
72.865 18.06731
72.870 17.847397
72.875 17.424843
72.880 17.062923
72.885 16.960251
72.890 16.630661
72.895 16.799967
72.900 16.66964
72.905 16.592554
72.910 17.052376
72.915 16.807356
72.920 16.527214
72.925 17.248634
72.930 17.27915
72.935 16.977077
72.940 16.313841
72.945 16.098852
72.950 16.092516
72.955 16.069191
72.960 15.7525
72.965 15.991652
72.970 16.165909
72.975 16.818348
72.980 17.210207
72.985 17.329418
72.990 17.384424
72.995 17.315342
73.000 17.394434
