!@!!GADDS PLOTSO FILE: Chi integration type
!@!!Title/SampleName: map-139
!@!!Comment: ?
!@!!User: Bruker Instrument Administrator
!@!!Site: University of Illinois Chicago
!@!!Frame: map-139_01_000.gfrm
!@!!Wavelengths    1.54184   1.54056   1.54439
!@!!Frame angles: 2Theta: 63.000 Omega: 50.000 Phi: 0.000 Chi: 90.000
!@!!Integration range: 2Theta: 53.000 to 73.000  Gamma: -105.000 to -75.000
!@!!Integration method: bin normalized
!@!N
!@!SS
!@!M
!@!L 0.0 0.0 0.0 0.0
!@!XDegrees
!@!YCounts
53.000 7.88818
53.005 7.947059
53.010 7.461148
53.015 7.368165
53.020 7.269742
53.025 7.121017
53.030 7.079623
53.035 6.943905
53.040 7.07813
53.045 7.267684
53.050 7.528568
53.055 7.55106
53.060 7.689203
53.065 7.982192
53.070 7.877361
53.075 7.756371
53.080 7.702452
53.085 7.631609
53.090 7.411102
53.095 7.240123
53.100 7.300493
53.105 7.675873
53.110 7.742441
53.115 7.554672
53.120 7.644614
53.125 8.093084
53.130 8.241036
53.135 8.38547
53.140 8.36506
53.145 8.476234
53.150 8.510246
53.155 8.570169
53.160 8.48015
53.165 8.153883
53.170 8.117203
53.175 8.286932
53.180 8.184652
53.185 8.375652
53.190 8.73837
53.195 8.979813
53.200 8.739728
53.205 8.141482
53.210 7.882513
53.215 7.971763
53.220 7.982452
53.225 7.730391
53.230 7.996628
53.235 8.040012
53.240 7.901907
53.245 7.513824
53.250 7.495002
53.255 7.218213
53.260 6.99639
53.265 7.093806
53.270 7.464612
53.275 8.023253
53.280 8.677967
53.285 8.631304
53.290 8.919244
53.295 9.106214
53.300 9.05576
53.305 9.099795
53.310 9.001158
53.315 8.977599
53.320 9.132687
53.325 8.992077
53.330 8.721333
53.335 8.472829
53.340 8.226912
53.345 7.837528
53.350 7.645358
53.355 7.658236
53.360 7.497953
53.365 7.692111
53.370 8.057645
53.375 8.072494
53.380 8.600516
53.385 8.94088
53.390 8.885485
53.395 8.970528
53.400 8.611153
53.405 8.525957
53.410 8.656835
53.415 8.29679
53.420 8.35745
53.425 8.385312
53.430 8.50816
53.435 8.776139
53.440 8.820922
53.445 8.81487
53.450 8.649278
53.455 8.548012
53.460 8.300203
53.465 8.165215
53.470 7.560461
53.475 7.380818
53.480 7.069024
53.485 6.788713
53.490 6.789659
53.495 7.193685
53.500 7.613956
53.505 8.195807
53.510 8.568626
53.515 8.641444
53.520 8.430235
53.525 8.175691
53.530 7.911931
53.535 7.858396
53.540 7.647573
53.545 7.637334
53.550 7.945425
53.555 8.490853
53.560 8.650655
53.565 9.256948
53.570 9.355895
53.575 9.324955
53.580 9.704144
53.585 9.773439
53.590 9.529109
53.595 9.316465
53.600 9.407147
53.605 9.596255
53.610 9.605239
53.615 9.361803
53.620 9.537914
53.625 9.590865
53.630 9.507533
53.635 9.307952
53.640 9.306985
53.645 9.209033
53.650 9.033811
53.655 9.291583
53.660 9.062263
53.665 8.726868
53.670 8.556794
53.675 8.542321
53.680 8.548209
53.685 8.563348
53.690 8.757298
53.695 8.916327
53.700 9.099763
53.705 8.978423
53.710 8.676009
53.715 8.667646
53.720 8.84859
53.725 8.698692
53.730 8.727906
53.735 8.272366
53.740 8.303431
53.745 9.068104
53.750 9.182894
53.755 8.696684
53.760 8.445396
53.765 8.504346
53.770 8.621256
53.775 7.962942
53.780 7.121943
53.785 6.959639
53.790 7.047709
53.795 7.425128
53.800 7.404449
53.805 7.622196
53.810 8.360934
53.815 8.710126
53.820 8.581375
53.825 8.433751
53.830 8.542132
53.835 8.769835
53.840 8.73593
53.845 8.467944
53.850 8.586715
53.855 8.891725
53.860 8.901998
53.865 8.410582
53.870 8.43879
53.875 8.737449
53.880 8.948248
53.885 8.536393
53.890 8.26515
53.895 8.959641
53.900 9.664474
53.905 9.910908
53.910 9.352716
53.915 9.663197
53.920 10.156291
53.925 10.231118
53.930 9.887533
53.935 9.567301
53.940 8.822145
53.945 9.11469
53.950 8.77719
53.955 8.602395
53.960 8.452551
53.965 8.146002
53.970 8.548824
53.975 8.973349
53.980 8.521111
53.985 8.664322
53.990 8.721106
53.995 9.07528
54.000 8.964326
54.005 8.547181
54.010 8.788469
54.015 8.801431
54.020 8.642584
54.025 8.673808
54.030 8.909256
54.035 9.442816
54.040 9.401017
54.045 9.310112
54.050 9.550054
54.055 9.554125
54.060 9.439183
54.065 9.177481
54.070 9.094814
54.075 9.442414
54.080 9.839606
54.085 10.22875
54.090 10.246857
54.095 10.113044
54.100 9.942369
54.105 9.758937
54.110 9.497559
54.115 9.490957
54.120 9.092612
54.125 9.001441
54.130 9.321856
54.135 9.220712
54.140 9.136014
54.145 9.140135
54.150 9.162516
54.155 9.825789
54.160 9.617861
54.165 9.700275
54.170 9.944107
54.175 10.250283
54.180 10.463263
54.185 10.201823
54.190 10.162286
54.195 10.206462
54.200 10.172326
54.205 10.194101
54.210 9.187026
54.215 8.633346
54.220 8.629695
54.225 8.749085
54.230 8.994036
54.235 8.996315
54.240 8.888359
54.245 9.622926
54.250 10.242889
54.255 9.849182
54.260 9.590131
54.265 9.24472
54.270 9.687946
54.275 9.900454
54.280 10.031334
54.285 9.950913
54.290 10.163628
54.295 10.153498
54.300 10.210413
54.305 9.790045
54.310 9.282025
54.315 8.924246
54.320 8.762132
54.325 8.793063
54.330 8.96183
54.335 8.865918
54.340 9.311904
54.345 9.570632
54.350 9.728583
54.355 9.698678
54.360 9.549283
54.365 9.507974
54.370 9.928535
54.375 9.564527
54.380 9.89866
54.385 10.029527
54.390 10.052341
54.395 10.380468
54.400 10.282846
54.405 10.205498
54.410 10.359178
54.415 9.642754
54.420 9.201632
54.425 9.000457
54.430 8.808656
54.435 9.061324
54.440 9.193352
54.445 9.263111
54.450 9.660203
54.455 9.958352
54.460 10.210427
54.465 9.908936
54.470 9.479365
54.475 9.004816
54.480 8.96635
54.485 9.185612
54.490 9.419407
54.495 9.399973
54.500 9.533149
54.505 9.746862
54.510 9.965417
54.515 9.811498
54.520 9.786236
54.525 9.892316
54.530 10.026555
54.535 10.188846
54.540 10.047462
54.545 9.676734
54.550 9.909255
54.555 9.777244
54.560 9.87157
54.565 9.748287
54.570 9.816175
54.575 9.973814
54.580 10.389212
54.585 10.07598
54.590 9.651147
54.595 9.119111
54.600 8.896614
54.605 8.881063
54.610 9.245351
54.615 9.2812
54.620 10.043531
54.625 10.255981
54.630 10.418037
54.635 10.080733
54.640 10.101275
54.645 10.079316
54.650 9.698428
54.655 9.165008
54.660 9.245601
54.665 9.44606
54.670 9.948658
54.675 9.412677
54.680 9.31197
54.685 9.545149
54.690 9.63051
54.695 9.563941
54.700 9.246138
54.705 8.9639
54.710 8.91176
54.715 8.813062
54.720 8.583705
54.725 8.591382
54.730 8.728075
54.735 9.018448
54.740 9.417539
54.745 9.634746
54.750 9.410502
54.755 9.153013
54.760 8.922036
54.765 9.246678
54.770 9.279915
54.775 8.887887
54.780 8.645188
54.785 8.525319
54.790 8.862296
54.795 8.826556
54.800 8.382278
54.805 8.199709
54.810 8.572593
54.815 8.980779
54.820 9.277863
54.825 9.260279
54.830 9.718128
54.835 10.007762
54.840 10.341578
54.845 10.485917
54.850 10.558064
54.855 10.780615
54.860 11.03725
54.865 10.98387
54.870 10.894089
54.875 10.96509
54.880 11.722661
54.885 11.382271
54.890 11.625311
54.895 11.572193
54.900 11.740417
54.905 11.674596
54.910 10.967406
54.915 10.045248
54.920 9.996179
54.925 8.896115
54.930 8.648474
54.935 8.790302
54.940 8.802787
54.945 8.997244
54.950 9.604685
54.955 9.824083
54.960 10.471183
54.965 10.432754
54.970 10.532701
54.975 10.578958
54.980 10.585333
54.985 10.640461
54.990 10.674607
54.995 10.233802
55.000 9.857069
55.005 9.627912
55.010 9.805355
55.015 9.632579
55.020 9.121606
55.025 9.268174
55.030 9.383407
55.035 9.579206
55.040 9.524577
55.045 9.333622
55.050 9.4805
55.055 10.119291
55.060 10.320498
55.065 10.466801
55.070 10.084625
55.075 9.964605
55.080 10.131834
55.085 9.974563
55.090 9.758184
55.095 9.50841
55.100 9.487837
55.105 10.000267
55.110 10.269354
55.115 10.863829
55.120 10.84525
55.125 10.885453
55.130 11.254716
55.135 11.324904
55.140 11.452414
55.145 11.201979
55.150 10.956001
55.155 11.287744
55.160 10.958802
55.165 11.036992
55.170 11.339453
55.175 11.34579
55.180 11.6097
55.185 11.197322
55.190 11.194174
55.195 10.85149
55.200 10.530642
55.205 9.882158
55.210 9.569308
55.215 9.226177
55.220 9.120741
55.225 9.043194
55.230 9.351103
55.235 9.367723
55.240 9.50916
55.245 9.352717
55.250 9.738573
55.255 9.801263
55.260 9.929239
55.265 10.352377
55.270 10.783492
55.275 10.995314
55.280 11.365298
55.285 11.058971
55.290 11.109739
55.295 10.938976
55.300 10.316875
55.305 10.315068
55.310 10.269261
55.315 10.227406
55.320 10.47211
55.325 10.183597
55.330 10.024222
55.335 10.241391
55.340 10.287096
55.345 10.533254
55.350 10.566107
55.355 10.275413
55.360 10.452952
55.365 10.526061
55.370 10.204374
55.375 10.046529
55.380 10.229677
55.385 10.399935
55.390 10.688921
55.395 10.845142
55.400 11.058064
55.405 11.284
55.410 11.41504
55.415 11.062755
55.420 11.12821
55.425 10.838472
55.430 10.852034
55.435 11.083012
55.440 11.492696
55.445 11.097773
55.450 11.092158
55.455 11.30062
55.460 11.172848
55.465 10.953249
55.470 10.42599
55.475 10.679594
55.480 11.285462
55.485 10.902806
55.490 10.757375
55.495 10.91203
55.500 11.347805
55.505 12.036612
55.510 11.590272
55.515 11.227437
55.520 11.368879
55.525 11.485773
55.530 11.080586
55.535 10.282755
55.540 9.612226
55.545 9.375906
55.550 10.052639
55.555 9.843684
55.560 10.413552
55.565 11.178527
55.570 11.962171
55.575 12.215243
55.580 12.651886
55.585 12.552276
55.590 12.610517
55.595 12.349676
55.600 12.357384
55.605 12.177621
55.610 12.094814
55.615 11.652349
55.620 11.299567
55.625 10.867431
55.630 10.443316
55.635 10.07527
55.640 10.083442
55.645 9.613626
55.650 9.049128
55.655 9.071278
55.660 9.609073
55.665 9.583927
55.670 9.504997
55.675 9.388474
55.680 9.636293
55.685 10.135615
55.690 10.2335
55.695 9.946963
55.700 10.168723
55.705 10.285403
55.710 10.412639
55.715 10.545645
55.720 10.811697
55.725 11.050424
55.730 11.110206
55.735 10.835176
55.740 11.024531
55.745 11.191503
55.750 11.568233
55.755 11.098499
55.760 10.783051
55.765 10.750719
55.770 10.837327
55.775 10.206104
55.780 9.985497
55.785 9.791391
55.790 10.303272
55.795 10.77663
55.800 10.960018
55.805 10.905492
55.810 11.336364
55.815 11.372887
55.820 11.581839
55.825 11.372258
55.830 11.1612
55.835 11.768488
55.840 12.098844
55.845 12.104481
55.850 12.25148
55.855 11.949215
55.860 11.736854
55.865 11.566534
55.870 10.975376
55.875 10.954778
55.880 11.237092
55.885 11.505109
55.890 11.722446
55.895 12.00356
55.900 11.8862
55.905 11.851825
55.910 12.134112
55.915 11.323908
55.920 11.04093
55.925 11.156336
55.930 11.052484
55.935 11.599469
55.940 11.717844
55.945 11.819295
55.950 12.150668
55.955 12.155157
55.960 12.183907
55.965 11.760555
55.970 11.285959
55.975 10.909979
55.980 10.417096
55.985 10.654746
55.990 10.665301
55.995 10.896252
56.000 11.248238
56.005 10.902674
56.010 11.122235
56.015 11.284407
56.020 11.025498
56.025 10.68806
56.030 10.706738
56.035 10.873043
56.040 10.985825
56.045 10.724509
56.050 10.326631
56.055 10.569208
56.060 11.004954
56.065 10.754691
56.070 11.010762
56.075 11.155105
56.080 11.299067
56.085 11.598642
56.090 11.51822
56.095 11.233897
56.100 11.080351
56.105 10.583561
56.110 10.736195
56.115 11.051252
56.120 11.09982
56.125 10.982217
56.130 11.07698
56.135 11.031629
56.140 11.043197
56.145 10.298411
56.150 9.796538
56.155 9.894222
56.160 9.801312
56.165 10.001131
56.170 10.458313
56.175 11.029823
56.180 11.453479
56.185 11.97582
56.190 12.112922
56.195 11.992358
56.200 12.086954
56.205 12.221562
56.210 11.873053
56.215 12.022467
56.220 11.403012
56.225 11.381222
56.230 11.897304
56.235 11.816133
56.240 11.850721
56.245 12.018375
56.250 11.910171
56.255 11.930671
56.260 11.765404
56.265 11.559844
56.270 12.016738
56.275 12.028922
56.280 11.816771
56.285 12.033653
56.290 12.105338
56.295 12.259093
56.300 11.95276
56.305 11.316228
56.310 11.296772
56.315 11.512539
56.320 11.412398
56.325 12.147308
56.330 12.159239
56.335 12.074917
56.340 12.266125
56.345 12.336999
56.350 11.922328
56.355 11.755464
56.360 11.184436
56.365 10.962155
56.370 10.885956
56.375 10.960935
56.380 10.32929
56.385 10.867149
56.390 10.782772
56.395 10.417604
56.400 10.489534
56.405 10.557304
56.410 10.581352
56.415 10.987719
56.420 11.037102
56.425 10.983209
56.430 11.72114
56.435 11.543531
56.440 11.66146
56.445 11.679888
56.450 11.973284
56.455 12.116262
56.460 12.355434
56.465 11.965963
56.470 12.004737
56.475 11.985803
56.480 11.924305
56.485 11.456967
56.490 11.887124
56.495 12.24182
56.500 12.114556
56.505 12.153671
56.510 12.063075
56.515 12.184179
56.520 12.514905
56.525 11.865296
56.530 12.006168
56.535 12.463599
56.540 12.264642
56.545 12.633185
56.550 12.323853
56.555 12.45368
56.560 12.851019
56.565 12.404312
56.570 12.592995
56.575 12.749191
56.580 12.656335
56.585 12.739753
56.590 12.290535
56.595 12.849399
56.600 12.921459
56.605 12.583185
56.610 12.25769
56.615 12.246536
56.620 12.399477
56.625 12.281322
56.630 11.143292
56.635 11.341971
56.640 11.869278
56.645 11.916529
56.650 12.234
56.655 12.457051
56.660 12.093945
56.665 12.108482
56.670 12.043031
56.675 12.262144
56.680 12.062107
56.685 11.56455
56.690 11.495781
56.695 11.788694
56.700 11.964187
56.705 11.810168
56.710 11.40593
56.715 11.946035
56.720 12.28786
56.725 12.357949
56.730 12.854916
56.735 13.377399
56.740 13.359709
56.745 13.789015
56.750 13.730699
56.755 13.768218
56.760 13.827145
56.765 13.092208
56.770 12.714695
56.775 12.775438
56.780 12.614327
56.785 12.623019
56.790 12.368631
56.795 12.143347
56.800 12.835442
56.805 12.710559
56.810 12.657933
56.815 12.601738
56.820 12.418802
56.825 12.413005
56.830 12.229061
56.835 12.661136
56.840 13.17683
56.845 12.881919
56.850 12.88599
56.855 13.334866
56.860 13.612365
56.865 13.832895
56.870 13.219462
56.875 12.710642
56.880 12.706701
56.885 12.721928
56.890 12.452023
56.895 12.514981
56.900 12.413939
56.905 12.328957
56.910 12.61284
56.915 12.880143
56.920 12.592711
56.925 12.092574
56.930 11.986129
56.935 11.408384
56.940 11.761281
56.945 11.751647
56.950 11.67848
56.955 11.865516
56.960 12.002968
56.965 12.221652
56.970 12.928232
56.975 12.745478
56.980 12.737137
56.985 12.971186
56.990 13.273786
56.995 13.465178
57.000 13.43869
57.005 12.762914
57.010 12.491824
57.015 12.554307
57.020 12.348135
57.025 11.880852
57.030 11.670648
57.035 11.852739
57.040 11.970206
57.045 11.544469
57.050 11.417135
57.055 11.493939
57.060 11.567565
57.065 11.956177
57.070 11.848015
57.075 12.348768
57.080 12.644779
57.085 12.466115
57.090 11.866949
57.095 11.913665
57.100 12.03687
57.105 11.559461
57.110 11.087412
57.115 10.796305
57.120 10.6144
57.125 10.75601
57.130 10.633725
57.135 10.388622
57.140 10.615472
57.145 11.009933
57.150 11.848543
57.155 12.274041
57.160 12.740559
57.165 12.837787
57.170 12.917809
57.175 13.480106
57.180 13.205317
57.185 12.919721
57.190 12.6108
57.195 12.662722
57.200 12.432005
57.205 12.237612
57.210 11.866879
57.215 11.569424
57.220 11.352499
57.225 11.89507
57.230 11.98351
57.235 12.143775
57.240 12.295558
57.245 12.707166
57.250 13.174146
57.255 13.260679
57.260 13.037231
57.265 12.826882
57.270 12.577203
57.275 12.723779
57.280 13.107052
57.285 12.73982
57.290 12.905066
57.295 12.849665
57.300 13.217651
57.305 13.124322
57.310 12.597003
57.315 12.674286
57.320 13.052798
57.325 13.000212
57.330 12.901506
57.335 12.690233
57.340 12.909967
57.345 12.675868
57.350 11.799884
57.355 11.738395
57.360 11.256689
57.365 11.072048
57.370 10.914417
57.375 11.187738
57.380 11.61914
57.385 11.72664
57.390 12.048671
57.395 12.32569
57.400 12.181809
57.405 12.382095
57.410 12.074381
57.415 12.126805
57.420 12.261602
57.425 12.093636
57.430 11.966808
57.435 12.219648
57.440 12.487203
57.445 12.592891
57.450 12.419979
57.455 12.348101
57.460 12.032028
57.465 12.581851
57.470 12.667847
57.475 12.6422
57.480 13.153239
57.485 13.156152
57.490 13.534707
57.495 14.129606
57.500 13.230257
57.505 12.797603
57.510 12.388206
57.515 11.901328
57.520 11.491613
57.525 10.532454
57.530 10.12776
57.535 10.199348
57.540 10.338497
57.545 10.503747
57.550 10.893691
57.555 11.558764
57.560 12.502232
57.565 13.114328
57.570 13.781331
57.575 14.285239
57.580 14.463346
57.585 14.202173
57.590 14.322216
57.595 13.855913
57.600 14.055872
57.605 14.312963
57.610 14.156868
57.615 13.855773
57.620 14.100313
57.625 13.942681
57.630 14.796353
57.635 14.457382
57.640 14.269828
57.645 14.15702
57.650 14.420918
57.655 14.690929
57.660 14.636917
57.665 13.43324
57.670 12.898713
57.675 12.697417
57.680 12.622485
57.685 12.525497
57.690 12.73611
57.695 13.429426
57.700 14.167503
57.705 14.532908
57.710 14.770708
57.715 14.750868
57.720 14.714618
57.725 14.321646
57.730 14.15624
57.735 14.410823
57.740 14.768924
57.745 14.628656
57.750 14.934886
57.755 15.16715
57.760 15.572977
57.765 15.449486
57.770 14.996732
57.775 15.061065
57.780 15.104795
57.785 15.251811
57.790 14.955385
57.795 14.058382
57.800 13.709938
57.805 14.344967
57.810 14.27444
57.815 14.274416
57.820 14.673765
57.825 15.06876
57.830 15.596999
57.835 15.577129
57.840 14.966496
57.845 15.050008
57.850 14.705075
57.855 13.775569
57.860 13.596571
57.865 13.891464
57.870 14.604101
57.875 14.849386
57.880 14.548243
57.885 15.322886
57.890 15.873159
57.895 16.056885
57.900 16.328362
57.905 15.992476
57.910 15.887666
57.915 15.957786
57.920 15.685821
57.925 15.603664
57.930 15.498426
57.935 14.695388
57.940 14.621335
57.945 15.103312
57.950 14.894821
57.955 14.63813
57.960 14.381751
57.965 14.466514
57.970 14.839082
57.975 14.66503
57.980 14.284506
57.985 14.978833
57.990 15.166287
57.995 15.161858
58.000 15.174322
58.005 15.494357
58.010 15.849285
58.015 16.177048
58.020 16.367689
58.025 16.926453
58.030 17.383232
58.035 17.477768
58.040 17.004873
58.045 16.45503
58.050 16.308331
58.055 15.898257
58.060 15.400515
58.065 14.733724
58.070 14.37786
58.075 14.692337
58.080 14.553099
58.085 14.372305
58.090 14.456463
58.095 14.480517
58.100 14.541781
58.105 14.835348
58.110 15.084474
58.115 14.820493
58.120 14.616929
58.125 14.513677
58.130 14.302889
58.135 14.305245
58.140 14.40099
58.145 14.7311
58.150 15.044657
58.155 14.767262
58.160 14.399389
58.165 14.931005
58.170 15.233502
58.175 14.71244
58.180 14.091621
58.185 14.264482
58.190 15.028913
58.195 15.399021
58.200 15.434205
58.205 15.866122
58.210 16.635181
58.215 17.27046
58.220 17.348026
58.225 16.887102
58.230 16.973213
58.235 17.512232
58.240 16.971371
58.245 16.233116
58.250 15.560984
58.255 15.646915
58.260 15.843704
58.265 15.962809
58.270 15.471386
58.275 15.562149
58.280 16.564129
58.285 16.924141
58.290 16.881365
58.295 17.451256
58.300 17.428652
58.305 17.710913
58.310 17.874292
58.315 17.276083
58.320 17.91486
58.325 18.252806
58.330 17.324352
58.335 17.25259
58.340 17.189487
58.345 17.396738
58.350 17.394585
58.355 16.891306
58.360 17.010012
58.365 17.917133
58.370 18.426624
58.375 18.594175
58.380 18.503736
58.385 19.237547
58.390 19.804821
58.395 19.687378
58.400 19.652206
58.405 19.588327
58.410 19.4471
58.415 19.905804
58.420 19.715078
58.425 19.126333
58.430 20.033792
58.435 19.937626
58.440 19.881155
58.445 20.309454
58.450 20.598526
58.455 21.719007
58.460 22.635765
58.465 22.573503
58.470 23.121561
58.475 23.670853
58.480 24.247782
58.485 24.121601
58.490 24.23188
58.495 24.520885
58.500 24.951019
58.505 25.526205
58.510 25.672939
58.515 26.256565
58.520 26.602612
58.525 26.592958
58.530 26.997585
58.535 26.407007
58.540 26.612827
58.545 26.799372
58.550 26.146544
58.555 26.402512
58.560 27.351887
58.565 27.719566
58.570 28.787527
58.575 29.320572
58.580 29.477757
58.585 30.028296
58.590 30.763666
58.595 30.616468
58.600 30.584198
58.605 30.737782
58.610 30.794552
58.615 31.015535
58.620 31.17248
58.625 31.266735
58.630 31.775387
58.635 31.620518
58.640 31.544987
58.645 31.426569
58.650 32.042217
58.655 31.876665
58.660 31.815674
58.665 31.806204
58.670 32.130779
58.675 31.270485
58.680 31.01911
58.685 30.513868
58.690 30.478912
58.695 30.50234
58.700 29.93968
58.705 30.252117
58.710 30.602684
58.715 30.372953
58.720 29.818506
58.725 29.828613
58.730 29.132967
58.735 28.747974
58.740 27.706892
58.745 27.691708
58.750 27.077135
58.755 26.691519
58.760 26.538847
58.765 26.35519
58.770 26.8834
58.775 26.719955
58.780 26.012772
58.785 26.310883
58.790 26.597471
58.795 27.289335
58.800 27.435036
58.805 26.224964
58.810 26.911949
58.815 27.068914
58.820 26.897228
58.825 26.374765
58.830 24.6663
58.835 23.712646
58.840 24.052456
58.845 23.178801
58.850 23.199171
58.855 22.946644
58.860 22.832888
58.865 23.339333
58.870 23.846096
58.875 23.547192
58.880 23.240047
58.885 22.866255
58.890 22.460945
58.895 22.079309
58.900 21.810778
58.905 21.065184
58.910 20.464077
58.915 20.661591
58.920 20.678549
58.925 20.532284
58.930 20.942829
58.935 20.858009
58.940 21.109135
58.945 21.775904
58.950 21.477192
58.955 20.988415
58.960 21.200617
58.965 21.044966
58.970 20.909254
58.975 20.656036
58.980 20.058039
58.985 19.861181
58.990 19.917074
58.995 19.280554
59.000 19.059174
59.005 18.84005
59.010 18.577467
59.015 17.873123
59.020 17.544004
59.025 17.631565
59.030 17.327669
59.035 16.848259
59.040 16.515093
59.045 15.917472
59.050 16.077343
59.055 15.814779
59.060 15.669577
59.065 16.023043
59.070 15.85271
59.075 15.823551
59.080 15.464118
59.085 14.965918
59.090 15.414958
59.095 15.518048
59.100 15.240489
59.105 15.551183
59.110 15.485851
59.115 15.832878
59.120 16.23921
59.125 16.311268
59.130 16.250879
59.135 16.115631
59.140 15.826698
59.145 15.959104
59.150 16.070625
59.155 16.194069
59.160 16.034269
59.165 16.105904
59.170 16.080748
59.175 15.90274
59.180 15.273865
59.185 15.033085
59.190 14.17057
59.195 13.502443
59.200 13.431317
59.205 13.957989
59.210 14.272406
59.215 14.897136
59.220 14.826735
59.225 15.41149
59.230 15.893918
59.235 16.045052
59.240 15.859537
59.245 15.725399
59.250 16.066856
59.255 16.327623
59.260 16.0557
59.265 16.075296
59.270 15.728532
59.275 15.457901
59.280 15.371227
59.285 15.000564
59.290 15.037685
59.295 15.180388
59.300 14.766973
59.305 14.434602
59.310 15.155085
59.315 15.818975
59.320 15.833196
59.325 16.138351
59.330 16.090904
59.335 16.527559
59.340 17.159973
59.345 16.848152
59.350 16.360243
59.355 16.740633
59.360 16.877892
59.365 16.993608
59.370 16.631243
59.375 16.314079
59.380 16.243092
59.385 16.02257
59.390 15.640951
59.395 14.658899
59.400 14.470832
59.405 14.593759
59.410 14.486593
59.415 14.518909
59.420 14.944518
59.425 14.501776
59.430 15.203766
59.435 14.938605
59.440 14.98941
59.445 14.851981
59.450 14.53839
59.455 14.416055
59.460 14.996128
59.465 14.829332
59.470 15.148994
59.475 15.064149
59.480 14.637689
59.485 14.383224
59.490 14.125967
59.495 13.730042
59.500 13.821184
59.505 13.523426
59.510 13.664112
59.515 14.089365
59.520 13.94954
59.525 13.826808
59.530 14.158738
59.535 14.041132
59.540 14.031863
59.545 13.794069
59.550 13.398946
59.555 13.508651
59.560 13.337098
59.565 13.243251
59.570 13.596811
59.575 13.799503
59.580 13.788723
59.585 14.075329
59.590 14.794051
59.595 14.822606
59.600 14.272285
59.605 13.913194
59.610 13.81756
59.615 14.347486
59.620 14.388561
59.625 14.878513
59.630 15.251775
59.635 15.892493
59.640 16.067951
59.645 15.981995
59.650 15.90821
59.655 15.677194
59.660 14.789033
59.665 14.460257
59.670 14.159799
59.675 13.977772
59.680 13.404005
59.685 13.372313
59.690 13.677906
59.695 14.007995
59.700 14.348349
59.705 14.010432
59.710 14.208467
59.715 14.680655
59.720 14.429343
59.725 13.8279
59.730 13.754793
59.735 14.007177
59.740 14.968715
59.745 15.25427
59.750 15.609725
59.755 16.022339
59.760 16.353317
59.765 15.735068
59.770 14.913994
59.775 14.264283
59.780 13.915953
59.785 13.475188
59.790 13.620026
59.795 14.069125
59.800 14.505796
59.805 14.75606
59.810 14.925398
59.815 15.255497
59.820 15.492897
59.825 15.351811
59.830 14.768246
59.835 14.639962
59.840 14.948191
59.845 14.982694
59.850 14.770675
59.855 14.744091
59.860 14.405738
59.865 14.463394
59.870 14.752788
59.875 14.809102
59.880 15.608216
59.885 16.389565
59.890 16.413641
59.895 16.419123
59.900 16.682461
59.905 16.541452
59.910 15.934888
59.915 14.996304
59.920 14.755136
59.925 14.712888
59.930 14.875208
59.935 15.054303
59.940 15.129275
59.945 15.459297
59.950 15.883225
59.955 15.465137
59.960 15.795522
59.965 15.938116
59.970 15.400188
59.975 15.132488
59.980 15.048526
59.985 15.41258
59.990 15.680612
59.995 15.017876
60.000 15.274298
60.005 15.825058
60.010 16.487507
60.015 16.696486
60.020 16.145283
60.025 16.021776
60.030 16.435911
60.035 16.547079
60.040 16.044403
60.045 15.679196
60.050 15.717882
60.055 15.55837
60.060 15.193896
60.065 14.988287
60.070 14.756825
60.075 15.09138
60.080 15.035716
60.085 15.018221
60.090 15.221035
60.095 15.588
60.100 15.743801
60.105 15.66966
60.110 15.647851
60.115 15.539079
60.120 15.083749
60.125 14.711521
60.130 14.194791
60.135 14.002417
60.140 13.998899
60.145 13.780302
60.150 13.499416
60.155 13.707994
60.160 13.710835
60.165 14.147867
60.170 13.999244
60.175 14.0717
60.180 14.251998
60.185 14.604298
60.190 14.741241
60.195 14.859878
60.200 14.828495
60.205 14.663279
60.210 15.13741
60.215 15.266232
60.220 14.919395
60.225 14.676883
60.230 15.122553
60.235 15.474073
60.240 15.494806
60.245 15.368384
60.250 15.518116
60.255 15.521371
60.260 15.936092
60.265 15.77949
60.270 15.348742
60.275 15.70316
60.280 15.161755
60.285 14.997674
60.290 15.214809
60.295 15.094769
60.300 14.303992
60.305 14.120958
60.310 13.906641
60.315 13.913102
60.320 13.599515
60.325 13.647996
60.330 13.440094
60.335 14.431091
60.340 14.887158
60.345 14.972656
60.350 14.818912
60.355 14.829556
60.360 14.400293
60.365 14.069506
60.370 13.625645
60.375 13.899223
60.380 14.23933
60.385 14.353296
60.390 14.510212
60.395 14.879347
60.400 15.042743
60.405 15.237599
60.410 14.799175
60.415 14.507518
60.420 14.568038
60.425 14.249814
60.430 14.442833
60.435 14.626586
60.440 14.455663
60.445 14.103868
60.450 14.116478
60.455 14.324409
60.460 14.247339
60.465 14.31948
60.470 14.328022
60.475 14.731416
60.480 15.257076
60.485 15.160138
60.490 15.326443
60.495 15.885993
60.500 15.882823
60.505 15.65752
60.510 15.816582
60.515 16.084282
60.520 16.581486
60.525 16.296721
60.530 16.211697
60.535 15.955868
60.540 15.868497
60.545 15.513176
60.550 14.606455
60.555 14.716564
60.560 14.979437
60.565 15.015523
60.570 15.34233
60.575 15.266861
60.580 15.50797
60.585 16.043545
60.590 15.653662
60.595 15.674446
60.600 15.632312
60.605 15.471785
60.610 15.369169
60.615 14.653354
60.620 14.372911
60.625 14.061714
60.630 13.574838
60.635 13.490745
60.640 13.324396
60.645 14.147761
60.650 14.987772
60.655 14.948575
60.660 15.202871
60.665 15.211023
60.670 15.79814
60.675 15.737665
60.680 15.197742
60.685 14.573742
60.690 14.645198
60.695 14.930749
60.700 15.069242
60.705 15.079513
60.710 15.110061
60.715 14.68315
60.720 14.854301
60.725 14.47885
60.730 14.245667
60.735 14.25019
60.740 13.657354
60.745 14.535553
60.750 15.213614
60.755 15.651361
60.760 16.368469
60.765 16.647617
60.770 16.665028
60.775 16.63958
60.780 15.798899
60.785 14.878727
60.790 14.700101
60.795 14.480286
60.800 14.094908
60.805 14.313456
60.810 14.419741
60.815 14.491787
60.820 14.60393
60.825 14.061124
60.830 13.610196
60.835 13.7102
60.840 13.777345
60.845 14.202393
60.850 14.447929
60.855 14.584609
60.860 14.848934
60.865 15.195106
60.870 14.723169
60.875 14.196271
60.880 14.048541
60.885 14.571763
60.890 14.800703
60.895 14.447987
60.900 14.462847
60.905 14.578836
60.910 14.320328
60.915 13.890335
60.920 13.691906
60.925 13.491228
60.930 13.997871
60.935 14.081348
60.940 14.375391
60.945 14.766512
60.950 14.843861
60.955 14.500674
60.960 14.603289
60.965 14.175171
60.970 13.937617
60.975 13.618264
60.980 13.479209
60.985 13.478947
60.990 13.872151
60.995 13.997131
61.000 14.095739
61.005 14.499597
61.010 15.001983
61.015 15.23342
61.020 15.50229
61.025 15.332573
61.030 15.091969
61.035 15.191309
61.040 15.268103
61.045 15.152488
61.050 14.840742
61.055 14.956883
61.060 15.012686
61.065 15.208182
61.070 15.205943
61.075 14.90693
61.080 15.209899
61.085 15.707116
61.090 14.719867
61.095 14.507412
61.100 14.451743
61.105 14.060635
61.110 13.856611
61.115 13.558271
61.120 13.354624
61.125 14.218041
61.130 14.392334
61.135 14.905336
61.140 15.421275
61.145 15.503933
61.150 15.255269
61.155 15.251626
61.160 15.32282
61.165 15.151873
61.170 14.893336
61.175 14.698264
61.180 14.562992
61.185 14.451932
61.190 13.862031
61.195 13.817795
61.200 14.75733
61.205 15.049639
61.210 15.316813
61.215 15.637963
61.220 16.492563
61.225 17.232286
61.230 16.703112
61.235 15.892763
61.240 15.470583
61.245 15.473066
61.250 14.997227
61.255 14.568831
61.260 14.378396
61.265 15.304996
61.270 16.002768
61.275 16.436327
61.280 16.480658
61.285 17.399803
61.290 17.670069
61.295 17.746508
61.300 17.64843
61.305 17.052814
61.310 17.003107
61.315 17.065144
61.320 16.1796
61.325 15.666181
61.330 14.864203
61.335 14.463069
61.340 14.582141
61.345 14.470117
61.350 14.285864
61.355 15.049958
61.360 15.666024
61.365 16.027592
61.370 16.567623
61.375 16.656027
61.380 16.531937
61.385 16.544193
61.390 16.209358
61.395 16.121111
61.400 16.339493
61.405 15.871818
61.410 15.47132
61.415 15.322778
61.420 15.276999
61.425 15.385085
61.430 15.258621
61.435 15.010644
61.440 15.286759
61.445 15.744924
61.450 15.883477
61.455 15.933755
61.460 15.953728
61.465 16.05364
61.470 16.494183
61.475 16.388613
61.480 16.351097
61.485 16.084547
61.490 16.26194
61.495 16.227423
61.500 15.890307
61.505 15.318426
61.510 15.352469
61.515 15.091237
61.520 15.726638
61.525 15.716096
61.530 15.549313
61.535 15.659985
61.540 15.483666
61.545 15.392855
61.550 15.507087
61.555 15.003383
61.560 15.037763
61.565 15.15731
61.570 15.281591
61.575 15.883106
61.580 16.336542
61.585 16.647264
61.590 16.76763
61.595 16.429993
61.600 16.426558
61.605 16.534971
61.610 15.800186
61.615 15.499794
61.620 15.458134
61.625 15.323588
61.630 15.163689
61.635 14.983014
61.640 15.105848
61.645 15.251793
61.650 15.592821
61.655 15.401769
61.660 15.531969
61.665 15.382934
61.670 15.573622
61.675 15.464181
61.680 15.732038
61.685 14.780093
61.690 14.34576
61.695 13.920331
61.700 13.950433
61.705 13.86237
61.710 14.33116
61.715 14.573244
61.720 15.059201
61.725 15.636147
61.730 16.113855
61.735 16.428013
61.740 16.021296
61.745 15.297348
61.750 14.910648
61.755 14.960429
61.760 14.946073
61.765 14.772215
61.770 14.72752
61.775 15.48858
61.780 15.951731
61.785 16.044374
61.790 16.201933
61.795 16.185505
61.800 16.361057
61.805 16.124353
61.810 15.989367
61.815 16.109888
61.820 15.945261
61.825 15.864868
61.830 15.935247
61.835 15.769165
61.840 15.76678
61.845 15.546032
61.850 15.356425
61.855 15.628654
61.860 16.151213
61.865 16.360775
61.870 16.653692
61.875 16.870049
61.880 17.240841
61.885 17.49445
61.890 17.025215
61.895 15.976907
61.900 16.067753
61.905 15.855753
61.910 15.722839
61.915 15.38136
61.920 15.210095
61.925 15.319738
61.930 15.906697
61.935 15.930842
61.940 16.04299
61.945 15.995382
61.950 15.718088
61.955 15.74824
61.960 16.55831
61.965 16.164263
61.970 15.929825
61.975 16.181492
61.980 16.238909
61.985 16.4872
61.990 16.547859
61.995 15.98671
62.000 16.017612
62.005 16.092768
62.010 15.633377
62.015 15.202753
62.020 15.369116
62.025 15.333215
62.030 15.374054
62.035 14.809842
62.040 14.451736
62.045 14.605723
62.050 14.935139
62.055 13.998223
62.060 13.450778
62.065 13.682415
62.070 14.053374
62.075 13.716965
62.080 13.837936
62.085 14.189277
62.090 14.68871
62.095 14.73975
62.100 14.778989
62.105 15.338173
62.110 16.136219
62.115 15.502236
62.120 15.006701
62.125 15.220373
62.130 15.597711
62.135 15.764512
62.140 15.926058
62.145 15.959661
62.150 16.673504
62.155 17.271544
62.160 17.542128
62.165 17.338903
62.170 16.874811
62.175 15.995575
62.180 15.247605
62.185 15.216057
62.190 15.191863
62.195 14.773983
62.200 14.784409
62.205 15.008027
62.210 15.83566
62.215 16.220306
62.220 16.253658
62.225 16.267277
62.230 16.306585
62.235 16.330564
62.240 16.478411
62.245 16.327271
62.250 16.598001
62.255 16.308538
62.260 16.133638
62.265 16.20348
62.270 15.839792
62.275 15.367551
62.280 14.928317
62.285 14.730606
62.290 14.589114
62.295 14.632546
62.300 14.602161
62.305 15.263082
62.310 15.674328
62.315 15.867702
62.320 15.898748
62.325 16.486898
62.330 16.286692
62.335 16.157431
62.340 15.668186
62.345 15.420749
62.350 15.162577
62.355 15.36466
62.360 14.782746
62.365 15.225467
62.370 15.325847
62.375 15.547455
62.380 15.691877
62.385 15.834077
62.390 15.778502
62.395 15.397092
62.400 15.025765
62.405 15.092064
62.410 15.425946
62.415 15.740312
62.420 15.991037
62.425 15.626703
62.430 16.208027
62.435 16.725676
62.440 17.360231
62.445 17.069067
62.450 17.006041
62.455 17.374622
62.460 17.811008
62.465 18.258436
62.470 18.009527
62.475 17.567303
62.480 17.607197
62.485 17.468901
62.490 17.09445
62.495 16.828234
62.500 16.472036
62.505 16.465044
62.510 16.529016
62.515 16.608831
62.520 16.223454
62.525 15.998116
62.530 16.044538
62.535 16.174406
62.540 15.567186
62.545 15.326654
62.550 15.67711
62.555 16.087044
62.560 16.348974
62.565 15.637882
62.570 15.080775
62.575 15.450591
62.580 15.942241
62.585 15.834599
62.590 15.659115
62.595 15.656058
62.600 16.196081
62.605 16.185575
62.610 15.606218
62.615 15.317904
62.620 15.525359
62.625 15.830689
62.630 15.79684
62.635 15.597501
62.640 16.009109
62.645 15.778462
62.650 15.663941
62.655 15.135579
62.660 15.121248
62.665 15.094672
62.670 15.441719
62.675 16.139801
62.680 17.237961
62.685 17.637611
62.690 17.902081
62.695 17.788874
62.700 17.89723
62.705 17.624052
62.710 17.684999
62.715 17.394575
62.720 17.21957
62.725 17.106064
62.730 17.220253
62.735 17.171453
62.740 17.212624
62.745 17.083412
62.750 16.881519
62.755 16.878508
62.760 16.557224
62.765 15.845745
62.770 15.533283
62.775 15.799672
62.780 15.389165
62.785 15.230488
62.790 14.678493
62.795 14.913597
62.800 15.683671
62.805 16.230541
62.810 16.032619
62.815 16.287165
62.820 16.871155
62.825 17.411894
62.830 17.251547
62.835 16.941616
62.840 16.435535
62.845 16.260712
62.850 16.19272
62.855 15.85042
62.860 15.971012
62.865 16.151886
62.870 16.215275
62.875 16.499018
62.880 16.21203
62.885 16.049868
62.890 15.928934
62.895 15.534306
62.900 15.789286
62.905 16.138527
62.910 15.414842
62.915 15.321554
62.920 14.981468
62.925 15.002469
62.930 15.44488
62.935 15.287326
62.940 15.646323
62.945 15.852836
62.950 15.612516
62.955 15.646374
62.960 15.333396
62.965 15.339382
62.970 15.467336
62.975 15.086493
62.980 15.411688
62.985 16.365385
62.990 16.904869
62.995 17.588202
63.000 18.042103
63.005 17.54875
63.010 17.504257
63.015 17.824999
63.020 17.584589
63.025 18.015352
63.030 17.949036
63.035 17.679211
63.040 18.040573
63.045 18.108294
63.050 18.457905
63.055 17.96949
63.060 17.303181
63.065 16.45467
63.070 16.00193
63.075 15.625988
63.080 16.081602
63.085 16.107304
63.090 16.603117
63.095 17.019995
63.100 17.22809
63.105 17.588129
63.110 17.448624
63.115 17.162758
63.120 16.296524
63.125 15.822655
63.130 15.738007
63.135 15.70474
63.140 15.806222
63.145 15.919895
63.150 15.897358
63.155 16.411423
63.160 16.573666
63.165 16.423372
63.170 16.701857
63.175 17.085695
63.180 17.897346
63.185 17.54587
63.190 17.055807
63.195 17.135118
63.200 17.11607
63.205 17.05798
63.210 16.652615
63.215 16.172951
63.220 16.386471
63.225 16.188148
63.230 16.030415
63.235 16.042351
63.240 16.332325
63.245 16.982977
63.250 16.544533
63.255 17.006554
63.260 17.197376
63.265 17.163317
63.270 16.897495
63.275 16.613199
63.280 16.49898
63.285 17.594252
63.290 17.398508
63.295 17.17828
63.300 17.29538
63.305 17.801855
63.310 18.031498
63.315 17.921743
63.320 16.854122
63.325 16.930834
63.330 17.349489
63.335 17.430996
63.340 16.880198
63.345 16.349094
63.350 15.942353
63.355 16.103258
63.360 15.899509
63.365 16.688496
63.370 17.055191
63.375 17.711794
63.380 18.198486
63.385 18.373064
63.390 18.845823
63.395 19.14345
63.400 18.682005
63.405 17.831736
63.410 17.192562
63.415 17.148848
63.420 17.30545
63.425 17.153948
63.430 17.20874
63.435 17.150738
63.440 17.418772
63.445 17.822813
63.450 17.586159
63.455 17.227272
63.460 17.145363
63.465 16.488689
63.470 16.91024
63.475 16.935223
63.480 16.602182
63.485 16.423502
63.490 16.399479
63.495 16.450668
63.500 16.784428
63.505 16.551643
63.510 16.939131
63.515 17.108793
63.520 17.127655
63.525 17.421041
63.530 16.945013
63.535 16.724255
63.540 16.824631
63.545 16.530634
63.550 16.563662
63.555 16.346439
63.560 16.335945
63.565 16.680151
63.570 17.221245
63.575 17.681269
63.580 17.817207
63.585 17.756079
63.590 18.20121
63.595 18.719561
63.600 18.8312
63.605 19.089737
63.610 18.560034
63.615 18.461798
63.620 19.224934
63.625 19.143829
63.630 18.660273
63.635 18.571461
63.640 18.182289
63.645 18.121836
63.650 18.465223
63.655 17.800484
63.660 17.898703
63.665 17.989374
63.670 17.45112
63.675 17.17334
63.680 17.24453
63.685 16.926281
63.690 17.295593
63.695 17.072664
63.700 16.473234
63.705 16.32766
63.710 16.271948
63.715 16.227621
63.720 16.438612
63.725 16.074768
63.730 15.950785
63.735 16.660795
63.740 16.566189
63.745 16.395704
63.750 15.892233
63.755 16.072683
63.760 16.39222
63.765 16.865391
63.770 17.114271
63.775 17.594976
63.780 18.008209
63.785 18.989723
63.790 18.6784
63.795 18.371178
63.800 18.197233
63.805 18.342936
63.810 18.825279
63.815 18.891312
63.820 18.397869
63.825 19.200281
63.830 19.666904
63.835 20.049946
63.840 20.002266
63.845 19.958895
63.850 19.834816
63.855 19.417681
63.860 19.007799
63.865 19.649359
63.870 19.394835
63.875 19.548222
63.880 19.42309
63.885 19.070107
63.890 19.353056
63.895 18.933821
63.900 17.930271
63.905 17.934761
63.910 17.722439
63.915 17.966215
63.920 18.488701
63.925 18.501101
63.930 19.119759
63.935 19.764893
63.940 20.405716
63.945 20.77919
63.950 21.033964
63.955 21.253292
63.960 21.736927
63.965 22.104696
63.970 22.450836
63.975 21.966213
63.980 21.770798
63.985 21.90856
63.990 21.761061
63.995 21.708338
64.000 21.224375
64.005 21.275606
64.010 22.709148
64.015 24.321671
64.020 25.412823
64.025 26.333139
64.030 26.512108
64.035 26.866674
64.040 26.635187
64.045 25.724295
64.050 25.147881
64.055 25.064871
64.060 24.89019
64.065 25.109844
64.070 24.830629
64.075 24.636818
64.080 24.949429
64.085 24.546085
64.090 23.989731
64.095 23.805267
64.100 23.757938
64.105 24.634598
64.110 25.347397
64.115 25.693375
64.120 27.391979
64.125 27.96018
64.130 28.530416
64.135 28.628338
64.140 28.694229
64.145 28.535215
64.150 28.534019
64.155 28.848904
64.160 29.010424
64.165 29.181931
64.170 29.912506
64.175 30.449963
64.180 31.362566
64.185 32.052567
64.190 31.366898
64.195 31.92823
64.200 32.755718
64.205 32.818417
64.210 32.981785
64.215 32.864479
64.220 32.406685
64.225 33.121788
64.230 34.094723
64.235 34.17654
64.240 35.045471
64.245 35.701744
64.250 37.014706
64.255 38.156544
64.260 38.938736
64.265 39.034615
64.270 40.293587
64.275 40.579632
64.280 40.589104
64.285 40.844654
64.290 41.403503
64.295 41.981041
64.300 42.085175
64.305 41.650547
64.310 41.827919
64.315 42.152161
64.320 41.717419
64.325 42.327942
64.330 41.703217
64.335 41.935757
64.340 41.584949
64.345 41.449665
64.350 41.27702
64.355 41.299885
64.360 40.834785
64.365 41.091446
64.370 41.029484
64.375 41.86792
64.380 42.441509
64.385 43.099873
64.390 43.410751
64.395 44.053616
64.400 44.294044
64.405 44.497295
64.410 45.041676
64.415 45.319126
64.420 45.44672
64.425 45.423515
64.430 45.027065
64.435 45.301147
64.440 45.84967
64.445 45.428024
64.450 44.718788
64.455 44.320831
64.460 43.957439
64.465 43.282951
64.470 42.368546
64.475 41.464882
64.480 41.707706
64.485 41.203121
64.490 40.800442
64.495 40.930386
64.500 41.083458
64.505 41.052559
64.510 40.20599
64.515 38.189552
64.520 37.310333
64.525 37.220829
64.530 36.620258
64.535 35.447544
64.540 34.596191
64.545 34.324303
64.550 34.45047
64.555 35.085617
64.560 34.437481
64.565 34.258633
64.570 33.482403
64.575 32.407803
64.580 31.964212
64.585 31.430847
64.590 30.541807
64.595 29.948664
64.600 29.889622
64.605 30.297483
64.610 30.2647
64.615 30.367617
64.620 30.145512
64.625 29.882561
64.630 28.840391
64.635 27.890631
64.640 27.080168
64.645 27.336206
64.650 26.811632
64.655 26.671293
64.660 26.493881
64.665 26.869102
64.670 26.429523
64.675 25.974466
64.680 25.252554
64.685 24.903358
64.690 24.051447
64.695 23.520988
64.700 23.15988
64.705 22.787983
64.710 22.796579
64.715 22.783718
64.720 22.869045
64.725 23.148554
64.730 23.752331
64.735 23.320259
64.740 23.307413
64.745 22.574919
64.750 22.331339
64.755 22.379974
64.760 22.338108
64.765 22.260151
64.770 22.272562
64.775 22.581276
64.780 22.552065
64.785 22.380369
64.790 22.240145
64.795 21.830019
64.800 21.529497
64.805 21.893057
64.810 21.471966
64.815 21.654955
64.820 21.900251
64.825 22.342054
64.830 22.325615
64.835 22.33371
64.840 21.745344
64.845 21.465305
64.850 20.68644
64.855 20.280844
64.860 19.812254
64.865 19.874165
64.870 19.903278
64.875 19.92457
64.880 20.029591
64.885 19.84914
64.890 19.800901
64.895 19.697105
64.900 19.661741
64.905 19.382311
64.910 19.440008
64.915 19.634121
64.920 20.371126
64.925 20.679312
64.930 20.924198
64.935 21.270987
64.940 21.663157
64.945 21.863859
64.950 21.644476
64.955 22.248629
64.960 21.53145
64.965 21.214716
64.970 20.933064
64.975 20.322376
64.980 20.16437
64.985 20.307224
64.990 19.768305
64.995 19.828074
65.000 19.846115
65.005 19.836481
65.010 20.344112
65.015 20.322851
65.020 20.694147
65.025 20.747789
65.030 21.306871
65.035 21.145369
65.040 21.729717
65.045 22.71294
65.050 23.417252
65.055 23.360989
65.060 23.788671
65.065 23.799393
65.070 24.892673
65.075 25.601452
65.080 25.447464
65.085 25.281309
65.090 25.465879
65.095 24.974022
65.100 25.479322
65.105 24.880959
65.110 23.933958
65.115 24.070221
65.120 24.034895
65.125 23.576544
65.130 24.138058
65.135 23.676912
65.140 23.987997
65.145 24.328144
65.150 24.239708
65.155 25.244551
65.160 26.744719
65.165 27.541061
65.170 28.292021
65.175 28.546066
65.180 28.232374
65.185 27.6131
65.190 27.028862
65.195 26.734076
65.200 26.620665
65.205 26.387537
65.210 26.240366
65.215 26.655005
65.220 27.366835
65.225 27.04735
65.230 27.278313
65.235 26.931252
65.240 26.63151
65.245 26.396877
65.250 26.392464
65.255 26.680759
65.260 27.777912
65.265 28.194187
65.270 29.144983
65.275 29.21994
65.280 30.285458
65.285 31.159353
65.290 31.169868
65.295 31.519304
65.300 31.97439
65.305 31.992563
65.310 31.941908
65.315 31.786938
65.320 31.413263
65.325 31.781929
65.330 31.443802
65.335 31.082327
65.340 31.381216
65.345 32.132137
65.350 32.746925
65.355 32.933605
65.360 32.665146
65.365 33.282558
65.370 33.34137
65.375 33.344959
65.380 33.431343
65.385 33.336132
65.390 33.724392
65.395 34.392597
65.400 34.018242
65.405 34.813435
65.410 35.710171
65.415 36.863541
65.420 36.988884
65.425 37.662361
65.430 37.771393
65.435 37.939011
65.440 37.279434
65.445 36.711494
65.450 36.007915
65.455 35.979507
65.460 36.0881
65.465 37.082954
65.470 37.823597
65.475 38.863998
65.480 38.949253
65.485 38.73711
65.490 39.088657
65.495 39.448696
65.500 38.633602
65.505 38.472912
65.510 38.418156
65.515 38.578045
65.520 39.138447
65.525 38.705212
65.530 37.742321
65.535 38.134182
65.540 37.773586
65.545 37.770687
65.550 38.089737
65.555 38.075165
65.560 38.855793
65.565 39.061321
65.570 39.427116
65.575 39.338764
65.580 39.75423
65.585 39.289192
65.590 39.218063
65.595 39.210331
65.600 39.596409
65.605 40.34045
65.610 41.443802
65.615 41.786011
65.620 41.597179
65.625 42.176998
65.630 42.024418
65.635 42.640762
65.640 41.833855
65.645 40.616371
65.650 39.824093
65.655 40.429066
65.660 39.885696
65.665 39.575611
65.670 38.583782
65.675 38.974808
65.680 39.305531
65.685 39.280182
65.690 38.748325
65.695 38.651722
65.700 39.018433
65.705 38.597725
65.710 37.98259
65.715 37.829666
65.720 37.735203
65.725 38.356617
65.730 37.871239
65.735 37.251377
65.740 36.828224
65.745 36.458939
65.750 35.786045
65.755 35.009842
65.760 34.091564
65.765 34.205429
65.770 34.067711
65.775 34.340431
65.780 34.350437
65.785 34.579807
65.790 35.256092
65.795 35.756969
65.800 35.795509
65.805 35.753197
65.810 35.408493
65.815 35.284763
65.820 34.076942
65.825 33.227089
65.830 31.842144
65.835 31.129498
65.840 31.030188
65.845 30.733713
65.850 30.423517
65.855 30.661428
65.860 30.696203
65.865 30.833755
65.870 30.914478
65.875 30.326523
65.880 30.392702
65.885 29.646269
65.890 28.455496
65.895 28.693724
65.900 28.534346
65.905 27.78857
65.910 27.206022
65.915 26.647379
65.920 26.73864
65.925 27.21884
65.930 26.157309
65.935 26.424248
65.940 26.976006
65.945 27.333059
65.950 27.388227
65.955 27.148832
65.960 27.227444
65.965 27.556005
65.970 27.537701
65.975 26.969233
65.980 26.309902
65.985 25.999306
65.990 26.129137
65.995 24.802652
66.000 24.275711
66.005 23.230568
66.010 22.883018
66.015 23.342918
66.020 23.594416
66.025 23.359373
66.030 24.078823
66.035 24.02421
66.040 24.179279
66.045 24.350092
66.050 24.268505
66.055 24.149399
66.060 23.879478
66.065 23.424187
66.070 23.034754
66.075 22.883169
66.080 22.769388
66.085 22.308828
66.090 22.182661
66.095 22.225924
66.100 21.610182
66.105 21.459814
66.110 21.329556
66.115 20.991053
66.120 21.048458
66.125 21.65362
66.130 21.519508
66.135 21.821726
66.140 21.870607
66.145 21.530132
66.150 21.267939
66.155 20.588938
66.160 19.5879
66.165 19.458277
66.170 19.507784
66.175 19.552534
66.180 19.743065
66.185 19.882389
66.190 19.95612
66.195 19.830114
66.200 19.91081
66.205 20.208212
66.210 20.525578
66.215 20.62141
66.220 20.869551
66.225 20.979519
66.230 20.869026
66.235 20.124323
66.240 19.009817
66.245 18.228571
66.250 17.860498
66.255 17.273516
66.260 16.854342
66.265 16.531624
66.270 16.840834
66.275 16.874981
66.280 17.075439
66.285 17.123827
66.290 17.601738
66.295 17.771006
66.300 18.295572
66.305 17.96603
66.310 17.928421
66.315 18.163975
66.320 17.944019
66.325 17.432907
66.330 17.607008
66.335 17.336569
66.340 18.059174
66.345 18.757633
66.350 18.702192
66.355 18.968916
66.360 19.260088
66.365 19.225399
66.370 19.357763
66.375 19.36186
66.380 18.796871
66.385 18.358955
66.390 18.249361
66.395 18.195145
66.400 18.578001
66.405 18.871431
66.410 19.055792
66.415 19.476231
66.420 20.191624
66.425 20.73185
66.430 20.393728
66.435 19.665787
66.440 19.42893
66.445 19.139629
66.450 19.048864
66.455 19.033979
66.460 19.004503
66.465 18.917984
66.470 18.552055
66.475 18.178823
66.480 17.625856
66.485 16.870541
66.490 16.250887
66.495 16.673372
66.500 17.339764
66.505 17.823868
66.510 18.133648
66.515 18.536983
66.520 18.504566
66.525 18.269888
66.530 17.808123
66.535 18.39702
66.540 19.132683
66.545 19.114191
66.550 19.514374
66.555 19.751007
66.560 20.012953
66.565 19.487915
66.570 18.51693
66.575 18.536819
66.580 18.559914
66.585 18.666826
66.590 19.183271
66.595 19.218264
66.600 19.264757
66.605 19.12599
66.610 18.594574
66.615 18.717165
66.620 18.342283
66.625 18.046619
66.630 18.077431
66.635 18.010555
66.640 18.127678
66.645 18.535397
66.650 18.352846
66.655 18.353504
66.660 18.366053
66.665 18.184906
66.670 18.422693
66.675 18.555071
66.680 18.121334
66.685 17.569235
66.690 17.337587
66.695 17.401159
66.700 17.629004
66.705 17.668343
66.710 17.416807
66.715 17.532558
66.720 17.975746
66.725 17.824459
66.730 17.846413
66.735 17.527861
66.740 17.044888
66.745 16.738083
66.750 16.698307
66.755 16.353014
66.760 16.386824
66.765 16.230194
66.770 16.60191
66.775 17.279795
66.780 17.299194
66.785 16.970123
66.790 16.815039
66.795 17.161133
66.800 17.032606
66.805 16.74028
66.810 16.068007
66.815 15.994825
66.820 16.267729
66.825 16.430349
66.830 15.842969
66.835 15.691925
66.840 15.841008
66.845 16.572136
66.850 17.166357
66.855 16.953867
66.860 16.535694
66.865 16.995007
66.870 17.639633
66.875 17.189342
66.880 16.441809
66.885 16.037201
66.890 16.374723
66.895 16.974936
66.900 16.944345
66.905 17.416458
66.910 18.074051
66.915 18.653379
66.920 18.83242
66.925 18.739012
66.930 18.70281
66.935 18.422384
66.940 17.962465
66.945 17.477331
66.950 17.553534
66.955 17.404444
66.960 17.474133
66.965 17.442646
66.970 17.550249
66.975 17.473602
66.980 17.599802
66.985 17.344301
66.990 17.137957
66.995 16.967758
67.000 16.498833
67.005 16.803698
67.010 17.031504
67.015 16.649895
67.020 16.511709
67.025 17.031126
67.030 17.860273
67.035 18.307404
67.040 18.469034
67.045 18.238861
67.050 18.087334
67.055 17.972927
67.060 17.970495
67.065 18.077553
67.070 18.362249
67.075 17.855398
67.080 17.694378
67.085 17.893288
67.090 18.323811
67.095 18.034266
67.100 17.531433
67.105 17.261827
67.110 17.897774
67.115 18.342934
67.120 18.86727
67.125 18.742102
67.130 18.927813
67.135 19.157433
67.140 18.854708
67.145 18.41119
67.150 18.198034
67.155 18.094965
67.160 18.082945
67.165 17.632572
67.170 17.400396
67.175 17.507954
67.180 17.063412
67.185 16.898819
67.190 16.777819
67.195 16.505497
67.200 16.950924
67.205 17.274902
67.210 16.999338
67.215 17.729263
67.220 17.766781
67.225 17.738369
67.230 17.709145
67.235 17.620544
67.240 17.521935
67.245 17.685144
67.250 17.292162
67.255 17.584053
67.260 18.170208
67.265 18.709591
67.270 18.868675
67.275 18.716099
67.280 18.513672
67.285 18.443501
67.290 18.21353
67.295 18.216457
67.300 18.104654
67.305 17.690908
67.310 17.397284
67.315 17.931721
67.320 17.835684
67.325 17.88061
67.330 17.330019
67.335 17.149025
67.340 16.781572
67.345 16.625242
67.350 16.759367
67.355 16.664616
67.360 16.639528
67.365 17.218603
67.370 17.055153
67.375 17.495251
67.380 17.198753
67.385 17.610096
67.390 18.035364
67.395 17.682812
67.400 17.524162
67.405 17.23727
67.410 16.788183
67.415 16.92532
67.420 16.479696
67.425 16.408888
67.430 16.809408
67.435 16.527275
67.440 16.978378
67.445 17.257881
67.450 18.027206
67.455 18.35758
67.460 18.116465
67.465 17.834196
67.470 17.630695
67.475 17.833038
67.480 17.664391
67.485 16.964598
67.490 16.36301
67.495 16.697083
67.500 17.007593
67.505 17.048809
67.510 16.957331
67.515 16.962538
67.520 17.046337
67.525 17.528105
67.530 16.977468
67.535 16.827251
67.540 16.797125
67.545 16.851995
67.550 16.891495
67.555 16.899574
67.560 16.903574
67.565 16.94589
67.570 17.359768
67.575 17.641417
67.580 17.567425
67.585 18.188255
67.590 18.298006
67.595 18.333742
67.600 18.851686
67.605 18.306204
67.610 17.985397
67.615 18.126554
67.620 18.021187
67.625 18.493677
67.630 19.044386
67.635 18.643541
67.640 18.881594
67.645 18.870441
67.650 18.780506
67.655 18.428181
67.660 17.633131
67.665 16.390287
67.670 16.286148
67.675 16.392052
67.680 16.925137
67.685 17.245966
67.690 17.481054
67.695 17.647076
67.700 18.340725
67.705 18.82268
67.710 18.323858
67.715 18.028538
67.720 17.938581
67.725 17.430685
67.730 18.268782
67.735 18.180847
67.740 18.217907
67.745 18.57383
67.750 18.853388
67.755 19.200871
67.760 19.910311
67.765 19.229773
67.770 19.083385
67.775 18.97319
67.780 18.701794
67.785 18.259661
67.790 17.900595
67.795 17.872904
67.800 18.173891
67.805 18.398472
67.810 18.532232
67.815 18.849329
67.820 18.753019
67.825 18.396402
67.830 18.10368
67.835 17.789623
67.840 17.052883
67.845 16.804888
67.850 16.757233
67.855 17.15065
67.860 17.281418
67.865 17.284018
67.870 17.261312
67.875 18.3862
67.880 18.294847
67.885 17.961117
67.890 17.813795
67.895 17.614204
67.900 17.261988
67.905 17.497036
67.910 16.891027
67.915 16.909237
67.920 16.848949
67.925 16.550741
67.930 16.676336
67.935 16.488796
67.940 16.815327
67.945 17.303141
67.950 17.47419
67.955 17.606747
67.960 17.356472
67.965 17.375957
67.970 17.534994
67.975 17.275339
67.980 17.043985
67.985 17.155344
67.990 17.502092
67.995 17.908319
68.000 17.746567
68.005 17.582191
68.010 17.005274
68.015 16.972979
68.020 17.00033
68.025 17.194096
68.030 17.847721
68.035 18.717773
68.040 18.791687
68.045 19.364857
68.050 19.48317
68.055 19.655689
68.060 19.313677
68.065 18.361021
68.070 17.728462
68.075 18.367811
68.080 18.593603
68.085 18.33602
68.090 18.220995
68.095 18.430859
68.100 18.964834
68.105 19.366514
68.110 19.164038
68.115 18.675186
68.120 18.965734
68.125 19.054855
68.130 19.187323
68.135 18.599354
68.140 18.330122
68.145 18.652012
68.150 18.644241
68.155 18.450109
68.160 17.916807
68.165 17.684412
68.170 18.116375
68.175 18.199978
68.180 17.696323
68.185 17.803411
68.190 18.519901
68.195 19.420345
68.200 19.614229
68.205 19.811647
68.210 19.95846
68.215 20.144238
68.220 20.209969
68.225 19.963898
68.230 19.961649
68.235 20.04203
68.240 19.80232
68.245 19.833866
68.250 19.805355
68.255 19.671427
68.260 19.413414
68.265 19.354109
68.270 19.120022
68.275 18.763973
68.280 18.667704
68.285 18.46814
68.290 18.557034
68.295 18.917957
68.300 19.033327
68.305 19.235407
68.310 19.137482
68.315 19.848133
68.320 20.057867
68.325 19.851543
68.330 19.413359
68.335 19.676455
68.340 19.885353
68.345 20.289444
68.350 20.448711
68.355 20.817938
68.360 21.360153
68.365 21.482294
68.370 21.249086
68.375 21.330276
68.380 21.399948
68.385 20.972612
68.390 20.835165
68.395 20.394821
68.400 20.704294
68.405 21.18187
68.410 21.351398
68.415 21.314585
68.420 21.423166
68.425 21.755913
68.430 22.529919
68.435 22.068642
68.440 21.772552
68.445 22.074236
68.450 22.685215
68.455 23.150116
68.460 23.330837
68.465 23.512745
68.470 23.610147
68.475 24.05381
68.480 23.842968
68.485 24.291456
68.490 24.79941
68.495 24.718943
68.500 24.560406
68.505 24.765238
68.510 24.867254
68.515 25.146204
68.520 25.370804
68.525 25.360601
68.530 25.856499
68.535 26.203131
68.540 26.590591
68.545 26.804796
68.550 26.823229
68.555 27.212751
68.560 28.17634
68.565 28.116596
68.570 28.736755
68.575 28.501684
68.580 29.089699
68.585 29.42704
68.590 29.130978
68.595 29.146997
68.600 29.023561
68.605 29.089891
68.610 30.400719
68.615 30.604757
68.620 30.389744
68.625 30.234955
68.630 30.620502
68.635 31.397533
68.640 30.566366
68.645 29.527788
68.650 29.415775
68.655 29.947836
68.660 30.12961
68.665 29.644863
68.670 30.116438
68.675 31.579039
68.680 31.681173
68.685 32.529434
68.690 32.901199
68.695 32.892521
68.700 33.581573
68.705 33.814159
68.710 34.094776
68.715 34.402454
68.720 33.73069
68.725 33.527527
68.730 34.155647
68.735 34.077248
68.740 34.01276
68.745 33.55661
68.750 33.741879
68.755 34.062851
68.760 35.085079
68.765 35.496605
68.770 35.694923
68.775 35.680054
68.780 36.526993
68.785 36.752121
68.790 37.299049
68.795 36.391636
68.800 36.084515
68.805 35.749641
68.810 35.165787
68.815 34.48671
68.820 34.257423
68.825 33.857758
68.830 34.732109
68.835 35.442604
68.840 35.525837
68.845 35.296711
68.850 35.429489
68.855 36.020451
68.860 36.224648
68.865 35.703564
68.870 35.167652
68.875 35.654305
68.880 35.901764
68.885 35.729126
68.890 35.549545
68.895 36.092018
68.900 36.759773
68.905 36.320801
68.910 35.716763
68.915 35.797043
68.920 35.40345
68.925 35.350254
68.930 35.04108
68.935 34.060528
68.940 34.30402
68.945 34.472305
68.950 34.36237
68.955 34.652645
68.960 33.912434
68.965 33.254128
68.970 32.942352
68.975 33.312881
68.980 33.69429
68.985 33.916801
68.990 34.102577
68.995 33.573242
69.000 33.336216
69.005 33.010014
69.010 31.625381
69.015 31.555447
69.020 30.170652
69.025 29.329039
69.030 30.013832
69.035 29.635897
69.040 29.100506
69.045 28.869572
69.050 28.534138
69.055 29.584883
69.060 29.588375
69.065 29.422176
69.070 29.329155
69.075 29.375921
69.080 29.178665
69.085 28.638817
69.090 27.767553
69.095 27.753904
69.100 27.853487
69.105 28.663418
69.110 29.279522
69.115 29.459492
69.120 29.802505
69.125 30.172556
69.130 29.58564
69.135 28.68358
69.140 27.984619
69.145 27.111649
69.150 26.916794
69.155 26.444775
69.160 25.907425
69.165 25.351139
69.170 25.158571
69.175 24.504713
69.180 24.623957
69.185 24.318895
69.190 23.504601
69.195 23.807863
69.200 23.592033
69.205 22.727308
69.210 22.512695
69.215 22.208153
69.220 22.103493
69.225 22.375557
69.230 22.001413
69.235 22.435268
69.240 22.927591
69.245 22.910069
69.250 22.968269
69.255 22.830648
69.260 22.541285
69.265 22.365036
69.270 22.695217
69.275 23.086294
69.280 23.160469
69.285 22.393881
69.290 22.594358
69.295 22.56789
69.300 21.815323
69.305 21.350281
69.310 20.793306
69.315 20.556053
69.320 20.455278
69.325 20.829008
69.330 21.06741
69.335 21.208096
69.340 21.100451
69.345 21.301193
69.350 21.475983
69.355 21.581537
69.360 20.650742
69.365 20.615274
69.370 20.257288
69.375 19.951748
69.380 20.002289
69.385 19.24584
69.390 18.83333
69.395 19.122561
69.400 18.777143
69.405 18.723536
69.410 18.186832
69.415 17.876873
69.420 17.906521
69.425 17.858564
69.430 17.822615
69.435 18.221113
69.440 18.920195
69.445 19.295786
69.450 19.387276
69.455 19.931276
69.460 20.436686
69.465 19.998999
69.470 19.401661
69.475 18.576422
69.480 18.264307
69.485 18.219948
69.490 18.315901
69.495 18.03931
69.500 18.207468
69.505 19.013638
69.510 20.039568
69.515 21.039383
69.520 20.690872
69.525 20.029816
69.530 20.220182
69.535 20.989311
69.540 20.897738
69.545 20.418285
69.550 19.299223
69.555 19.869379
69.560 19.970922
69.565 19.302296
69.570 18.612629
69.575 18.494602
69.580 18.230141
69.585 18.530184
69.590 17.914293
69.595 17.598324
69.600 17.812292
69.605 17.324392
69.610 17.587416
69.615 17.626387
69.620 17.668694
69.625 17.783081
69.630 18.415852
69.635 18.504992
69.640 18.536875
69.645 17.976904
69.650 17.787783
69.655 18.439188
69.660 18.444489
69.665 17.657305
69.670 17.4426
69.675 17.506557
69.680 17.739704
69.685 18.134289
69.690 17.288282
69.695 17.458078
69.700 17.703625
69.705 17.78639
69.710 17.364616
69.715 17.338196
69.720 17.33189
69.725 17.979551
69.730 18.884985
69.735 19.101089
69.740 19.328882
69.745 19.63138
69.750 19.014484
69.755 18.305885
69.760 18.056311
69.765 17.280539
69.770 17.420105
69.775 17.059437
69.780 16.78368
69.785 17.574135
69.790 17.862665
69.795 17.830217
69.800 18.687933
69.805 18.563736
69.810 18.887482
69.815 19.521053
69.820 19.935511
69.825 20.080254
69.830 20.060532
69.835 19.7146
69.840 19.563877
69.845 20.174036
69.850 19.642391
69.855 18.982368
69.860 18.660587
69.865 18.806982
69.870 18.775705
69.875 18.808828
69.880 18.393051
69.885 18.884743
69.890 18.923683
69.895 18.73797
69.900 18.594072
69.905 18.393122
69.910 18.068573
69.915 17.720165
69.920 17.480017
69.925 17.544748
69.930 17.936861
69.935 18.529909
69.940 18.79365
69.945 18.824705
69.950 19.224016
69.955 18.813381
69.960 18.454185
69.965 17.420866
69.970 15.948611
69.975 15.579197
69.980 15.260964
69.985 14.739829
69.990 14.734463
69.995 15.010701
70.000 15.80515
70.005 16.302423
70.010 16.477457
70.015 16.59725
70.020 16.720196
70.025 17.33218
70.030 17.813711
70.035 18.265806
70.040 18.000017
70.045 17.682194
70.050 18.220158
70.055 18.458862
70.060 18.074402
70.065 17.635471
70.070 17.823736
70.075 18.342867
70.080 18.432102
70.085 17.809891
70.090 17.698158
70.095 17.478271
70.100 17.254869
70.105 16.628002
70.110 16.27545
70.115 16.565729
70.120 16.639181
70.125 16.979395
70.130 17.564814
70.135 17.893885
70.140 18.527021
70.145 18.763691
70.150 19.02614
70.155 19.289719
70.160 18.617334
70.165 18.210165
70.170 17.962973
70.175 18.078667
70.180 18.349598
70.185 18.317167
70.190 18.167833
70.195 17.975374
70.200 17.876797
70.205 17.796608
70.210 17.266085
70.215 16.98419
70.220 17.386642
70.225 18.064753
70.230 18.256163
70.235 18.439125
70.240 18.213919
70.245 18.122723
70.250 18.160505
70.255 17.841995
70.260 17.713717
70.265 17.101858
70.270 16.711269
70.275 16.957232
70.280 17.192648
70.285 17.044104
70.290 16.146496
70.295 16.165648
70.300 17.111786
70.305 17.279388
70.310 17.470953
70.315 17.500011
70.320 18.425251
70.325 18.431389
70.330 17.878866
70.335 17.603251
70.340 18.127575
70.345 18.206741
70.350 18.716499
70.355 18.346996
70.360 19.016216
70.365 19.143553
70.370 19.449932
70.375 19.730606
70.380 19.802406
70.385 19.296671
70.390 19.566795
70.395 19.935349
70.400 20.457748
70.405 19.36701
70.410 18.049318
70.415 17.415136
70.420 17.006048
70.425 16.72843
70.430 16.587481
70.435 16.446793
70.440 17.196415
70.445 17.403517
70.450 17.465416
70.455 17.803747
70.460 17.614643
70.465 17.251444
70.470 17.039545
70.475 16.820778
70.480 16.521444
70.485 16.232082
70.490 16.112888
70.495 15.924465
70.500 16.535437
70.505 16.805088
70.510 17.298311
70.515 17.871023
70.520 18.306341
70.525 18.436329
70.530 18.487032
70.535 18.8965
70.540 18.733234
70.545 18.38471
70.550 18.3274
70.555 18.107981
70.560 17.893541
70.565 17.817627
70.570 17.83008
70.575 17.555359
70.580 17.161428
70.585 16.607458
70.590 16.634886
70.595 17.331427
70.600 17.144077
70.605 16.985088
70.610 17.152014
70.615 18.000076
70.620 19.13262
70.625 18.991053
70.630 18.53993
70.635 18.467581
70.640 18.115307
70.645 18.024458
70.650 17.943495
70.655 17.710194
70.660 17.623383
70.665 17.973013
70.670 17.859522
70.675 17.721443
70.680 17.917988
70.685 18.057932
70.690 18.300104
70.695 18.516609
70.700 18.630524
70.705 18.864185
70.710 18.97901
70.715 19.049236
70.720 18.622063
70.725 18.255369
70.730 18.356174
70.735 17.834776
70.740 17.989008
70.745 17.986366
70.750 17.673618
70.755 17.351677
70.760 17.016792
70.765 16.878368
70.770 17.319534
70.775 16.707281
70.780 16.435043
70.785 15.886529
70.790 15.875558
70.795 15.789636
70.800 15.218831
70.805 14.927837
70.810 15.62136
70.815 16.387623
70.820 17.63899
70.825 17.628202
70.830 17.658688
70.835 17.724466
70.840 17.662642
70.845 17.219185
70.850 16.951807
70.855 17.170425
70.860 17.283468
70.865 17.654282
70.870 17.581011
70.875 17.883812
70.880 18.124422
70.885 17.999516
70.890 17.272667
70.895 17.439873
70.900 17.318573
70.905 17.939764
70.910 17.61614
70.915 17.216784
70.920 16.948675
70.925 16.74925
70.930 16.666933
70.935 16.160475
70.940 15.946229
70.945 16.149956
70.950 16.508698
70.955 16.968105
70.960 17.566259
70.965 17.653383
70.970 18.035248
70.975 18.083929
70.980 17.851261
70.985 17.956264
70.990 16.984051
70.995 16.765226
71.000 17.296089
71.005 17.55287
71.010 17.797281
71.015 17.830235
71.020 17.710268
71.025 18.057188
71.030 18.127308
71.035 18.261469
71.040 18.318928
71.045 17.981356
71.050 17.863661
71.055 17.901772
71.060 17.876022
71.065 18.00823
71.070 17.195435
71.075 16.919886
71.080 16.886904
71.085 17.370237
71.090 18.040834
71.095 18.144037
71.100 17.854734
71.105 17.476429
71.110 17.334827
71.115 17.480217
71.120 17.301792
71.125 17.065063
71.130 16.918446
71.135 17.623932
71.140 17.895033
71.145 18.429579
71.150 19.12944
71.155 18.982462
71.160 18.571657
71.165 17.932507
71.170 17.810266
71.175 18.029051
71.180 17.43705
71.185 16.803459
71.190 16.668053
71.195 17.761614
71.200 17.462025
71.205 17.149532
71.210 17.195442
71.215 17.50404
71.220 17.321615
71.225 16.888887
71.230 16.841516
71.235 17.595064
71.240 17.887629
71.245 17.517395
71.250 17.253141
71.255 17.306629
71.260 17.212822
71.265 16.883396
71.270 16.818342
71.275 17.079756
71.280 17.165894
71.285 17.210079
71.290 16.987738
71.295 16.741196
71.300 16.646238
71.305 16.75589
71.310 16.333876
71.315 16.461931
71.320 17.129398
71.325 17.580799
71.330 17.784679
71.335 17.379633
71.340 17.295691
71.345 17.59812
71.350 16.661442
71.355 15.919626
71.360 15.853975
71.365 16.330294
71.370 16.341475
71.375 16.417095
71.380 16.736179
71.385 17.658655
71.390 18.295094
71.395 18.08061
71.400 17.740381
71.405 17.993689
71.410 17.477634
71.415 17.19783
71.420 17.390793
71.425 17.163534
71.430 17.006174
71.435 17.1527
71.440 16.984922
71.445 17.140257
71.450 17.17823
71.455 16.944155
71.460 17.638599
71.465 17.532497
71.470 17.164928
71.475 17.519974
71.480 17.369165
71.485 16.967833
71.490 16.530909
71.495 16.039459
71.500 16.619217
71.505 16.627893
71.510 16.570732
71.515 16.93298
71.520 17.09244
71.525 17.314026
71.530 17.157833
71.535 17.115784
71.540 17.998556
71.545 17.851881
71.550 18.223196
71.555 18.218702
71.560 18.245453
71.565 18.270065
71.570 18.01268
71.575 18.037037
71.580 17.467936
71.585 17.185707
71.590 17.560844
71.595 17.93804
71.600 18.219238
71.605 18.256632
71.610 18.075914
71.615 18.314413
71.620 17.548811
71.625 17.237091
71.630 16.858696
71.635 16.607084
71.640 16.384474
71.645 16.062912
71.650 15.83397
71.655 16.532459
71.660 16.160801
71.665 15.96345
71.670 15.989564
71.675 15.790786
71.680 16.079655
71.685 16.394583
71.690 16.008904
71.695 16.641325
71.700 17.078554
71.705 17.25086
71.710 17.446789
71.715 17.27129
71.720 17.195225
71.725 17.565611
71.730 17.468632
71.735 17.539423
71.740 16.996862
71.745 17.41848
71.750 17.530827
71.755 17.503237
71.760 16.903601
71.765 16.939224
71.770 17.193508
71.775 17.395205
71.780 16.978027
71.785 17.215553
71.790 17.313217
71.795 17.745846
71.800 17.575727
71.805 17.527756
71.810 17.515888
71.815 17.486113
71.820 17.123411
71.825 16.73945
71.830 16.73724
71.835 16.736431
71.840 17.064415
71.845 17.547649
71.850 18.021034
71.855 18.531723
71.860 18.971519
71.865 19.299583
71.870 19.351038
71.875 19.070431
71.880 18.740696
71.885 18.693401
71.890 18.448439
71.895 18.088518
71.900 17.176891
71.905 16.874931
71.910 16.717131
71.915 16.936583
71.920 17.010145
71.925 16.957436
71.930 16.779039
71.935 17.334051
71.940 17.061878
71.945 16.915518
71.950 16.235939
71.955 16.462317
71.960 16.232264
71.965 16.501011
71.970 16.484324
71.975 16.770041
71.980 16.851711
71.985 16.9538
71.990 16.747116
71.995 17.214479
72.000 17.490015
72.005 17.948896
72.010 18.191877
72.015 18.385534
72.020 18.592077
72.025 18.972712
72.030 18.804348
72.035 18.065098
72.040 17.73584
72.045 18.123446
72.050 18.036953
72.055 17.816374
72.060 17.513754
72.065 17.767307
72.070 18.230742
72.075 18.258621
72.080 17.06089
72.085 16.747585
72.090 17.097794
72.095 16.781025
72.100 16.372313
72.105 16.217178
72.110 15.862898
72.115 16.126717
72.120 16.173809
72.125 15.870721
72.130 16.206333
72.135 16.444689
72.140 16.233521
72.145 16.352787
72.150 16.491661
72.155 16.571018
72.160 16.801521
72.165 16.800585
72.170 16.867712
72.175 17.289261
72.180 17.55937
72.185 17.373314
72.190 17.467785
72.195 17.621931
72.200 17.875128
72.205 17.698364
72.210 17.450651
72.215 17.397903
72.220 17.594664
72.225 17.384781
72.230 17.047697
72.235 16.681955
72.240 16.958
72.245 17.710583
72.250 17.904961
72.255 17.948269
72.260 17.898865
72.265 17.917656
72.270 17.967873
72.275 18.022697
72.280 17.766621
72.285 17.241234
72.290 17.097813
72.295 16.804977
72.300 16.354961
72.305 15.930694
72.310 15.242855
72.315 14.994457
72.320 15.33616
72.325 15.825552
72.330 15.890674
72.335 16.285078
72.340 16.748402
72.345 16.697187
72.350 17.454891
72.355 17.364912
72.360 17.397903
72.365 17.922192
72.370 17.894361
72.375 18.131422
72.380 18.259787
72.385 18.123198
72.390 18.219629
72.395 18.19149
72.400 18.220997
72.405 18.592501
72.410 18.549603
72.415 18.433428
72.420 17.577269
72.425 16.687441
72.430 16.530193
72.435 16.663475
72.440 16.429758
72.445 16.339741
72.450 16.312056
72.455 16.540043
72.460 16.987534
72.465 16.921972
72.470 16.191416
72.475 16.051884
72.480 16.090767
72.485 16.641886
72.490 16.713007
72.495 15.96724
72.500 16.185804
72.505 16.41032
72.510 16.626884
72.515 16.089901
72.520 15.779247
72.525 16.07655
72.530 16.315147
72.535 16.894463
72.540 17.018774
72.545 16.920456
72.550 17.22933
72.555 17.183567
72.560 18.104647
72.565 17.842703
72.570 17.26972
72.575 17.121952
72.580 17.52663
72.585 17.581221
72.590 17.705984
72.595 17.686367
72.600 18.170742
72.605 18.556236
72.610 18.721823
72.615 18.414505
72.620 18.085609
72.625 17.806452
72.630 17.646809
72.635 17.534565
72.640 17.106102
72.645 16.730337
72.650 16.789524
72.655 17.377077
72.660 17.711138
72.665 16.802202
72.670 16.968439
72.675 17.409981
72.680 17.708622
72.685 17.74749
72.690 17.382664
72.695 17.695009
72.700 17.770653
72.705 17.482767
72.710 16.919907
72.715 17.276541
72.720 17.164265
72.725 16.661886
72.730 16.225565
72.735 16.339401
72.740 16.568941
72.745 16.473492
72.750 15.814724
72.755 16.242697
72.760 16.229006
72.765 16.221888
72.770 15.906848
72.775 15.840406
72.780 16.026363
72.785 16.073328
72.790 15.786028
72.795 15.556797
72.800 15.439044
72.805 15.665866
72.810 15.571681
72.815 15.723164
72.820 15.789826
72.825 15.907387
72.830 16.103107
72.835 16.078924
72.840 15.716432
72.845 15.678973
72.850 15.619615
72.855 15.482615
72.860 15.67951
72.865 15.817863
72.870 16.118813
72.875 15.951275
72.880 15.900401
72.885 16.159422
72.890 16.244287
72.895 16.281534
72.900 16.412275
72.905 16.729849
72.910 16.505777
72.915 16.36425
72.920 16.314611
72.925 16.045212
72.930 16.244812
72.935 15.892773
72.940 16.107862
72.945 16.427959
72.950 16.339159
72.955 16.350124
72.960 16.018106
72.965 15.930886
72.970 16.037781
72.975 15.98692
72.980 16.224247
72.985 16.468979
72.990 16.846125
72.995 16.868305
73.000 16.811436
