!@!!GADDS PLOTSO FILE: Chi integration type
!@!!Title/SampleName: map-63
!@!!Comment: ?
!@!!User: Bruker Instrument Administrator
!@!!Site: University of Illinois Chicago
!@!!Frame: map-63_01_000.gfrm
!@!!Wavelengths    1.54184   1.54056   1.54439
!@!!Frame angles: 2Theta: 63.000 Omega: 50.000 Phi: 0.000 Chi: 90.000
!@!!Integration range: 2Theta: 53.000 to 73.000  Gamma: -105.000 to -75.000
!@!!Integration method: bin normalized
!@!N
!@!SS
!@!M
!@!L 0.0 0.0 0.0 0.0
!@!XDegrees
!@!YCounts
53.000 8.452612
53.005 8.471314
53.010 8.553714
53.015 8.334809
53.020 8.086652
53.025 7.968443
53.030 7.891687
53.035 7.508148
53.040 7.33011
53.045 7.354914
53.050 7.65533
53.055 8.017794
53.060 8.063576
53.065 8.316229
53.070 8.721318
53.075 8.834945
53.080 8.434954
53.085 8.416021
53.090 8.549382
53.095 8.449239
53.100 8.437496
53.105 8.642157
53.110 8.354761
53.115 8.279865
53.120 7.963101
53.125 7.859855
53.130 7.951952
53.135 7.692248
53.140 7.596949
53.145 7.775797
53.150 7.810296
53.155 7.75292
53.160 7.490886
53.165 6.992354
53.170 7.16387
53.175 6.952353
53.180 7.331376
53.185 7.658713
53.190 7.602758
53.195 7.778914
53.200 7.624218
53.205 7.274011
53.210 7.295656
53.215 7.760045
53.220 8.282442
53.225 8.60593
53.230 8.893267
53.235 9.561619
53.240 9.589995
53.245 9.595176
53.250 8.998277
53.255 8.477512
53.260 8.349973
53.265 8.136016
53.270 7.838758
53.275 8.631036
53.280 8.459655
53.285 9.108477
53.290 9.589871
53.295 9.642769
53.300 10.246891
53.305 10.044666
53.310 9.820796
53.315 10.412113
53.320 10.19299
53.325 10.312201
53.330 10.324492
53.335 10.199237
53.340 10.164875
53.345 10.035712
53.350 9.839453
53.355 9.844175
53.360 9.623917
53.365 9.47694
53.370 9.429633
53.375 9.558947
53.380 9.446834
53.385 9.119132
53.390 8.853164
53.395 8.831792
53.400 9.07976
53.405 8.92624
53.410 8.94437
53.415 9.01641
53.420 8.564889
53.425 8.181357
53.430 8.193493
53.435 8.040981
53.440 8.194837
53.445 7.631725
53.450 7.623719
53.455 8.107892
53.460 8.593523
53.465 8.896569
53.470 8.957084
53.475 9.357998
53.480 10.232102
53.485 10.295395
53.490 10.199896
53.495 10.173162
53.500 9.912665
53.505 9.968719
53.510 9.898888
53.515 9.18359
53.520 9.17561
53.525 8.77084
53.530 8.887052
53.535 9.15451
53.540 8.67181
53.545 8.654786
53.550 9.226255
53.555 9.070361
53.560 9.417433
53.565 9.550303
53.570 9.46805
53.575 9.728582
53.580 9.455766
53.585 9.339857
53.590 9.646414
53.595 9.341644
53.600 8.685054
53.605 8.665629
53.610 8.801292
53.615 8.710945
53.620 8.84201
53.625 8.854657
53.630 8.941115
53.635 9.063386
53.640 8.667882
53.645 8.140253
53.650 7.94919
53.655 7.202979
53.660 7.39626
53.665 7.194704
53.670 7.479216
53.675 7.812044
53.680 8.18825
53.685 8.753956
53.690 8.989343
53.695 8.835999
53.700 8.997616
53.705 8.774004
53.710 8.788369
53.715 8.463078
53.720 8.442589
53.725 8.57718
53.730 8.442982
53.735 8.669837
53.740 8.894597
53.745 8.663966
53.750 8.86479
53.755 8.889504
53.760 8.975375
53.765 9.001137
53.770 9.38467
53.775 9.481736
53.780 9.623831
53.785 9.736331
53.790 9.514647
53.795 9.578576
53.800 9.671873
53.805 8.944407
53.810 9.029469
53.815 8.891158
53.820 8.86671
53.825 8.957804
53.830 8.534585
53.835 7.934947
53.840 7.695273
53.845 7.316184
53.850 7.253034
53.855 7.041078
53.860 7.368794
53.865 7.427157
53.870 7.990862
53.875 8.603349
53.880 8.725908
53.885 9.055677
53.890 9.412645
53.895 9.342602
53.900 9.422422
53.905 9.417325
53.910 9.456367
53.915 9.427017
53.920 9.097093
53.925 9.161281
53.930 9.911051
53.935 10.296525
53.940 10.083686
53.945 10.072381
53.950 9.828388
53.955 9.84826
53.960 9.084622
53.965 8.304225
53.970 8.425315
53.975 8.953245
53.980 9.346421
53.985 9.577496
53.990 9.344237
53.995 9.524304
54.000 9.92001
54.005 9.434056
54.010 8.945716
54.015 9.05822
54.020 9.002686
54.025 9.299418
54.030 9.286698
54.035 8.894403
54.040 9.08594
54.045 8.929406
54.050 8.698986
54.055 8.747104
54.060 9.021674
54.065 8.954614
54.070 9.022749
54.075 8.984122
54.080 9.209057
54.085 9.583788
54.090 9.445514
54.095 9.376865
54.100 9.711203
54.105 10.022264
54.110 10.122531
54.115 9.968374
54.120 10.213363
54.125 10.316301
54.130 10.607884
54.135 10.79563
54.140 10.527605
54.145 10.413215
54.150 10.205993
54.155 9.913559
54.160 9.681652
54.165 8.838278
54.170 9.037396
54.175 8.809253
54.180 8.990602
54.185 8.762255
54.190 8.831917
54.195 9.024603
54.200 9.582312
54.205 9.394006
54.210 9.496194
54.215 9.649343
54.220 10.071488
54.225 10.23536
54.230 9.969553
54.235 9.77265
54.240 9.867768
54.245 10.023783
54.250 10.230429
54.255 10.016578
54.260 9.663033
54.265 9.581509
54.270 9.728267
54.275 10.085111
54.280 10.261721
54.285 10.019249
54.290 10.316637
54.295 10.508339
54.300 10.59215
54.305 10.559937
54.310 10.475471
54.315 10.27192
54.320 10.274014
54.325 10.356139
54.330 10.802246
54.335 10.980057
54.340 10.810388
54.345 10.730307
54.350 10.916277
54.355 11.01287
54.360 10.528612
54.365 10.288741
54.370 10.70575
54.375 10.969039
54.380 10.851636
54.385 10.419374
54.390 10.656335
54.395 10.401267
54.400 9.989738
54.405 9.967331
54.410 9.927401
54.415 9.648993
54.420 9.85651
54.425 9.900143
54.430 10.395327
54.435 10.11671
54.440 9.427542
54.445 9.32911
54.450 9.27425
54.455 8.54577
54.460 8.089242
54.465 8.342917
54.470 8.958116
54.475 9.060092
54.480 9.193081
54.485 9.853646
54.490 10.301561
54.495 10.348711
54.500 9.728927
54.505 9.605939
54.510 9.829889
54.515 9.894546
54.520 9.589471
54.525 9.896994
54.530 10.187122
54.535 10.352259
54.540 10.606449
54.545 10.431783
54.550 10.382648
54.555 10.48811
54.560 10.638157
54.565 10.787423
54.570 10.81584
54.575 10.938351
54.580 11.302405
54.585 11.2097
54.590 10.862514
54.595 10.613445
54.600 10.566023
54.605 10.361012
54.610 9.307645
54.615 9.145266
54.620 8.917299
54.625 8.762553
54.630 8.746814
54.635 8.68004
54.640 9.097654
54.645 9.818421
54.650 10.106221
54.655 10.59794
54.660 10.983946
54.665 10.735344
54.670 10.900577
54.675 10.793977
54.680 10.710051
54.685 10.410214
54.690 10.429723
54.695 10.698074
54.700 10.827385
54.705 10.87769
54.710 11.293914
54.715 11.11267
54.720 11.377606
54.725 11.444357
54.730 11.351013
54.735 11.766113
54.740 11.719466
54.745 11.804473
54.750 12.021869
54.755 11.631827
54.760 11.737081
54.765 11.656451
54.770 10.971821
54.775 10.431726
54.780 10.16869
54.785 10.114023
54.790 10.355494
54.795 10.023227
54.800 10.140381
54.805 10.075401
54.810 9.543149
54.815 9.022907
54.820 9.098762
54.825 9.025537
54.830 8.771038
54.835 8.632113
54.840 9.022501
54.845 9.958997
54.850 10.141386
54.855 9.799282
54.860 9.437344
54.865 9.379056
54.870 9.347528
54.875 9.376102
54.880 9.641282
54.885 9.654345
54.890 9.816723
54.895 10.534425
54.900 10.978887
54.905 10.871933
54.910 10.692866
54.915 10.008514
54.920 9.86466
54.925 9.573151
54.930 9.181862
54.935 8.955465
54.940 9.284166
54.945 9.535803
54.950 10.431697
54.955 10.968567
54.960 10.923965
54.965 10.954114
54.970 11.508467
54.975 11.403902
54.980 11.317447
54.985 10.750582
54.990 10.238468
54.995 10.657465
55.000 10.449718
55.005 10.060261
55.010 9.905081
55.015 10.085955
55.020 10.00674
55.025 10.602289
55.030 10.473454
55.035 10.604462
55.040 10.703093
55.045 10.77634
55.050 10.287109
55.055 10.197253
55.060 10.071939
55.065 10.407633
55.070 9.903405
55.075 9.731807
55.080 9.735204
55.085 10.455237
55.090 10.991079
55.095 10.630313
55.100 10.766781
55.105 11.210791
55.110 11.378734
55.115 11.691797
55.120 11.112308
55.125 10.714595
55.130 10.733541
55.135 11.197254
55.140 11.2259
55.145 10.85379
55.150 10.258625
55.155 10.480749
55.160 10.45817
55.165 10.511013
55.170 10.113614
55.175 10.242387
55.180 10.835423
55.185 11.391195
55.190 11.90121
55.195 12.225127
55.200 12.142009
55.205 12.216753
55.210 12.364841
55.215 12.069103
55.220 11.516647
55.225 11.316519
55.230 11.068268
55.235 11.191807
55.240 11.022202
55.245 10.693111
55.250 10.304148
55.255 10.501992
55.260 10.391965
55.265 10.431014
55.270 10.80892
55.275 11.122327
55.280 11.494344
55.285 12.159885
55.290 12.549118
55.295 12.925714
55.300 12.439337
55.305 11.729584
55.310 11.16749
55.315 10.226228
55.320 10.025576
55.325 9.546139
55.330 9.4962
55.335 9.923626
55.340 10.029985
55.345 10.746617
55.350 11.480555
55.355 11.628514
55.360 11.471887
55.365 11.666591
55.370 11.769825
55.375 11.891746
55.380 11.772779
55.385 11.549192
55.390 11.440008
55.395 11.435857
55.400 10.961204
55.405 10.69983
55.410 10.515813
55.415 10.240115
55.420 10.092233
55.425 10.100676
55.430 9.787074
55.435 10.001516
55.440 10.611949
55.445 10.878553
55.450 11.140072
55.455 11.075623
55.460 10.807231
55.465 10.701632
55.470 10.077722
55.475 9.378697
55.480 9.454466
55.485 9.594574
55.490 9.831944
55.495 10.284504
55.500 10.56741
55.505 10.76795
55.510 11.243754
55.515 11.182852
55.520 10.974016
55.525 10.673577
55.530 10.592237
55.535 10.566939
55.540 11.103662
55.545 10.88391
55.550 11.05342
55.555 11.607795
55.560 11.471369
55.565 11.711798
55.570 12.107211
55.575 11.751664
55.580 11.872127
55.585 11.941875
55.590 11.54634
55.595 11.466931
55.600 11.199465
55.605 10.750763
55.610 10.638915
55.615 10.572538
55.620 9.960436
55.625 9.804601
55.630 10.008201
55.635 10.788016
55.640 10.798548
55.645 10.807556
55.650 10.725851
55.655 10.915285
55.660 11.196142
55.665 11.387399
55.670 10.785883
55.675 11.04964
55.680 11.369602
55.685 11.441331
55.690 11.654761
55.695 11.323757
55.700 10.938452
55.705 10.804132
55.710 10.069956
55.715 9.869977
55.720 9.868071
55.725 10.351682
55.730 10.429247
55.735 10.462933
55.740 10.662468
55.745 11.28406
55.750 11.274308
55.755 11.41363
55.760 10.892499
55.765 10.962076
55.770 10.822798
55.775 10.887179
55.780 11.221702
55.785 11.531259
55.790 11.278392
55.795 11.343719
55.800 11.341431
55.805 11.522082
55.810 10.90893
55.815 10.360696
55.820 10.308306
55.825 10.275683
55.830 10.22078
55.835 10.277205
55.840 10.72771
55.845 11.89695
55.850 11.792486
55.855 11.703269
55.860 11.838249
55.865 11.869564
55.870 11.885038
55.875 11.708942
55.880 11.296726
55.885 11.707348
55.890 11.747003
55.895 11.698783
55.900 12.016131
55.905 12.172665
55.910 11.491736
55.915 11.519415
55.920 11.443844
55.925 11.522399
55.930 11.742959
55.935 11.665287
55.940 11.618505
55.945 12.079927
55.950 11.897837
55.955 11.962064
55.960 12.064588
55.965 12.114883
55.970 12.047207
55.975 11.895995
55.980 11.618099
55.985 12.078062
55.990 12.090314
55.995 11.843528
56.000 11.133303
56.005 11.333486
56.010 11.466481
56.015 11.391448
56.020 10.962391
56.025 11.36396
56.030 11.884245
56.035 12.411783
56.040 12.471995
56.045 12.667775
56.050 13.000228
56.055 12.914947
56.060 12.414235
56.065 12.127181
56.070 11.726871
56.075 11.801682
56.080 11.845744
56.085 11.553529
56.090 11.357428
56.095 11.4544
56.100 11.73942
56.105 12.084521
56.110 11.587928
56.115 11.573809
56.120 11.737591
56.125 11.988093
56.130 11.868414
56.135 11.631548
56.140 11.508034
56.145 11.690328
56.150 11.779815
56.155 11.777232
56.160 12.228963
56.165 12.482309
56.170 12.263463
56.175 12.614403
56.180 12.309757
56.185 12.565319
56.190 12.764843
56.195 12.493661
56.200 12.590702
56.205 12.963916
56.210 12.859653
56.215 13.269605
56.220 13.358582
56.225 13.600101
56.230 13.719628
56.235 13.708462
56.240 13.410895
56.245 13.948501
56.250 14.104964
56.255 13.870048
56.260 13.164676
56.265 12.95671
56.270 12.987113
56.275 13.102272
56.280 12.584162
56.285 12.218239
56.290 12.380174
56.295 12.499224
56.300 12.313313
56.305 12.277061
56.310 12.171161
56.315 12.135681
56.320 12.259266
56.325 11.827416
56.330 11.879674
56.335 12.354241
56.340 13.144249
56.345 13.53467
56.350 13.772706
56.355 13.777606
56.360 13.743551
56.365 13.440161
56.370 13.056765
56.375 12.582137
56.380 12.583945
56.385 12.02087
56.390 11.779104
56.395 12.061823
56.400 12.446445
56.405 12.560365
56.410 12.266118
56.415 11.903082
56.420 12.170342
56.425 12.580627
56.430 12.925595
56.435 12.329379
56.440 12.195115
56.445 12.338964
56.450 13.0971
56.455 13.561193
56.460 13.104023
56.465 12.662854
56.470 12.626067
56.475 12.488671
56.480 12.404325
56.485 11.857565
56.490 11.577538
56.495 12.234355
56.500 13.088115
56.505 13.475743
56.510 13.500631
56.515 13.235166
56.520 13.470009
56.525 14.162643
56.530 14.113249
56.535 14.157258
56.540 14.440262
56.545 14.327948
56.550 14.353261
56.555 14.056378
56.560 13.412522
56.565 13.126127
56.570 12.595823
56.575 12.513134
56.580 12.515576
56.585 12.467587
56.590 12.837433
56.595 12.693116
56.600 12.316495
56.605 11.798013
56.610 11.47089
56.615 12.076043
56.620 12.197984
56.625 12.391155
56.630 13.051723
56.635 13.493253
56.640 13.830826
56.645 13.951563
56.650 13.371829
56.655 13.017363
56.660 12.729546
56.665 12.230296
56.670 11.933733
56.675 12.066999
56.680 12.266394
56.685 12.676479
56.690 12.504092
56.695 12.467685
56.700 12.352983
56.705 12.671454
56.710 12.284907
56.715 11.945531
56.720 12.004076
56.725 12.24053
56.730 12.381275
56.735 12.609453
56.740 12.789279
56.745 12.906246
56.750 13.209623
56.755 12.871791
56.760 12.979848
56.765 12.743066
56.770 12.901957
56.775 13.087818
56.780 13.224628
56.785 13.08704
56.790 12.781965
56.795 12.487227
56.800 12.166142
56.805 11.314799
56.810 10.78192
56.815 11.121242
56.820 10.877904
56.825 10.977661
56.830 11.186063
56.835 11.588254
56.840 12.300013
56.845 12.590039
56.850 12.501038
56.855 13.158264
56.860 13.14184
56.865 12.922219
56.870 13.032839
56.875 12.71758
56.880 12.585896
56.885 12.206034
56.890 12.117651
56.895 12.132961
56.900 12.365848
56.905 12.651955
56.910 12.870707
56.915 12.960474
56.920 13.055186
56.925 13.054219
56.930 13.190549
56.935 13.245733
56.940 12.659564
56.945 12.734908
56.950 12.841771
56.955 12.931473
56.960 13.017818
56.965 12.493333
56.970 13.250918
56.975 13.914434
56.980 13.918488
56.985 13.843048
56.990 13.912994
56.995 13.894517
57.000 13.853705
57.005 13.023518
57.010 12.767146
57.015 12.836346
57.020 12.507215
57.025 12.291371
57.030 12.579701
57.035 12.717016
57.040 13.181251
57.045 12.827389
57.050 12.857967
57.055 13.516945
57.060 13.302365
57.065 13.147117
57.070 13.028333
57.075 12.571276
57.080 12.949088
57.085 12.711135
57.090 12.303265
57.095 12.826731
57.100 13.114573
57.105 13.167594
57.110 13.429098
57.115 13.190475
57.120 13.278599
57.125 13.230517
57.130 12.54003
57.135 12.175878
57.140 11.930221
57.145 11.461475
57.150 11.584253
57.155 12.139998
57.160 11.976723
57.165 12.203935
57.170 12.519864
57.175 12.889991
57.180 12.944738
57.185 12.676765
57.190 12.241356
57.195 12.849703
57.200 12.857467
57.205 12.53476
57.210 12.714615
57.215 13.089407
57.220 13.403147
57.225 13.520661
57.230 13.702535
57.235 14.064582
57.240 14.023144
57.245 13.598181
57.250 13.635083
57.255 13.733002
57.260 13.642693
57.265 13.49794
57.270 13.382438
57.275 13.527108
57.280 13.634759
57.285 13.513209
57.290 12.939141
57.295 13.227383
57.300 13.135842
57.305 13.30922
57.310 13.479562
57.315 13.247886
57.320 13.646712
57.325 13.973843
57.330 14.014786
57.335 13.725434
57.340 13.575945
57.345 13.689771
57.350 14.020586
57.355 13.605201
57.360 13.480786
57.365 13.068728
57.370 12.966286
57.375 12.920516
57.380 12.884962
57.385 13.189001
57.390 13.551882
57.395 13.780375
57.400 14.022525
57.405 14.044826
57.410 14.044232
57.415 14.150771
57.420 14.054902
57.425 13.678123
57.430 13.459287
57.435 13.30972
57.440 13.707508
57.445 13.32528
57.450 12.789648
57.455 12.454685
57.460 12.567574
57.465 12.341933
57.470 12.659522
57.475 12.396776
57.480 12.313386
57.485 12.418538
57.490 12.372987
57.495 12.523259
57.500 12.765315
57.505 12.724953
57.510 12.916939
57.515 13.22309
57.520 12.636111
57.525 12.965489
57.530 13.644883
57.535 14.201484
57.540 14.291425
57.545 14.690596
57.550 15.376748
57.555 16.952597
57.560 16.614519
57.565 16.073101
57.570 15.688204
57.575 15.502606
57.580 14.979417
57.585 14.121983
57.590 13.285566
57.595 13.448931
57.600 13.24682
57.605 12.99222
57.610 12.775581
57.615 12.983405
57.620 13.147088
57.625 13.357601
57.630 13.69362
57.635 13.993955
57.640 14.078499
57.645 14.299802
57.650 14.668223
57.655 14.697005
57.660 14.405956
57.665 14.230918
57.670 14.006866
57.675 14.131288
57.680 14.173053
57.685 14.041604
57.690 14.439602
57.695 14.673208
57.700 14.690998
57.705 15.14676
57.710 15.115479
57.715 14.811739
57.720 14.393491
57.725 14.251818
57.730 13.681586
57.735 13.632627
57.740 13.711801
57.745 14.025951
57.750 14.632936
57.755 15.06762
57.760 15.288732
57.765 15.63868
57.770 15.389812
57.775 15.451432
57.780 15.399871
57.785 15.087532
57.790 14.825003
57.795 14.455625
57.800 14.308824
57.805 14.65852
57.810 14.446283
57.815 14.33604
57.820 14.367432
57.825 14.23068
57.830 13.913635
57.835 13.641404
57.840 13.3074
57.845 13.427975
57.850 13.461366
57.855 13.685805
57.860 13.982689
57.865 14.421927
57.870 14.714134
57.875 14.794892
57.880 14.621702
57.885 14.399839
57.890 14.257481
57.895 14.388918
57.900 14.131628
57.905 13.991317
57.910 14.1612
57.915 13.973869
57.920 13.642548
57.925 13.3091
57.930 12.8018
57.935 12.839614
57.940 12.688527
57.945 12.241557
57.950 12.298321
57.955 12.704221
57.960 13.467985
57.965 13.737402
57.970 13.672976
57.975 13.644827
57.980 13.961013
57.985 14.546093
57.990 14.844729
57.995 14.573512
58.000 14.412495
58.005 14.857221
58.010 14.767982
58.015 14.656337
58.020 14.130745
58.025 13.64486
58.030 13.756585
58.035 13.881529
58.040 13.808077
58.045 13.901479
58.050 14.297964
58.055 14.802982
58.060 14.790194
58.065 14.242117
58.070 14.406993
58.075 14.614479
58.080 14.642292
58.085 14.488581
58.090 14.080171
58.095 14.054169
58.100 14.438492
58.105 14.261042
58.110 14.186755
58.115 14.079902
58.120 13.856692
58.125 14.015608
58.130 14.513597
58.135 14.876209
58.140 15.16134
58.145 14.62664
58.150 14.853587
58.155 15.215574
58.160 15.489264
58.165 15.604836
58.170 15.480794
58.175 15.234249
58.180 15.527506
58.185 15.290166
58.190 14.859968
58.195 14.247652
58.200 13.882393
58.205 14.315389
58.210 14.978805
58.215 15.280185
58.220 15.20242
58.225 15.264362
58.230 15.872337
58.235 15.897894
58.240 15.391887
58.245 14.881756
58.250 14.273771
58.255 14.572329
58.260 14.685528
58.265 14.11397
58.270 13.955194
58.275 13.874635
58.280 14.267761
58.285 14.834653
58.290 14.516407
58.295 14.338037
58.300 14.450263
58.305 14.455635
58.310 14.205108
58.315 13.18105
58.320 12.984331
58.325 13.481629
58.330 13.532296
58.335 13.370897
58.340 13.191597
58.345 12.927895
58.350 12.952957
58.355 12.989455
58.360 12.926753
58.365 13.218679
58.370 13.146082
58.375 13.169558
58.380 14.169281
58.385 14.862
58.390 14.5206
58.395 13.774186
58.400 13.478211
58.405 13.252397
58.410 13.202925
58.415 12.731941
58.420 12.571893
58.425 13.194643
58.430 14.064599
58.435 14.806032
58.440 15.195679
58.445 15.153883
58.450 15.025513
58.455 15.101275
58.460 15.045626
58.465 15.070256
58.470 14.982279
58.475 15.522286
58.480 15.571873
58.485 14.808598
58.490 14.522222
58.495 14.28658
58.500 13.469682
58.505 13.1958
58.510 13.221055
58.515 13.7251
58.520 14.594502
58.525 15.059048
58.530 15.141163
58.535 15.413938
58.540 15.175843
58.545 15.243579
58.550 15.940768
58.555 16.666473
58.560 16.942934
58.565 16.941772
58.570 17.001413
58.575 17.251873
58.580 16.945143
58.585 16.340099
58.590 15.562472
58.595 15.849424
58.600 15.903342
58.605 15.872012
58.610 15.680336
58.615 15.342254
58.620 15.004602
58.625 15.188983
58.630 14.471917
58.635 14.555862
58.640 14.467896
58.645 14.718852
58.650 14.578235
58.655 14.974464
58.660 14.906809
58.665 15.224131
58.670 15.19559
58.675 15.461168
58.680 15.429379
58.685 15.79477
58.690 15.822649
58.695 15.867642
58.700 15.967641
58.705 16.387972
58.710 16.507391
58.715 16.598873
58.720 16.125029
58.725 15.731066
58.730 15.617378
58.735 15.271026
58.740 15.459348
58.745 15.18244
58.750 15.189378
58.755 15.220243
58.760 15.017052
58.765 15.031196
58.770 14.95575
58.775 14.359892
58.780 14.333386
58.785 14.316177
58.790 14.77781
58.795 15.209839
58.800 15.088506
58.805 15.265485
58.810 15.285868
58.815 15.279981
58.820 15.724084
58.825 15.710816
58.830 15.45915
58.835 15.674505
58.840 15.632914
58.845 15.703996
58.850 15.88351
58.855 15.509166
58.860 15.251739
58.865 15.223633
58.870 14.827754
58.875 14.350844
58.880 14.28752
58.885 14.59801
58.890 14.267026
58.895 14.427632
58.900 14.399942
58.905 14.392061
58.910 14.235631
58.915 14.046808
58.920 13.692024
58.925 14.093177
58.930 14.08547
58.935 13.893966
58.940 14.19609
58.945 14.819028
58.950 15.417463
58.955 15.64476
58.960 15.968307
58.965 16.491096
58.970 16.929201
58.975 16.988314
58.980 16.629707
58.985 16.312471
58.990 16.24016
58.995 16.179028
59.000 15.889053
59.005 16.39286
59.010 16.323092
59.015 16.2262
59.020 16.226585
59.025 16.049374
59.030 15.59628
59.035 15.563938
59.040 15.338751
59.045 15.664757
59.050 15.895287
59.055 16.031424
59.060 16.0121
59.065 16.315941
59.070 16.510084
59.075 16.566116
59.080 17.075811
59.085 17.041113
59.090 16.318048
59.095 16.480927
59.100 16.485926
59.105 16.662409
59.110 16.424288
59.115 15.931294
59.120 16.35836
59.125 16.749636
59.130 16.839382
59.135 16.588091
59.140 16.336014
59.145 16.940977
59.150 17.336533
59.155 17.47595
59.160 17.788074
59.165 17.487804
59.170 17.618208
59.175 17.548359
59.180 17.078131
59.185 16.221354
59.190 15.88076
59.195 15.852043
59.200 16.097912
59.205 16.382681
59.210 16.146324
59.215 15.819493
59.220 16.317934
59.225 16.701733
59.230 16.470747
59.235 16.078646
59.240 15.790478
59.245 16.111265
59.250 16.180277
59.255 16.331764
59.260 16.414776
59.265 16.706564
59.270 17.153183
59.275 17.490145
59.280 17.009634
59.285 17.307585
59.290 16.860588
59.295 15.949044
59.300 16.262783
59.305 16.583864
59.310 16.252453
59.315 16.474024
59.320 16.133627
59.325 16.214155
59.330 16.641739
59.335 16.44039
59.340 16.618412
59.345 16.634438
59.350 17.125395
59.355 17.86047
59.360 18.577423
59.365 18.636858
59.370 18.419149
59.375 17.975088
59.380 18.062641
59.385 17.774214
59.390 17.11466
59.395 16.718216
59.400 16.736515
59.405 16.695309
59.410 17.111948
59.415 17.600927
59.420 18.053171
59.425 17.995533
59.430 18.224232
59.435 18.587151
59.440 18.825804
59.445 18.827948
59.450 19.085682
59.455 19.176611
59.460 19.626047
59.465 19.763395
59.470 19.917503
59.475 19.462212
59.480 19.284723
59.485 18.933126
59.490 19.006451
59.495 19.416885
59.500 18.892866
59.505 18.633232
59.510 18.785814
59.515 17.980574
59.520 17.728794
59.525 17.289186
59.530 17.085897
59.535 17.492121
59.540 17.186769
59.545 17.303543
59.550 17.955801
59.555 17.536018
59.560 17.434933
59.565 17.072355
59.570 16.819548
59.575 17.149849
59.580 17.323942
59.585 17.210192
59.590 17.713581
59.595 18.047668
59.600 18.272041
59.605 18.471395
59.610 18.527525
59.615 19.107275
59.620 19.172312
59.625 18.830549
59.630 18.74353
59.635 19.237137
59.640 19.749186
59.645 19.690496
59.650 19.107128
59.655 18.895359
59.660 19.178646
59.665 19.135714
59.670 18.547644
59.675 18.521727
59.680 18.954079
59.685 19.272192
59.690 19.39283
59.695 19.719664
59.700 20.995131
59.705 20.835831
59.710 20.388947
59.715 19.844269
59.720 20.885401
59.725 21.395241
59.730 21.521801
59.735 21.429644
59.740 22.250542
59.745 22.785362
59.750 22.47748
59.755 21.4158
59.760 21.154354
59.765 20.905296
59.770 20.448959
59.775 20.018665
59.780 20.188774
59.785 21.227425
59.790 21.811199
59.795 21.64217
59.800 21.754313
59.805 21.448074
59.810 21.487326
59.815 21.419712
59.820 21.772997
59.825 21.918146
59.830 22.637379
59.835 22.620543
59.840 23.338026
59.845 23.688488
59.850 23.784321
59.855 23.331291
59.860 23.111839
59.865 22.585855
59.870 22.674984
59.875 22.319405
59.880 22.188707
59.885 22.037788
59.890 21.799021
59.895 21.926966
59.900 22.233768
59.905 21.944717
59.910 22.342707
59.915 22.791046
59.920 22.50844
59.925 22.70208
59.930 22.736994
59.935 22.778521
59.940 22.930805
59.945 22.478073
59.950 21.913855
59.955 22.196602
59.960 22.200598
59.965 21.907034
59.970 21.518053
59.975 21.096523
59.980 21.035873
59.985 21.48889
59.990 21.499144
59.995 21.122713
60.000 21.347219
60.005 21.941067
60.010 22.324808
60.015 23.037537
60.020 22.91345
60.025 23.02688
60.030 23.464252
60.035 23.328575
60.040 23.459127
60.045 23.717192
60.050 23.549891
60.055 23.930325
60.060 23.886745
60.065 23.49522
60.070 23.531717
60.075 23.707695
60.080 23.299831
60.085 23.53113
60.090 22.807913
60.095 22.739521
60.100 23.010622
60.105 23.086102
60.110 22.662645
60.115 22.391857
60.120 21.627991
60.125 22.09993
60.130 21.892038
60.135 21.907755
60.140 21.703564
60.145 21.527857
60.150 21.682987
60.155 21.950483
60.160 21.56218
60.165 21.495073
60.170 21.419458
60.175 21.304609
60.180 21.503433
60.185 21.460533
60.190 21.786354
60.195 22.437702
60.200 22.567915
60.205 22.504219
60.210 22.30652
60.215 21.852268
60.220 21.298573
60.225 20.754213
60.230 20.265802
60.235 20.426117
60.240 20.692554
60.245 21.155928
60.250 21.299854
60.255 21.193045
60.260 21.050377
60.265 21.31246
60.270 21.398224
60.275 21.433582
60.280 21.565344
60.285 21.977659
60.290 22.261513
60.295 22.546211
60.300 22.059221
60.305 21.281837
60.310 21.228682
60.315 21.051794
60.320 20.523649
60.325 20.563795
60.330 20.359676
60.335 20.658478
60.340 20.5063
60.345 19.999651
60.350 20.252073
60.355 20.523525
60.360 20.513376
60.365 20.206257
60.370 20.044319
60.375 20.134804
60.380 20.168512
60.385 19.19898
60.390 19.443457
60.395 20.11993
60.400 19.436977
60.405 19.224182
60.410 19.261305
60.415 19.141171
60.420 19.626564
60.425 19.253395
60.430 18.584579
60.435 19.12438
60.440 19.635607
60.445 19.729401
60.450 19.920195
60.455 20.184652
60.460 20.167324
60.465 19.910122
60.470 19.687529
60.475 19.738302
60.480 19.562372
60.485 19.482317
60.490 19.219027
60.495 18.705868
60.500 18.499908
60.505 18.48468
60.510 18.400545
60.515 18.923107
60.520 18.584633
60.525 18.542261
60.530 19.183792
60.535 19.241154
60.540 19.440195
60.545 19.027102
60.550 18.511158
60.555 18.287062
60.560 18.349739
60.565 18.004194
60.570 17.846535
60.575 17.773113
60.580 17.785986
60.585 18.048752
60.590 18.165373
60.595 18.33436
60.600 18.602673
60.605 18.577116
60.610 18.604713
60.615 18.593948
60.620 18.526505
60.625 18.695187
60.630 18.827337
60.635 18.667299
60.640 18.74572
60.645 19.259985
60.650 19.193565
60.655 19.044046
60.660 18.7169
60.665 18.394928
60.670 18.507767
60.675 18.649094
60.680 18.53364
60.685 18.577219
60.690 18.48576
60.695 17.917128
60.700 17.227566
60.705 17.254055
60.710 16.441248
60.715 15.519696
60.720 15.107199
60.725 15.391273
60.730 16.254591
60.735 16.998838
60.740 17.435837
60.745 17.834328
60.750 18.386707
60.755 18.089857
60.760 17.954319
60.765 18.363337
60.770 18.223154
60.775 17.620075
60.780 17.569929
60.785 16.912313
60.790 17.073875
60.795 16.866604
60.800 15.534585
60.805 15.086899
60.810 15.285293
60.815 15.466227
60.820 16.349892
60.825 16.316494
60.830 16.766483
60.835 17.613478
60.840 17.830194
60.845 17.798092
60.850 17.933413
60.855 17.973635
60.860 18.467825
60.865 18.201559
60.870 17.909214
60.875 18.089279
60.880 18.404417
60.885 18.36343
60.890 18.263681
60.895 17.920958
60.900 17.719931
60.905 17.633661
60.910 17.656889
60.915 16.905687
60.920 16.656784
60.925 16.382696
60.930 16.166121
60.935 15.943558
60.940 15.273532
60.945 14.567532
60.950 14.860047
60.955 14.96284
60.960 14.749617
60.965 14.522069
60.970 14.982188
60.975 15.470753
60.980 15.801418
60.985 15.696523
60.990 15.752601
60.995 16.290157
61.000 16.744965
61.005 16.917105
61.010 16.295341
61.015 16.273743
61.020 16.891365
61.025 16.426714
61.030 16.146973
61.035 16.118664
61.040 16.355877
61.045 17.152586
61.050 16.905537
61.055 16.496311
61.060 15.985349
61.065 16.079889
61.070 16.246758
61.075 15.86743
61.080 15.960522
61.085 16.376204
61.090 16.84127
61.095 17.464607
61.100 17.57563
61.105 17.635561
61.110 17.555426
61.115 17.99181
61.120 17.529226
61.125 17.023466
61.130 17.036274
61.135 16.778896
61.140 16.529585
61.145 16.68033
61.150 16.219187
61.155 16.500204
61.160 16.603411
61.165 16.83095
61.170 17.114229
61.175 17.038881
61.180 16.914726
61.185 16.7918
61.190 16.921757
61.195 16.720453
61.200 16.755722
61.205 16.156544
61.210 16.007835
61.215 16.366123
61.220 16.913988
61.225 16.636126
61.230 17.021805
61.235 16.942591
61.240 16.962902
61.245 17.434202
61.250 17.163179
61.255 16.677431
61.260 17.05262
61.265 17.072107
61.270 17.342524
61.275 18.201199
61.280 17.348639
61.285 17.25111
61.290 17.534988
61.295 17.442839
61.300 17.219849
61.305 16.814743
61.310 16.226238
61.315 16.813192
61.320 17.177124
61.325 17.100761
61.330 16.824724
61.335 16.800343
61.340 17.086367
61.345 17.368725
61.350 17.444235
61.355 17.508373
61.360 17.538628
61.365 17.981012
61.370 18.045223
61.375 18.059866
61.380 18.371109
61.385 18.459948
61.390 18.065681
61.395 17.9184
61.400 17.77014
61.405 17.485493
61.410 17.082855
61.415 16.24119
61.420 15.280558
61.425 15.36937
61.430 15.394242
61.435 15.090524
61.440 14.979863
61.445 14.840322
61.450 14.952815
61.455 15.413877
61.460 15.285762
61.465 15.371214
61.470 16.262802
61.475 16.857134
61.480 16.673817
61.485 16.958754
61.490 17.191814
61.495 17.040649
61.500 16.692774
61.505 15.722714
61.510 15.346161
61.515 15.290694
61.520 15.370833
61.525 15.369203
61.530 15.604556
61.535 15.516192
61.540 15.829728
61.545 15.993915
61.550 16.652771
61.555 16.523565
61.560 16.603081
61.565 17.005213
61.570 17.130697
61.575 17.653374
61.580 18.108086
61.585 17.552629
61.590 17.428711
61.595 16.969864
61.600 16.480783
61.605 16.412407
61.610 15.85164
61.615 15.672103
61.620 16.141399
61.625 16.047796
61.630 16.157732
61.635 15.85358
61.640 15.413118
61.645 15.370317
61.650 15.297954
61.655 15.121203
61.660 15.264228
61.665 15.258821
61.670 15.489136
61.675 16.025755
61.680 16.11113
61.685 15.914765
61.690 16.183374
61.695 16.494762
61.700 17.035244
61.705 17.250761
61.710 16.986263
61.715 16.772223
61.720 16.494925
61.725 15.898259
61.730 15.568794
61.735 14.955638
61.740 15.020723
61.745 14.989804
61.750 15.134963
61.755 15.368826
61.760 15.675615
61.765 15.602799
61.770 15.503621
61.775 15.691496
61.780 15.861568
61.785 15.791422
61.790 15.621434
61.795 15.803324
61.800 16.508095
61.805 17.019873
61.810 17.00716
61.815 17.614126
61.820 18.698668
61.825 19.223616
61.830 19.096474
61.835 18.216944
61.840 17.964647
61.845 17.647449
61.850 17.250246
61.855 16.512186
61.860 16.049593
61.865 16.524572
61.870 16.893784
61.875 17.064621
61.880 17.188957
61.885 17.237953
61.890 17.644047
61.895 17.237574
61.900 16.742199
61.905 17.026979
61.910 17.550871
61.915 17.667356
61.920 17.325148
61.925 16.568356
61.930 17.094452
61.935 17.371893
61.940 16.854486
61.945 16.435486
61.950 16.198704
61.955 16.410597
61.960 16.742899
61.965 16.698824
61.970 16.670301
61.975 17.02327
61.980 16.813522
61.985 17.084658
61.990 17.197865
61.995 17.398981
62.000 17.163321
62.005 17.341099
62.010 17.225389
62.015 17.49374
62.020 17.233212
62.025 16.997025
62.030 16.842091
62.035 16.557249
62.040 16.164722
62.045 16.000547
62.050 15.716303
62.055 16.00004
62.060 16.03126
62.065 16.142521
62.070 16.269203
62.075 15.803822
62.080 15.949467
62.085 15.967682
62.090 15.599962
62.095 15.641361
62.100 15.179759
62.105 15.585114
62.110 16.143721
62.115 16.174341
62.120 16.549335
62.125 16.83473
62.130 16.587154
62.135 16.414152
62.140 16.299744
62.145 16.050665
62.150 16.165411
62.155 15.92605
62.160 16.013247
62.165 16.493971
62.170 17.014145
62.175 17.376352
62.180 17.300434
62.185 16.989122
62.190 16.992949
62.195 17.197145
62.200 17.036636
62.205 16.539789
62.210 16.5842
62.215 17.287588
62.220 17.478458
62.225 17.13504
62.230 16.959421
62.235 17.482254
62.240 17.821362
62.245 17.895901
62.250 18.016323
62.255 17.609665
62.260 17.590332
62.265 17.29188
62.270 16.913568
62.275 17.298368
62.280 16.782309
62.285 16.591005
62.290 16.894974
62.295 17.098146
62.300 17.129549
62.305 16.958857
62.310 16.259554
62.315 15.957685
62.320 15.719922
62.325 15.645459
62.330 15.650892
62.335 15.947999
62.340 16.39576
62.345 16.575228
62.350 16.581631
62.355 16.731031
62.360 17.455105
62.365 17.726511
62.370 17.443644
62.375 16.973942
62.380 17.336651
62.385 16.9799
62.390 16.679945
62.395 16.563484
62.400 16.606382
62.405 17.020353
62.410 17.300907
62.415 17.496159
62.420 17.640392
62.425 17.803913
62.430 17.223103
62.435 17.145309
62.440 16.841372
62.445 17.072079
62.450 17.490854
62.455 17.776924
62.460 17.913589
62.465 18.168589
62.470 18.401548
62.475 18.623978
62.480 17.927847
62.485 17.341839
62.490 17.488104
62.495 17.411444
62.500 17.381517
62.505 17.121813
62.510 17.190426
62.515 18.333347
62.520 18.549114
62.525 18.677902
62.530 18.358345
62.535 18.343914
62.540 18.609192
62.545 18.343161
62.550 17.768599
62.555 17.870306
62.560 17.616064
62.565 17.327963
62.570 17.010227
62.575 16.464357
62.580 16.126799
62.585 15.765847
62.590 15.342443
62.595 15.631314
62.600 15.673971
62.605 15.940106
62.610 16.502285
62.615 17.251589
62.620 18.00687
62.625 17.881012
62.630 17.779821
62.635 17.748957
62.640 17.87676
62.645 17.840002
62.650 17.649015
62.655 17.765432
62.660 17.927505
62.665 18.182869
62.670 18.84857
62.675 18.811455
62.680 18.255625
62.685 18.064188
62.690 17.978117
62.695 17.964039
62.700 17.741108
62.705 17.120733
62.710 17.122276
62.715 17.649067
62.720 17.654179
62.725 17.597185
62.730 17.967203
62.735 18.195177
62.740 18.308636
62.745 18.005766
62.750 17.656685
62.755 17.941727
62.760 17.735615
62.765 18.027245
62.770 17.940996
62.775 17.995865
62.780 17.894876
62.785 17.812845
62.790 17.211388
62.795 17.144186
62.800 17.091635
62.805 17.260149
62.810 17.123436
62.815 17.132879
62.820 16.845514
62.825 17.272007
62.830 17.671619
62.835 16.910793
62.840 17.017065
62.845 17.13418
62.850 17.126043
62.855 17.808439
62.860 17.642412
62.865 17.009306
62.870 17.05748
62.875 16.818073
62.880 16.718454
62.885 16.714563
62.890 17.014143
62.895 17.051094
62.900 17.308151
62.905 17.241089
62.910 17.227638
62.915 17.298197
62.920 16.888699
62.925 15.747714
62.930 15.917161
62.935 15.989505
62.940 16.4548
62.945 16.753422
62.950 16.757334
62.955 16.972717
62.960 17.062525
62.965 16.263533
62.970 16.191074
62.975 15.844231
62.980 15.475919
62.985 15.773227
62.990 16.383669
62.995 17.275169
63.000 17.999609
63.005 18.112368
63.010 18.163801
63.015 18.039055
63.020 17.530207
63.025 16.718475
63.030 16.121212
63.035 16.090471
63.040 15.990871
63.045 16.263746
63.050 16.485031
63.055 17.025349
63.060 17.435001
63.065 17.397503
63.070 17.437294
63.075 17.26783
63.080 17.334486
63.085 17.382334
63.090 17.122633
63.095 17.468479
63.100 17.515694
63.105 17.038118
63.110 16.328714
63.115 16.027308
63.120 16.444708
63.125 16.269402
63.130 15.94845
63.135 16.138979
63.140 16.812222
63.145 18.016529
63.150 17.871822
63.155 17.610144
63.160 17.787546
63.165 17.06052
63.170 16.692381
63.175 16.63117
63.180 16.315166
63.185 16.088026
63.190 15.787529
63.195 15.847029
63.200 16.583101
63.205 16.533083
63.210 15.836544
63.215 15.298052
63.220 16.021248
63.225 15.99573
63.230 16.305807
63.235 16.506536
63.240 16.309647
63.245 16.644646
63.250 16.673727
63.255 16.009979
63.260 16.021402
63.265 15.893389
63.270 16.063261
63.275 16.486732
63.280 16.684092
63.285 17.260838
63.290 17.327946
63.295 17.532282
63.300 17.136137
63.305 16.919888
63.310 17.223982
63.315 18.027462
63.320 18.500574
63.325 18.781811
63.330 18.6903
63.335 18.783844
63.340 18.825191
63.345 18.542843
63.350 17.547472
63.355 17.179256
63.360 16.898375
63.365 17.133429
63.370 17.089945
63.375 17.374887
63.380 17.428751
63.385 17.552086
63.390 17.527231
63.395 17.357548
63.400 17.237165
63.405 17.336905
63.410 16.989611
63.415 16.641874
63.420 16.450579
63.425 16.509665
63.430 17.215487
63.435 17.673059
63.440 17.966516
63.445 18.150255
63.450 18.559464
63.455 18.504131
63.460 18.343966
63.465 17.917675
63.470 17.395308
63.475 17.278738
63.480 17.252001
63.485 17.1474
63.490 17.499104
63.495 17.569881
63.500 18.031191
63.505 18.564987
63.510 18.216284
63.515 18.207157
63.520 18.266193
63.525 17.679222
63.530 17.713198
63.535 17.461514
63.540 16.94692
63.545 17.172491
63.550 16.889708
63.555 16.423038
63.560 16.518728
63.565 16.385475
63.570 16.044659
63.575 15.894876
63.580 15.695144
63.585 15.713739
63.590 16.474455
63.595 17.608608
63.600 17.707125
63.605 17.759342
63.610 17.779274
63.615 18.165812
63.620 18.078947
63.625 17.936241
63.630 17.446516
63.635 17.234491
63.640 17.74074
63.645 18.197582
63.650 17.944466
63.655 18.834311
63.660 18.954191
63.665 18.966097
63.670 19.581882
63.675 19.911325
63.680 19.936708
63.685 19.776115
63.690 19.4238
63.695 19.311604
63.700 18.24506
63.705 17.765852
63.710 17.273333
63.715 17.419102
63.720 17.652998
63.725 17.195683
63.730 17.223257
63.735 18.179899
63.740 18.409664
63.745 18.208294
63.750 18.153811
63.755 17.804831
63.760 17.793312
63.765 17.57711
63.770 17.243065
63.775 16.422102
63.780 16.106655
63.785 16.391312
63.790 16.845053
63.795 17.31078
63.800 17.496075
63.805 17.628742
63.810 18.088039
63.815 18.397856
63.820 17.868778
63.825 17.918856
63.830 17.936174
63.835 18.160803
63.840 18.107841
63.845 18.435755
63.850 18.204716
63.855 17.944178
63.860 18.138269
63.865 18.221775
63.870 18.14204
63.875 18.126577
63.880 17.335598
63.885 17.486286
63.890 17.63327
63.895 17.255638
63.900 17.344824
63.905 17.275263
63.910 17.345596
63.915 17.980314
63.920 17.95455
63.925 18.053822
63.930 17.806438
63.935 17.612864
63.940 17.464905
63.945 17.556328
63.950 17.526625
63.955 17.738413
63.960 17.743593
63.965 17.735214
63.970 17.510193
63.975 17.3617
63.980 16.699057
63.985 16.413811
63.990 16.505409
63.995 16.48634
64.000 16.255623
64.005 16.690693
64.010 17.17848
64.015 18.029139
64.020 18.254757
64.025 18.602276
64.030 18.72435
64.035 19.219217
64.040 18.837461
64.045 18.697865
64.050 18.982189
64.055 18.569441
64.060 18.239027
64.065 18.173985
64.070 17.426584
64.075 17.150715
64.080 17.003904
64.085 16.496115
64.090 16.977419
64.095 16.907787
64.100 16.620726
64.105 16.710489
64.110 16.639605
64.115 16.557705
64.120 16.580936
64.125 16.580118
64.130 16.88558
64.135 17.112219
64.140 17.207632
64.145 17.630754
64.150 17.858374
64.155 17.74621
64.160 17.502979
64.165 17.214886
64.170 17.627184
64.175 17.468281
64.180 17.45228
64.185 17.545185
64.190 17.715029
64.195 17.975332
64.200 17.954996
64.205 17.209816
64.210 17.664364
64.215 17.728672
64.220 17.712704
64.225 17.644989
64.230 17.131727
64.235 16.922995
64.240 16.814745
64.245 16.206625
64.250 15.893857
64.255 15.734995
64.260 15.595977
64.265 15.597888
64.270 15.831308
64.275 16.259789
64.280 16.913797
64.285 16.794533
64.290 16.608232
64.295 16.976797
64.300 17.480024
64.305 17.362707
64.310 17.242529
64.315 17.640581
64.320 17.709274
64.325 18.678644
64.330 18.665709
64.335 18.862022
64.340 19.351387
64.345 19.548306
64.350 19.243416
64.355 19.407396
64.360 19.143423
64.365 18.855173
64.370 18.184801
64.375 17.878515
64.380 17.911518
64.385 18.207493
64.390 18.141155
64.395 17.893259
64.400 18.41913
64.405 18.961145
64.410 19.075214
64.415 18.359354
64.420 18.443556
64.425 19.249468
64.430 19.673105
64.435 19.652023
64.440 19.658487
64.445 19.852823
64.450 19.892185
64.455 19.862772
64.460 19.065094
64.465 19.382568
64.470 19.366903
64.475 19.570248
64.480 20.325367
64.485 20.242689
64.490 19.933191
64.495 19.88048
64.500 19.540432
64.505 19.613991
64.510 19.209642
64.515 18.257896
64.520 18.076849
64.525 18.018934
64.530 17.859364
64.535 16.956438
64.540 16.608198
64.545 16.517416
64.550 16.819544
64.555 17.294676
64.560 17.579542
64.565 18.121887
64.570 18.361792
64.575 18.262789
64.580 18.679985
64.585 19.430044
64.590 19.269066
64.595 19.051672
64.600 18.939339
64.605 18.812548
64.610 18.4893
64.615 17.898933
64.620 17.588318
64.625 18.070183
64.630 17.923971
64.635 17.92337
64.640 18.167812
64.645 19.025639
64.650 19.314577
64.655 18.663094
64.660 18.419319
64.665 18.993273
64.670 19.560238
64.675 20.167974
64.680 19.664694
64.685 19.600595
64.690 20.20344
64.695 20.136375
64.700 19.639589
64.705 18.762526
64.710 18.272511
64.715 18.327204
64.720 18.294895
64.725 18.315006
64.730 18.1315
64.735 17.895607
64.740 18.362701
64.745 18.493105
64.750 18.522655
64.755 18.282877
64.760 18.290936
64.765 18.704573
64.770 19.030376
64.775 19.153852
64.780 19.121513
64.785 18.618885
64.790 18.636658
64.795 18.871849
64.800 19.167366
64.805 19.184862
64.810 19.166073
64.815 19.369259
64.820 19.402346
64.825 19.364967
64.830 19.229048
64.835 18.870672
64.840 18.606552
64.845 18.458862
64.850 18.797768
64.855 19.680939
64.860 20.49375
64.865 20.385427
64.870 20.339163
64.875 20.518789
64.880 20.307238
64.885 20.018475
64.890 19.532907
64.895 18.260542
64.900 18.096994
64.905 18.307449
64.910 18.177086
64.915 18.418638
64.920 18.462515
64.925 18.821207
64.930 19.176363
64.935 20.104666
64.940 20.822607
64.945 21.227264
64.950 21.134985
64.955 21.476536
64.960 21.955135
64.965 22.702053
64.970 22.245922
64.975 21.568167
64.980 21.316704
64.985 21.723577
64.990 21.856485
64.995 21.84984
65.000 21.974337
65.005 22.270815
65.010 22.557407
65.015 22.541748
65.020 23.014954
65.025 23.03529
65.030 22.566555
65.035 22.10062
65.040 21.75123
65.045 21.740805
65.050 21.888853
65.055 21.025227
65.060 21.354336
65.065 21.694969
65.070 21.553305
65.075 21.29965
65.080 21.068722
65.085 20.622322
65.090 20.733419
65.095 20.620768
65.100 20.486696
65.105 20.530659
65.110 20.529167
65.115 20.495234
65.120 20.964018
65.125 20.771606
65.130 20.204832
65.135 20.653629
65.140 21.183929
65.145 21.988148
65.150 22.477573
65.155 23.605425
65.160 24.209766
65.165 24.630667
65.170 24.459259
65.175 24.013531
65.180 23.741879
65.185 24.046129
65.190 22.926958
65.195 22.582541
65.200 22.525019
65.205 22.287647
65.210 22.845587
65.215 22.866861
65.220 22.236687
65.225 22.256418
65.230 22.323927
65.235 22.260542
65.240 22.840836
65.245 22.73028
65.250 23.033922
65.255 23.757084
65.260 23.819338
65.265 23.66737
65.270 23.391848
65.275 23.221838
65.280 23.000534
65.285 22.672897
65.290 22.507122
65.295 23.383064
65.300 24.402237
65.305 24.692604
65.310 25.219982
65.315 26.13658
65.320 26.931448
65.325 26.889154
65.330 26.137383
65.335 25.455238
65.340 25.688934
65.345 25.603386
65.350 24.878277
65.355 24.100803
65.360 23.69449
65.365 23.426266
65.370 23.68671
65.375 23.178152
65.380 22.719975
65.385 22.496273
65.390 23.27495
65.395 23.312515
65.400 23.660353
65.405 24.378225
65.410 25.047556
65.415 25.526665
65.420 25.469578
65.425 24.855274
65.430 25.373335
65.435 25.018309
65.440 24.502155
65.445 24.126997
65.450 23.805637
65.455 24.553209
65.460 24.975651
65.465 25.119873
65.470 25.498943
65.475 25.320904
65.480 25.74069
65.485 25.577009
65.490 25.400833
65.495 24.586002
65.500 24.521742
65.505 25.442116
65.510 25.898504
65.515 26.081165
65.520 26.204943
65.525 26.201599
65.530 27.094664
65.535 27.327267
65.540 27.399767
65.545 27.260498
65.550 27.158043
65.555 27.974592
65.560 28.470463
65.565 28.936338
65.570 29.213728
65.575 29.23381
65.580 30.67037
65.585 31.616306
65.590 31.622101
65.595 31.437618
65.600 31.210772
65.605 31.239185
65.610 31.172495
65.615 30.762165
65.620 30.416464
65.625 30.134192
65.630 30.265566
65.635 30.462023
65.640 30.44898
65.645 30.734179
65.650 29.529413
65.655 29.239992
65.660 29.433073
65.665 29.750305
65.670 29.631052
65.675 30.357769
65.680 31.266001
65.685 32.243324
65.690 33.137703
65.695 32.908264
65.700 32.599598
65.705 32.86359
65.710 32.60004
65.715 32.959808
65.720 33.422295
65.725 33.767971
65.730 34.350941
65.735 35.042534
65.740 35.858734
65.745 35.550098
65.750 35.384117
65.755 35.018673
65.760 34.536057
65.765 35.521908
65.770 35.717789
65.775 35.558434
65.780 36.25948
65.785 36.952888
65.790 37.725842
65.795 38.111897
65.800 38.01173
65.805 38.169632
65.810 37.876034
65.815 37.080635
65.820 36.946468
65.825 36.625969
65.830 35.87125
65.835 35.248806
65.840 35.596497
65.845 36.520714
65.850 37.143101
65.855 37.996605
65.860 40.086025
65.865 41.213985
65.870 41.924427
65.875 41.813126
65.880 41.731159
65.885 42.298164
65.890 41.23188
65.895 39.492111
65.900 39.283947
65.905 39.447922
65.910 39.723557
65.915 40.077404
65.920 39.905018
65.925 40.564476
65.930 40.791821
65.935 40.94252
65.940 40.7034
65.945 40.266037
65.950 39.190685
65.955 38.501621
65.960 37.725113
65.965 38.109898
65.970 38.56517
65.975 38.629623
65.980 38.540134
65.985 38.629223
65.990 39.328239
65.995 40.625935
66.000 39.725624
66.005 39.052792
66.010 38.468056
66.015 38.836475
66.020 39.516796
66.025 38.877552
66.030 39.007332
66.035 40.137741
66.040 40.659981
66.045 41.010227
66.050 41.420551
66.055 41.093838
66.060 40.819057
66.065 40.313305
66.070 39.880558
66.075 39.306416
66.080 39.172352
66.085 38.641682
66.090 39.0452
66.095 39.548504
66.100 39.604088
66.105 39.137859
66.110 38.612015
66.115 38.50473
66.120 38.556274
66.125 38.186108
66.130 37.252934
66.135 37.069038
66.140 38.17495
66.145 38.801479
66.150 38.526886
66.155 38.687256
66.160 39.025204
66.165 39.601284
66.170 39.635693
66.175 38.841572
66.180 38.741337
66.185 39.070305
66.190 38.168354
66.195 38.430023
66.200 38.484306
66.205 38.439835
66.210 37.962883
66.215 37.550472
66.220 37.808388
66.225 38.437042
66.230 38.316601
66.235 37.754421
66.240 37.546017
66.245 38.843494
66.250 38.849644
66.255 39.037678
66.260 39.025997
66.265 39.146709
66.270 38.980892
66.275 37.832928
66.280 36.759521
66.285 36.699318
66.290 35.781006
66.295 34.685432
66.300 33.780151
66.305 33.660694
66.310 34.369484
66.315 34.155884
66.320 33.8438
66.325 33.778877
66.330 34.132175
66.335 34.577358
66.340 33.967743
66.345 33.021645
66.350 33.277245
66.355 33.774384
66.360 34.261044
66.365 33.871025
66.370 32.980492
66.375 33.316208
66.380 33.286816
66.385 32.768295
66.390 31.711481
66.395 31.451881
66.400 32.297424
66.405 32.947212
66.410 32.781601
66.415 33.03891
66.420 32.626736
66.425 32.345058
66.430 32.115086
66.435 31.478321
66.440 31.059868
66.445 30.274519
66.450 30.384871
66.455 29.336571
66.460 28.786846
66.465 28.713934
66.470 29.075033
66.475 29.695736
66.480 29.919083
66.485 28.780716
66.490 29.344101
66.495 29.191196
66.500 28.213482
66.505 26.97121
66.510 26.543207
66.515 26.764898
66.520 26.953033
66.525 27.236719
66.530 27.437092
66.535 27.767229
66.540 27.971636
66.545 27.704996
66.550 27.291603
66.555 27.283766
66.560 27.065903
66.565 27.452614
66.570 27.615278
66.575 27.77663
66.580 27.123997
66.585 27.28426
66.590 27.379929
66.595 27.348387
66.600 26.492926
66.605 25.955471
66.610 25.605001
66.615 25.644897
66.620 25.707067
66.625 25.077335
66.630 25.023291
66.635 25.06406
66.640 25.094795
66.645 25.03017
66.650 24.917675
66.655 24.081463
66.660 23.874329
66.665 23.957561
66.670 24.178186
66.675 24.45133
66.680 24.19356
66.685 24.468948
66.690 24.682583
66.695 24.122511
66.700 23.668447
66.705 23.022902
66.710 22.595514
66.715 22.36689
66.720 21.706726
66.725 21.633074
66.730 21.755079
66.735 21.607321
66.740 21.451281
66.745 21.578529
66.750 22.296925
66.755 22.916636
66.760 23.12068
66.765 23.200369
66.770 23.281242
66.775 23.121275
66.780 22.505344
66.785 21.848684
66.790 21.30315
66.795 20.880232
66.800 20.745588
66.805 21.313372
66.810 21.768518
66.815 22.288136
66.820 22.106382
66.825 21.968142
66.830 22.497889
66.835 22.402405
66.840 21.964746
66.845 22.443975
66.850 21.845844
66.855 21.739374
66.860 21.612883
66.865 21.20492
66.870 21.51232
66.875 21.639269
66.880 20.589527
66.885 20.889645
66.890 20.633587
66.895 21.518572
66.900 21.351387
66.905 21.187923
66.910 20.94281
66.915 21.057999
66.920 21.313097
66.925 21.967447
66.930 21.486443
66.935 20.890553
66.940 20.882219
66.945 20.706915
66.950 20.800135
66.955 20.29644
66.960 20.364614
66.965 21.286608
66.970 21.561571
66.975 20.686844
66.980 20.987471
66.985 21.34449
66.990 21.836752
66.995 21.467054
67.000 20.539734
67.005 21.165638
67.010 21.706478
67.015 21.938143
67.020 21.713085
67.025 21.200804
67.030 21.042849
67.035 20.85149
67.040 20.368387
67.045 19.607595
67.050 18.687572
67.055 19.063566
67.060 19.183508
67.065 19.007309
67.070 19.009748
67.075 19.928247
67.080 20.748436
67.085 20.660353
67.090 20.430973
67.095 20.535852
67.100 21.088079
67.105 21.319714
67.110 20.368435
67.115 20.273176
67.120 20.872168
67.125 20.710436
67.130 20.839632
67.135 20.520426
67.140 20.235397
67.145 21.12878
67.150 21.456587
67.155 21.777672
67.160 22.236343
67.165 21.947922
67.170 22.287567
67.175 22.164968
67.180 21.433466
67.185 20.999601
67.190 20.864645
67.195 20.590815
67.200 20.717306
67.205 20.08959
67.210 20.418165
67.215 20.650307
67.220 20.962517
67.225 21.059486
67.230 21.101665
67.235 21.198915
67.240 21.344156
67.245 21.039909
67.250 21.219707
67.255 20.837994
67.260 20.407373
67.265 19.92951
67.270 19.353176
67.275 19.404249
67.280 19.313169
67.285 19.169649
67.290 19.591116
67.295 19.327261
67.300 20.085558
67.305 20.697565
67.310 21.250713
67.315 21.213882
67.320 20.872026
67.325 20.422493
67.330 21.076284
67.335 21.031172
67.340 20.790434
67.345 20.974421
67.350 21.130211
67.355 21.344835
67.360 21.368626
67.365 20.816122
67.370 20.119026
67.375 19.807074
67.380 19.644497
67.385 20.295265
67.390 20.467871
67.395 21.282948
67.400 21.35297
67.405 21.530453
67.410 21.87631
67.415 21.773537
67.420 21.250328
67.425 21.565733
67.430 21.211813
67.435 21.114128
67.440 21.334946
67.445 21.266582
67.450 21.294632
67.455 21.158926
67.460 20.364414
67.465 19.848581
67.470 19.636879
67.475 19.077852
67.480 19.134396
67.485 18.67778
67.490 18.887196
67.495 19.272415
67.500 20.29435
67.505 21.049997
67.510 21.357658
67.515 21.242853
67.520 20.945805
67.525 20.766411
67.530 20.795425
67.535 20.220737
67.540 19.951008
67.545 19.885859
67.550 19.821041
67.555 19.606058
67.560 19.600689
67.565 19.25428
67.570 19.334915
67.575 19.516302
67.580 19.627417
67.585 20.148821
67.590 20.807955
67.595 20.777641
67.600 21.383009
67.605 21.893833
67.610 21.519131
67.615 21.446482
67.620 21.28474
67.625 20.735899
67.630 21.054901
67.635 21.177814
67.640 20.700249
67.645 20.894669
67.650 21.042814
67.655 21.585367
67.660 21.326817
67.665 20.949366
67.670 20.278069
67.675 20.771116
67.680 20.760391
67.685 20.535639
67.690 20.543583
67.695 21.036898
67.700 21.043446
67.705 20.901569
67.710 20.106968
67.715 19.630594
67.720 19.128336
67.725 18.584669
67.730 18.802494
67.735 18.663527
67.740 19.172228
67.745 19.661493
67.750 20.4352
67.755 20.750082
67.760 21.145369
67.765 20.816792
67.770 21.199623
67.775 20.645794
67.780 20.405237
67.785 20.251169
67.790 20.189087
67.795 19.899683
67.800 19.833534
67.805 19.83695
67.810 20.144377
67.815 20.51298
67.820 20.749828
67.825 20.527836
67.830 19.92448
67.835 19.626898
67.840 19.050924
67.845 18.724829
67.850 18.336599
67.855 18.154215
67.860 18.268839
67.865 18.723999
67.870 19.458569
67.875 19.460468
67.880 19.487421
67.885 19.027576
67.890 19.066465
67.895 18.928101
67.900 18.743603
67.905 18.391405
67.910 18.522705
67.915 18.468868
67.920 18.865515
67.925 18.714386
67.930 19.325262
67.935 19.309958
67.940 19.26832
67.945 20.100672
67.950 20.86533
67.955 21.63077
67.960 21.573765
67.965 21.254953
67.970 21.342381
67.975 21.390686
67.980 20.974546
67.985 20.089085
67.990 19.382759
67.995 19.492704
68.000 19.315554
68.005 19.296223
68.010 19.628119
68.015 19.419636
68.020 20.266273
68.025 20.659023
68.030 21.071053
68.035 21.726177
68.040 21.868753
68.045 21.922102
68.050 21.851339
68.055 21.32427
68.060 20.954643
68.065 20.213568
68.070 19.658222
68.075 19.087173
68.080 19.024837
68.085 19.164433
68.090 19.062157
68.095 19.407604
68.100 20.079636
68.105 21.164867
68.110 21.327038
68.115 21.156244
68.120 21.131197
68.125 21.351431
68.130 21.802999
68.135 21.556383
68.140 21.694407
68.145 21.895912
68.150 21.960926
68.155 22.157162
68.160 21.935585
68.165 21.283611
68.170 21.103821
68.175 20.958353
68.180 21.762869
68.185 22.055008
68.190 22.216827
68.195 22.109722
68.200 21.707663
68.205 21.882923
68.210 21.086702
68.215 20.408587
68.220 20.070448
68.225 19.628977
68.230 19.761278
68.235 19.741217
68.240 19.787495
68.245 20.117657
68.250 19.543964
68.255 19.410484
68.260 19.845707
68.265 19.997458
68.270 20.405897
68.275 20.205477
68.280 19.882324
68.285 19.862507
68.290 20.186148
68.295 20.170843
68.300 20.342466
68.305 20.23082
68.310 20.307537
68.315 20.679955
68.320 21.238619
68.325 20.856848
68.330 20.602957
68.335 20.379025
68.340 19.784208
68.345 19.836197
68.350 19.761246
68.355 19.363991
68.360 19.040075
68.365 19.009907
68.370 18.852015
68.375 19.119694
68.380 18.662466
68.385 18.504786
68.390 18.724791
68.395 18.598719
68.400 18.447634
68.405 18.465738
68.410 18.35527
68.415 18.71534
68.420 18.490019
68.425 18.440453
68.430 19.029501
68.435 19.058012
68.440 19.101149
68.445 19.34317
68.450 19.503956
68.455 20.173805
68.460 20.232756
68.465 20.046345
68.470 20.64451
68.475 20.574289
68.480 20.07081
68.485 19.68586
68.490 20.112366
68.495 21.248611
68.500 21.315176
68.505 20.784607
68.510 20.964926
68.515 21.278053
68.520 21.957443
68.525 20.842033
68.530 20.003616
68.535 20.41349
68.540 20.879852
68.545 21.450001
68.550 21.554064
68.555 21.043907
68.560 21.49333
68.565 21.615042
68.570 21.236259
68.575 20.76384
68.580 20.515154
68.585 20.465574
68.590 20.232456
68.595 19.451593
68.600 19.422237
68.605 19.570917
68.610 20.162876
68.615 19.636765
68.620 19.712948
68.625 20.033943
68.630 20.655357
68.635 20.77169
68.640 21.012867
68.645 20.912615
68.650 21.31867
68.655 21.765602
68.660 21.904707
68.665 21.302288
68.670 21.718306
68.675 21.550673
68.680 21.677761
68.685 22.168301
68.690 21.626413
68.695 21.477406
68.700 21.743767
68.705 20.837898
68.710 20.47924
68.715 20.432119
68.720 19.989624
68.725 20.060841
68.730 20.401342
68.735 20.556578
68.740 21.255703
68.745 21.319616
68.750 21.190742
68.755 21.242136
68.760 21.542629
68.765 21.644016
68.770 21.697174
68.775 21.619213
68.780 22.187584
68.785 22.222097
68.790 22.153992
68.795 21.748072
68.800 21.319714
68.805 20.733152
68.810 20.879885
68.815 20.372959
68.820 20.467117
68.825 20.327784
68.830 21.565256
68.835 22.405214
68.840 22.34462
68.845 21.84926
68.850 22.249849
68.855 22.138443
68.860 21.943825
68.865 21.241047
68.870 21.107424
68.875 21.963451
68.880 22.125374
68.885 21.979542
68.890 22.295792
68.895 22.520172
68.900 23.067814
68.905 22.627211
68.910 22.515812
68.915 22.495972
68.920 22.944355
68.925 23.219435
68.930 23.180779
68.935 23.295523
68.940 23.580484
68.945 23.74128
68.950 23.574524
68.955 23.736362
68.960 23.613594
68.965 23.189243
68.970 22.52059
68.975 22.554409
68.980 22.469477
68.985 22.392426
68.990 21.809753
68.995 21.679033
69.000 22.54529
69.005 23.698618
69.010 23.942333
69.015 23.590185
69.020 23.706287
69.025 23.359934
69.030 23.585407
69.035 23.12727
69.040 23.116287
69.045 23.290144
69.050 24.345747
69.055 25.056053
69.060 25.355293
69.065 25.523439
69.070 25.413696
69.075 24.641712
69.080 24.370447
69.085 23.83831
69.090 23.531902
69.095 23.712255
69.100 24.056749
69.105 24.229239
69.110 24.70759
69.115 24.701494
69.120 25.126587
69.125 25.261353
69.130 25.524294
69.135 25.012934
69.140 24.41581
69.145 24.273096
69.150 24.38936
69.155 24.32
69.160 24.086411
69.165 23.77733
69.170 24.290165
69.175 24.273018
69.180 24.508915
69.185 24.453594
69.190 24.111149
69.195 24.400946
69.200 24.432898
69.205 24.565351
69.210 24.820593
69.215 25.179255
69.220 25.416403
69.225 25.589149
69.230 25.374241
69.235 25.232281
69.240 25.071222
69.245 25.579252
69.250 25.74329
69.255 26.055271
69.260 26.390253
69.265 26.436899
69.270 27.146276
69.275 28.073568
69.280 28.29933
69.285 28.496895
69.290 28.813866
69.295 29.129566
69.300 29.366955
69.305 29.694771
69.310 29.834332
69.315 29.862839
69.320 30.112957
69.325 29.977737
69.330 29.863079
69.335 29.583225
69.340 28.953402
69.345 29.34696
69.350 30.311852
69.355 29.909096
69.360 30.103518
69.365 30.374388
69.370 30.325775
69.375 29.967073
69.380 29.57575
69.385 29.057079
69.390 28.839478
69.395 28.154118
69.400 27.992229
69.405 28.263836
69.410 28.656704
69.415 28.377634
69.420 28.231308
69.425 29.46372
69.430 30.062014
69.435 30.38345
69.440 30.659145
69.445 30.990986
69.450 31.122297
69.455 30.966902
69.460 29.824463
69.465 29.378977
69.470 29.929338
69.475 29.756617
69.480 29.602123
69.485 30.260565
69.490 30.602709
69.495 31.261627
69.500 31.161242
69.505 30.687738
69.510 30.761593
69.515 30.551462
69.520 30.090185
69.525 30.105278
69.530 29.829145
69.535 30.423378
69.540 30.352411
69.545 30.074358
69.550 30.470633
69.555 30.140261
69.560 29.877113
69.565 29.851881
69.570 30.162807
69.575 29.967941
69.580 29.840248
69.585 29.387312
69.590 29.660192
69.595 30.434465
69.600 30.837141
69.605 31.148819
69.610 31.805922
69.615 31.953146
69.620 32.445671
69.625 32.635834
69.630 32.497768
69.635 32.426834
69.640 32.120586
69.645 32.422756
69.650 32.915844
69.655 32.907463
69.660 32.869812
69.665 32.542381
69.670 32.582565
69.675 32.223774
69.680 32.595684
69.685 32.45985
69.690 32.812477
69.695 32.654789
69.700 32.150028
69.705 32.132603
69.710 31.67704
69.715 30.666155
69.720 29.811855
69.725 29.029573
69.730 29.109217
69.735 29.631252
69.740 29.677858
69.745 29.472887
69.750 29.094402
69.755 29.386393
69.760 30.112831
69.765 29.826702
69.770 29.50605
69.775 29.293253
69.780 28.787462
69.785 28.470371
69.790 27.801449
69.795 27.009882
69.800 26.767523
69.805 26.52887
69.810 26.836983
69.815 27.862175
69.820 28.367762
69.825 28.328623
69.830 28.115759
69.835 28.347698
69.840 27.581173
69.845 26.809305
69.850 26.446836
69.855 26.41453
69.860 26.137543
69.865 25.616034
69.870 25.104977
69.875 24.968344
69.880 25.166769
69.885 24.68186
69.890 24.819221
69.895 24.276054
69.900 24.54014
69.905 24.631256
69.910 25.067894
69.915 25.146614
69.920 24.659298
69.925 23.783108
69.930 24.291296
69.935 24.329983
69.940 24.341173
69.945 24.004133
69.950 24.361456
69.955 25.067528
69.960 25.522781
69.965 25.338505
69.970 24.926746
69.975 24.061314
69.980 23.527601
69.985 22.75098
69.990 22.828493
69.995 22.802065
70.000 22.070604
70.005 22.492105
70.010 22.655754
70.015 23.145128
70.020 23.154652
70.025 22.951393
70.030 22.27486
70.035 22.420622
70.040 22.018433
70.045 21.92667
70.050 21.530624
70.055 21.355307
70.060 20.961212
70.065 21.377275
70.070 21.542898
70.075 22.044519
70.080 21.973053
70.085 21.666071
70.090 21.177614
70.095 21.370493
70.100 21.263206
70.105 20.972654
70.110 20.420921
70.115 20.342316
70.120 20.808123
70.125 20.744139
70.130 20.702621
70.135 19.984272
70.140 19.507797
70.145 19.731142
70.150 20.020035
70.155 19.746622
70.160 19.575155
70.165 19.041031
70.170 19.160147
70.175 19.806643
70.180 19.995077
70.185 20.31422
70.190 20.830223
70.195 21.369223
70.200 21.870533
70.205 22.62138
70.210 22.160473
70.215 21.923086
70.220 21.587696
70.225 21.004204
70.230 20.746571
70.235 20.95719
70.240 20.69348
70.245 20.237631
70.250 20.659113
70.255 20.845207
70.260 20.992708
70.265 20.74778
70.270 19.858322
70.275 20.059536
70.280 20.038401
70.285 19.418129
70.290 19.133331
70.295 18.585909
70.300 18.740583
70.305 19.059423
70.310 18.765059
70.315 18.575708
70.320 18.583719
70.325 18.485672
70.330 18.819841
70.335 18.757248
70.340 18.360804
70.345 18.739216
70.350 19.001066
70.355 18.519249
70.360 19.214691
70.365 19.23991
70.370 19.307619
70.375 19.257366
70.380 19.223091
70.385 19.669695
70.390 20.56608
70.395 20.331741
70.400 20.042391
70.405 20.112535
70.410 20.830738
70.415 20.824022
70.420 20.34586
70.425 20.277176
70.430 20.334433
70.435 20.859217
70.440 20.656124
70.445 19.942888
70.450 19.691425
70.455 19.764299
70.460 19.599447
70.465 19.94865
70.470 20.359013
70.475 20.589876
70.480 20.80241
70.485 20.098049
70.490 19.622507
70.495 19.611916
70.500 19.073418
70.505 19.237112
70.510 19.219791
70.515 19.656025
70.520 19.948412
70.525 19.914097
70.530 19.493641
70.535 19.919378
70.540 19.443119
70.545 19.249851
70.550 18.776615
70.555 19.102306
70.560 19.129042
70.565 19.774937
70.570 19.384085
70.575 19.85404
70.580 20.150482
70.585 20.278385
70.590 20.205805
70.595 19.901739
70.600 19.081493
70.605 18.820921
70.610 18.430136
70.615 17.908289
70.620 17.350607
70.625 17.57378
70.630 17.559837
70.635 18.107588
70.640 17.472084
70.645 17.362188
70.650 17.424868
70.655 17.884007
70.660 17.830208
70.665 17.700169
70.670 18.042936
70.675 19.206402
70.680 19.212238
70.685 19.612581
70.690 19.830694
70.695 20.435904
70.700 20.12532
70.705 19.221767
70.710 19.301008
70.715 19.934242
70.720 19.6553
70.725 19.350805
70.730 19.199057
70.735 19.630074
70.740 20.07971
70.745 19.569389
70.750 19.1698
70.755 19.644913
70.760 19.862309
70.765 19.850323
70.770 19.772673
70.775 19.443966
70.780 19.236959
70.785 19.6481
70.790 19.582142
70.795 19.230078
70.800 18.988235
70.805 19.020332
70.810 19.39397
70.815 19.816006
70.820 20.061598
70.825 19.628744
70.830 19.91543
70.835 19.599897
70.840 18.981352
70.845 18.601166
70.850 18.305199
70.855 18.268013
70.860 18.119585
70.865 18.351961
70.870 19.040857
70.875 19.598063
70.880 20.232712
70.885 20.672871
70.890 20.968086
70.895 21.358366
70.900 21.164841
70.905 21.112793
70.910 20.656796
70.915 20.276604
70.920 19.3095
70.925 18.749529
70.930 18.189583
70.935 17.939558
70.940 18.352703
70.945 18.47728
70.950 18.494448
70.955 19.19931
70.960 19.664492
70.965 19.710564
70.970 19.237494
70.975 18.867743
70.980 18.806437
70.985 18.38912
70.990 18.104912
70.995 17.961285
71.000 18.220774
71.005 18.4669
71.010 18.405773
71.015 18.381853
71.020 18.570448
71.025 18.740021
71.030 18.359428
71.035 18.258112
71.040 18.431206
71.045 18.83931
71.050 19.051695
71.055 19.260063
71.060 19.455145
71.065 19.955891
71.070 19.947128
71.075 19.640356
71.080 19.816523
71.085 20.232002
71.090 19.886538
71.095 19.185783
71.100 19.47617
71.105 19.572401
71.110 19.239555
71.115 19.135672
71.120 19.126131
71.125 19.226852
71.130 19.508865
71.135 18.956108
71.140 18.658249
71.145 18.453375
71.150 17.821398
71.155 17.518227
71.160 17.59766
71.165 17.593744
71.170 18.284662
71.175 17.949032
71.180 17.713228
71.185 17.377541
71.190 17.767952
71.195 18.262209
71.200 18.585543
71.205 19.602709
71.210 21.058231
71.215 21.093885
71.220 20.860048
71.225 20.376392
71.230 19.993183
71.235 19.610008
71.240 18.462248
71.245 18.092876
71.250 18.685621
71.255 18.910355
71.260 18.890207
71.265 19.076084
71.270 18.503489
71.275 17.908474
71.280 17.604555
71.285 17.459557
71.290 17.53957
71.295 16.85076
71.300 16.269714
71.305 16.41905
71.310 16.947779
71.315 17.380894
71.320 17.553774
71.325 17.346626
71.330 17.985926
71.335 18.319481
71.340 18.450562
71.345 18.300266
71.350 17.704473
71.355 17.856295
71.360 18.543077
71.365 18.338505
71.370 18.00502
71.375 17.965019
71.380 18.282972
71.385 18.64234
71.390 18.466097
71.395 18.072523
71.400 18.186823
71.405 18.864813
71.410 19.394262
71.415 18.623352
71.420 18.659916
71.425 18.154121
71.430 18.519583
71.435 18.522253
71.440 17.809296
71.445 17.708485
71.450 18.369881
71.455 18.632706
71.460 18.65868
71.465 18.775892
71.470 19.269053
71.475 19.965425
71.480 20.404724
71.485 20.250267
71.490 20.511261
71.495 20.435146
71.500 20.105154
71.505 20.059872
71.510 19.611341
71.515 19.107378
71.520 19.133167
71.525 18.940964
71.530 18.655941
71.535 18.361441
71.540 18.900618
71.545 19.053759
71.550 18.939726
71.555 19.064817
71.560 19.093824
71.565 19.659389
71.570 19.518248
71.575 19.518305
71.580 19.384596
71.585 19.75453
71.590 19.355265
71.595 19.765944
71.600 19.284582
71.605 18.990555
71.610 18.121061
71.615 18.170431
71.620 18.225412
71.625 18.481028
71.630 18.195049
71.635 18.44804
71.640 18.612677
71.645 18.38867
71.650 18.458841
71.655 18.409021
71.660 18.067333
71.665 18.104092
71.670 18.334349
71.675 18.250431
71.680 18.179403
71.685 17.816837
71.690 17.633705
71.695 17.337872
71.700 17.090614
71.705 16.574245
71.710 17.036867
71.715 17.435055
71.720 17.53858
71.725 17.788208
71.730 18.788567
71.735 19.588795
71.740 20.164089
71.745 19.74659
71.750 19.621189
71.755 19.690813
71.760 19.450737
71.765 18.553871
71.770 17.959255
71.775 17.814793
71.780 18.40349
71.785 18.542749
71.790 18.722555
71.795 19.150536
71.800 19.584646
71.805 19.767166
71.810 20.129765
71.815 20.124178
71.820 19.789221
71.825 19.167225
71.830 19.130527
71.835 19.148146
71.840 19.401884
71.845 19.252998
71.850 19.095589
71.855 19.394419
71.860 19.365971
71.865 19.350445
71.870 19.018242
71.875 19.074984
71.880 18.897356
71.885 19.091797
71.890 19.166224
71.895 19.285381
71.900 18.714582
71.905 18.182245
71.910 17.15132
71.915 17.06344
71.920 16.920444
71.925 16.824242
71.930 17.120594
71.935 17.085175
71.940 17.563244
71.945 18.577934
71.950 18.312986
71.955 18.51461
71.960 18.422855
71.965 18.605549
71.970 19.170599
71.975 18.52165
71.980 17.915121
71.985 17.754971
71.990 18.041542
71.995 18.515944
72.000 18.447556
72.005 18.738161
72.010 18.974466
72.015 19.680687
72.020 20.381718
72.025 20.479723
72.030 20.342752
72.035 20.255428
72.040 20.536001
72.045 20.313976
72.050 20.318323
72.055 19.706367
72.060 19.344612
72.065 18.923803
72.070 18.486885
72.075 17.805582
72.080 17.389557
72.085 17.049599
72.090 17.07826
72.095 17.267265
72.100 17.750349
72.105 18.330189
72.110 19.049187
72.115 19.316017
72.120 19.313969
72.125 19.082109
72.130 18.571974
72.135 18.515085
72.140 18.655712
72.145 18.212446
72.150 17.697403
72.155 17.031761
72.160 17.856722
72.165 18.650496
72.170 18.521307
72.175 18.780312
72.180 19.347191
72.185 19.766365
72.190 19.924768
72.195 19.341671
72.200 18.73325
72.205 18.757769
72.210 18.516228
72.215 17.793312
72.220 17.850559
72.225 17.771215
72.230 17.265587
72.235 17.244419
72.240 17.154749
72.245 17.625803
72.250 18.658171
72.255 19.004784
72.260 19.04422
72.265 19.470537
72.270 19.504103
72.275 19.578814
72.280 19.011337
72.285 17.989553
72.290 17.601185
72.295 17.538614
72.300 17.621698
72.305 17.930344
72.310 17.494404
72.315 18.511196
72.320 19.18803
72.325 19.380241
72.330 19.351463
72.335 19.263201
72.340 18.809168
72.345 18.834053
72.350 17.966753
72.355 17.656921
72.360 17.988455
72.365 18.134304
72.370 17.764696
72.375 17.917524
72.380 17.508181
72.385 17.29352
72.390 17.289482
72.395 17.116253
72.400 17.477055
72.405 17.625532
72.410 17.867672
72.415 18.518991
72.420 18.99437
72.425 18.639124
72.430 18.099422
72.435 18.205513
72.440 18.215479
72.445 18.082151
72.450 18.295843
72.455 18.174232
72.460 18.372847
72.465 18.920416
72.470 18.940784
72.475 19.147633
72.480 19.386692
72.485 18.921659
72.490 19.724958
72.495 19.306799
72.500 18.400776
72.505 18.044937
72.510 17.592352
72.515 17.542967
72.520 17.286711
72.525 16.519835
72.530 17.116627
72.535 17.58042
72.540 17.625006
72.545 17.363054
72.550 17.003504
72.555 17.365271
72.560 18.010649
72.565 17.904566
72.570 17.441908
72.575 17.546391
72.580 18.114101
72.585 18.559908
72.590 18.461212
72.595 17.972246
72.600 18.224236
72.605 18.567766
72.610 18.41568
72.615 18.217157
72.620 17.574324
72.625 17.899269
72.630 17.669144
72.635 17.497843
72.640 17.214241
72.645 16.957111
72.650 16.723576
72.655 16.730091
72.660 16.063709
72.665 15.684583
72.670 15.76047
72.675 16.427027
72.680 16.264048
72.685 16.5417
72.690 16.486874
72.695 17.032423
72.700 17.381638
72.705 17.561117
72.710 17.438845
72.715 17.919086
72.720 18.018381
72.725 18.20207
72.730 18.125891
72.735 17.926678
72.740 18.109758
72.745 18.578531
72.750 18.133842
72.755 16.849762
72.760 17.182186
72.765 17.177902
72.770 16.732397
72.775 15.513112
72.780 15.219046
72.785 15.686975
72.790 16.135572
72.795 15.759956
72.800 15.890896
72.805 16.312372
72.810 17.094002
72.815 17.541521
72.820 17.769096
72.825 18.235365
72.830 18.376659
72.835 18.704678
72.840 18.751122
72.845 18.536207
72.850 18.355593
72.855 18.700962
72.860 18.427046
72.865 18.169237
72.870 17.630407
72.875 17.416264
72.880 17.137465
72.885 16.666264
72.890 16.342119
72.895 15.9454
72.900 15.523288
72.905 15.748219
72.910 15.772537
72.915 16.180908
72.920 16.422743
72.925 16.57328
72.930 17.780783
72.935 18.555935
72.940 18.72843
72.945 18.903355
72.950 18.618902
72.955 18.265366
72.960 18.011408
72.965 17.785925
72.970 17.311403
72.975 17.15531
72.980 17.074604
72.985 17.210243
72.990 17.432344
72.995 17.170208
73.000 16.990536
