!@!!GADDS PLOTSO FILE: Chi integration type
!@!!Title/SampleName: map-144
!@!!Comment: ?
!@!!User: Bruker Instrument Administrator
!@!!Site: University of Illinois Chicago
!@!!Frame: map-144_01_000.gfrm
!@!!Wavelengths    1.54184   1.54056   1.54439
!@!!Frame angles: 2Theta: 63.000 Omega: 50.000 Phi: 0.000 Chi: 90.000
!@!!Integration range: 2Theta: 53.000 to 73.000  Gamma: -105.000 to -75.000
!@!!Integration method: bin normalized
!@!N
!@!SS
!@!M
!@!L 0.0 0.0 0.0 0.0
!@!XDegrees
!@!YCounts
53.000 9.160322
53.005 9.108499
53.010 9.037409
53.015 8.761261
53.020 8.707969
53.025 8.749476
53.030 9.256796
53.035 9.758123
53.040 9.697095
53.045 9.891294
53.050 10.235934
53.055 10.533326
53.060 10.515956
53.065 9.784086
53.070 9.270657
53.075 9.310061
53.080 9.283234
53.085 9.012733
53.090 8.865121
53.095 9.019563
53.100 9.302861
53.105 9.576365
53.110 9.765432
53.115 9.643918
53.120 9.663821
53.125 9.425697
53.130 9.434878
53.135 9.141991
53.140 8.992333
53.145 8.980383
53.150 9.208313
53.155 9.162474
53.160 8.784307
53.165 9.129846
53.170 9.244856
53.175 9.209513
53.180 9.246707
53.185 9.239017
53.190 9.12091
53.195 9.212568
53.200 9.165874
53.205 9.342684
53.210 9.4245
53.215 8.952416
53.220 9.148529
53.225 8.972715
53.230 9.231957
53.235 8.999849
53.240 8.890204
53.245 9.118304
53.250 9.214493
53.255 9.65801
53.260 10.290986
53.265 10.450275
53.270 10.780846
53.275 10.997829
53.280 10.982574
53.285 10.432563
53.290 9.738742
53.295 9.058447
53.300 8.840408
53.305 8.866296
53.310 8.810552
53.315 8.75995
53.320 9.249669
53.325 9.616589
53.330 10.253564
53.335 10.563246
53.340 10.417914
53.345 10.282019
53.350 10.530454
53.355 10.641685
53.360 10.168202
53.365 9.655164
53.370 9.598281
53.375 9.321078
53.380 9.14735
53.385 8.953361
53.390 9.330045
53.395 9.854869
53.400 9.787064
53.405 9.813988
53.410 10.112573
53.415 10.078224
53.420 10.185561
53.425 9.883681
53.430 10.014647
53.435 10.039948
53.440 9.753989
53.445 9.779438
53.450 9.974498
53.455 9.475098
53.460 9.480475
53.465 9.180448
53.470 9.441963
53.475 9.770549
53.480 9.670444
53.485 9.693194
53.490 9.281063
53.495 9.169943
53.500 9.152551
53.505 8.485421
53.510 8.341537
53.515 8.481819
53.520 9.092643
53.525 9.120396
53.530 9.02435
53.535 9.313797
53.540 9.619979
53.545 9.617591
53.550 9.309321
53.555 8.914407
53.560 9.83766
53.565 10.265725
53.570 10.216913
53.575 10.435345
53.580 10.374248
53.585 10.654431
53.590 10.755419
53.595 9.879437
53.600 9.308781
53.605 8.996921
53.610 8.951745
53.615 8.806696
53.620 9.019507
53.625 8.971815
53.630 9.068671
53.635 9.543798
53.640 9.500898
53.645 9.489717
53.650 9.678922
53.655 9.280374
53.660 9.586229
53.665 9.572731
53.670 9.55223
53.675 9.700885
53.680 9.821445
53.685 10.128855
53.690 10.377627
53.695 10.488136
53.700 10.509121
53.705 10.723681
53.710 10.924009
53.715 11.014766
53.720 11.14694
53.725 10.978793
53.730 10.815101
53.735 10.891685
53.740 10.766404
53.745 10.694748
53.750 10.518167
53.755 10.19232
53.760 10.357396
53.765 10.830067
53.770 11.016076
53.775 11.162492
53.780 10.87007
53.785 10.605135
53.790 10.907805
53.795 10.851176
53.800 10.553767
53.805 10.351818
53.810 10.378751
53.815 10.517629
53.820 10.464047
53.825 10.306659
53.830 10.358917
53.835 10.42907
53.840 10.066999
53.845 10.0865
53.850 10.119049
53.855 10.242948
53.860 10.257231
53.865 10.369045
53.870 10.246172
53.875 9.848047
53.880 9.603097
53.885 9.318048
53.890 9.22705
53.895 9.034657
53.900 8.936907
53.905 9.22926
53.910 9.649285
53.915 9.727038
53.920 9.786708
53.925 9.701138
53.930 10.040339
53.935 9.775523
53.940 9.707343
53.945 9.946209
53.950 10.230948
53.955 10.446723
53.960 10.41283
53.965 9.917053
53.970 9.990552
53.975 10.229366
53.980 9.621537
53.985 9.574932
53.990 9.547911
53.995 9.791238
54.000 10.191409
54.005 10.167012
54.010 10.017253
54.015 10.286053
54.020 10.344466
54.025 10.253619
54.030 10.081208
54.035 9.993595
54.040 9.873329
54.045 10.018522
54.050 9.867503
54.055 9.376087
54.060 9.189239
54.065 8.883668
54.070 9.109936
54.075 8.985811
54.080 9.434609
54.085 9.888872
54.090 10.250553
54.095 10.468228
54.100 10.522546
54.105 10.425963
54.110 10.292368
54.115 9.47707
54.120 9.510951
54.125 9.623885
54.130 9.987061
54.135 10.170475
54.140 10.289036
54.145 10.250341
54.150 10.130114
54.155 9.821494
54.160 9.995041
54.165 10.353004
54.170 10.521749
54.175 10.353653
54.180 10.133258
54.185 10.169349
54.190 10.23743
54.195 9.956279
54.200 9.587426
54.205 9.62322
54.210 9.767584
54.215 10.282197
54.220 10.32151
54.225 10.392085
54.230 10.608427
54.235 10.873966
54.240 11.239413
54.245 11.15436
54.250 11.046576
54.255 11.316752
54.260 10.854155
54.265 10.557305
54.270 10.077791
54.275 10.359398
54.280 10.62647
54.285 10.908
54.290 10.936035
54.295 11.210032
54.300 11.132388
54.305 11.141246
54.310 10.840917
54.315 11.06468
54.320 11.106353
54.325 10.856668
54.330 10.563464
54.335 10.89541
54.340 10.773061
54.345 10.717658
54.350 10.521429
54.355 10.156842
54.360 10.330861
54.365 10.279246
54.370 10.241681
54.375 10.496049
54.380 10.668907
54.385 10.607198
54.390 10.86035
54.395 10.955677
54.400 10.878599
54.405 10.82882
54.410 10.753453
54.415 10.713021
54.420 10.6648
54.425 10.87311
54.430 10.956615
54.435 10.869158
54.440 10.577847
54.445 10.46304
54.450 10.246844
54.455 10.304949
54.460 10.360427
54.465 10.334441
54.470 9.900703
54.475 9.713049
54.480 9.664615
54.485 10.522099
54.490 10.45101
54.495 10.187358
54.500 10.230541
54.505 10.727365
54.510 10.834331
54.515 10.756664
54.520 9.987267
54.525 10.245194
54.530 10.494543
54.535 10.88714
54.540 11.392559
54.545 12.095694
54.550 12.651183
54.555 12.899274
54.560 12.979553
54.565 12.695471
54.570 12.456547
54.575 11.570674
54.580 10.658104
54.585 10.417528
54.590 10.035176
54.595 9.604587
54.600 9.717232
54.605 9.941138
54.610 10.612408
54.615 10.957289
54.620 10.987796
54.625 11.053734
54.630 11.105543
54.635 10.893497
54.640 10.61681
54.645 10.534414
54.650 10.443289
54.655 10.494019
54.660 10.618564
54.665 10.881715
54.670 11.139403
54.675 11.758757
54.680 12.092223
54.685 12.30735
54.690 12.369946
54.695 12.257779
54.700 11.671721
54.705 11.397636
54.710 11.00659
54.715 10.778037
54.720 10.395107
54.725 10.666328
54.730 11.087081
54.735 11.177612
54.740 11.409643
54.745 11.17096
54.750 11.387361
54.755 11.737326
54.760 11.363188
54.765 11.307108
54.770 11.340254
54.775 11.013551
54.780 10.969986
54.785 10.723845
54.790 10.566007
54.795 10.793199
54.800 10.768726
54.805 10.713604
54.810 10.845704
54.815 10.61677
54.820 10.807274
54.825 11.054138
54.830 10.694226
54.835 11.335309
54.840 11.398457
54.845 11.250835
54.850 11.693115
54.855 11.048724
54.860 11.282659
54.865 11.34584
54.870 11.31161
54.875 12.204494
54.880 13.094709
54.885 13.275792
54.890 13.493192
54.895 13.246582
54.900 12.968068
54.905 12.615199
54.910 12.001885
54.915 11.972437
54.920 12.038549
54.925 11.961557
54.930 11.814972
54.935 11.72485
54.940 11.339351
54.945 11.507186
54.950 11.653139
54.955 11.757006
54.960 11.715307
54.965 12.423602
54.970 12.886225
54.975 13.323925
54.980 13.128629
54.985 12.805962
54.990 12.671905
54.995 12.394693
55.000 12.23597
55.005 12.535444
55.010 12.892917
55.015 12.396888
55.020 12.377056
55.025 12.838716
55.030 12.927162
55.035 12.26384
55.040 11.695142
55.045 11.190166
55.050 11.213034
55.055 11.142214
55.060 10.797151
55.065 10.740875
55.070 11.049183
55.075 10.91715
55.080 11.550387
55.085 12.361205
55.090 12.339787
55.095 12.401514
55.100 12.701163
55.105 13.119522
55.110 13.103106
55.115 12.199815
55.120 11.67315
55.125 11.936171
55.130 11.797365
55.135 11.741619
55.140 11.549664
55.145 11.875096
55.150 12.577997
55.155 12.494649
55.160 12.090915
55.165 11.955608
55.170 11.980323
55.175 11.632445
55.180 11.416228
55.185 10.752934
55.190 10.598729
55.195 11.380944
55.200 11.853809
55.205 12.04353
55.210 12.447211
55.215 12.508042
55.220 13.321578
55.225 13.291392
55.230 12.624446
55.235 12.267097
55.240 12.258771
55.245 12.255502
55.250 12.089792
55.255 11.638437
55.260 11.969944
55.265 11.997128
55.270 11.717428
55.275 11.357322
55.280 11.220607
55.285 11.231711
55.290 11.257964
55.295 10.916547
55.300 10.76388
55.305 11.030391
55.310 10.961624
55.315 10.632416
55.320 10.654966
55.325 10.687066
55.330 10.78106
55.335 10.647869
55.340 10.188305
55.345 10.330148
55.350 10.670448
55.355 10.970885
55.360 11.345272
55.365 11.450104
55.370 11.786744
55.375 12.203405
55.380 11.996296
55.385 11.601723
55.390 11.268243
55.395 11.889598
55.400 12.006525
55.405 12.055187
55.410 12.184883
55.415 12.432161
55.420 12.448404
55.425 12.431786
55.430 12.236093
55.435 12.463875
55.440 12.667626
55.445 12.37849
55.450 12.394205
55.455 12.534136
55.460 12.554386
55.465 12.580717
55.470 12.515139
55.475 12.718348
55.480 13.021333
55.485 12.621558
55.490 12.558038
55.495 12.304838
55.500 12.120801
55.505 12.289782
55.510 12.326111
55.515 12.767372
55.520 13.318181
55.525 13.509794
55.530 13.525929
55.535 13.405931
55.540 13.075192
55.545 12.589911
55.550 12.127158
55.555 11.923121
55.560 12.040149
55.565 12.386248
55.570 12.254566
55.575 12.417212
55.580 12.774741
55.585 12.735082
55.590 13.046503
55.595 12.777891
55.600 12.563259
55.605 12.108357
55.610 11.790603
55.615 11.490057
55.620 11.496269
55.625 11.287238
55.630 11.239904
55.635 11.421421
55.640 11.599174
55.645 11.882337
55.650 12.384817
55.655 12.684696
55.660 12.573679
55.665 12.75096
55.670 13.102367
55.675 13.032349
55.680 12.484343
55.685 11.895778
55.690 11.821642
55.695 12.183354
55.700 11.620902
55.705 11.631122
55.710 12.116183
55.715 12.69136
55.720 13.336184
55.725 13.384901
55.730 13.469457
55.735 13.502663
55.740 13.261172
55.745 13.112506
55.750 12.883407
55.755 12.172512
55.760 12.128405
55.765 11.967362
55.770 11.800549
55.775 11.875097
55.780 11.547138
55.785 11.334653
55.790 11.965229
55.795 12.201404
55.800 12.49676
55.805 12.337548
55.810 12.163839
55.815 12.904405
55.820 13.380803
55.825 13.341948
55.830 13.1143
55.835 13.432194
55.840 13.615409
55.845 13.837773
55.850 13.500731
55.855 13.248013
55.860 12.64345
55.865 12.497266
55.870 11.800318
55.875 11.654354
55.880 11.564632
55.885 11.560728
55.890 11.815691
55.895 12.555132
55.900 12.799863
55.905 13.214654
55.910 13.65018
55.915 13.587148
55.920 13.785951
55.925 13.365681
55.930 12.528464
55.935 12.292834
55.940 12.133106
55.945 12.773565
55.950 12.776929
55.955 12.597042
55.960 12.81974
55.965 13.601072
55.970 14.208394
55.975 14.358407
55.980 13.823618
55.985 14.235476
55.990 14.537887
55.995 14.290723
56.000 14.174075
56.005 14.088381
56.010 13.86043
56.015 13.438859
56.020 12.996943
56.025 12.704983
56.030 12.760324
56.035 12.473073
56.040 12.053621
56.045 12.266738
56.050 12.731262
56.055 13.191265
56.060 13.16484
56.065 12.996178
56.070 13.247385
56.075 13.788734
56.080 13.55797
56.085 13.340201
56.090 13.000042
56.095 12.939766
56.100 12.574009
56.105 12.769174
56.110 13.023656
56.115 12.869819
56.120 12.497396
56.125 12.577858
56.130 13.182194
56.135 13.795795
56.140 13.671038
56.145 13.189929
56.150 13.596557
56.155 13.790857
56.160 13.97418
56.165 13.655254
56.170 13.168823
56.175 12.782428
56.180 12.582276
56.185 12.595059
56.190 12.478129
56.195 12.067095
56.200 12.281055
56.205 12.380708
56.210 12.465299
56.215 12.607208
56.220 12.545308
56.225 13.038486
56.230 13.606646
56.235 13.482993
56.240 13.66871
56.245 14.189253
56.250 14.644392
56.255 14.593327
56.260 14.251219
56.265 13.866448
56.270 13.725114
56.275 13.434418
56.280 12.75809
56.285 12.301775
56.290 12.331639
56.295 12.655579
56.300 12.570956
56.305 12.101511
56.310 11.911044
56.315 12.245166
56.320 12.698476
56.325 12.461143
56.330 12.122396
56.335 12.336658
56.340 12.79083
56.345 12.936117
56.350 12.786131
56.355 12.324935
56.360 12.736458
56.365 12.910821
56.370 13.024603
56.375 13.339577
56.380 13.708506
56.385 13.754465
56.390 13.505218
56.395 13.314656
56.400 13.732893
56.405 14.016273
56.410 13.771709
56.415 13.5669
56.420 13.765734
56.425 14.212528
56.430 14.540124
56.435 14.476038
56.440 14.490778
56.445 14.60909
56.450 14.979532
56.455 14.941146
56.460 15.155606
56.465 14.977903
56.470 14.818769
56.475 14.565279
56.480 14.756578
56.485 14.049977
56.490 14.569077
56.495 13.788995
56.500 13.64282
56.505 14.075182
56.510 13.88487
56.515 14.123229
56.520 14.586723
56.525 14.351963
56.530 14.24831
56.535 14.30909
56.540 14.223134
56.545 14.226722
56.550 13.599788
56.555 13.101197
56.560 12.844325
56.565 13.417016
56.570 13.176744
56.575 13.229951
56.580 13.160047
56.585 13.278858
56.590 13.176683
56.595 12.935037
56.600 13.528021
56.605 13.624413
56.610 13.84766
56.615 13.870273
56.620 13.771705
56.625 13.827153
56.630 13.894525
56.635 12.978981
56.640 12.727737
56.645 12.372927
56.650 12.281023
56.655 12.418115
56.660 12.727389
56.665 12.56415
56.670 12.53826
56.675 13.215707
56.680 13.692842
56.685 14.179053
56.690 14.487685
56.695 14.68719
56.700 14.630755
56.705 13.925813
56.710 12.868395
56.715 12.648784
56.720 12.672742
56.725 12.272593
56.730 12.326818
56.735 12.78314
56.740 13.296519
56.745 13.628887
56.750 13.751608
56.755 13.578046
56.760 13.671385
56.765 13.476198
56.770 13.221586
56.775 13.241715
56.780 12.637271
56.785 12.591996
56.790 13.055628
56.795 13.502521
56.800 14.172654
56.805 14.519645
56.810 14.318825
56.815 14.458768
56.820 14.83575
56.825 14.237753
56.830 14.015181
56.835 13.577306
56.840 13.734486
56.845 14.580582
56.850 14.90592
56.855 14.467505
56.860 14.598599
56.865 14.640059
56.870 14.269173
56.875 13.819848
56.880 13.214523
56.885 12.972776
56.890 13.003452
56.895 13.154162
56.900 13.859097
56.905 14.312103
56.910 14.726412
56.915 15.143477
56.920 15.568765
56.925 15.809052
56.930 15.464103
56.935 14.626554
56.940 14.172463
56.945 13.694925
56.950 13.092495
56.955 12.793
56.960 12.312803
56.965 12.475904
56.970 12.346046
56.975 13.425985
56.980 13.99209
56.985 14.650793
56.990 15.024065
56.995 15.718651
57.000 15.470602
57.005 15.539254
57.010 14.405437
57.015 13.798592
57.020 13.454841
57.025 13.070575
57.030 12.413179
57.035 12.954179
57.040 13.40822
57.045 13.588325
57.050 13.708529
57.055 13.710535
57.060 13.891205
57.065 14.14852
57.070 14.056902
57.075 14.616754
57.080 14.9138
57.085 15.390977
57.090 15.293864
57.095 15.212082
57.100 15.495749
57.105 15.457676
57.110 14.981673
57.115 15.232423
57.120 14.560334
57.125 14.823975
57.130 14.655629
57.135 14.472452
57.140 14.274925
57.145 14.71933
57.150 14.526838
57.155 14.39792
57.160 13.974617
57.165 14.184945
57.170 14.100615
57.175 13.83623
57.180 13.682484
57.185 14.151314
57.190 14.69526
57.195 14.842478
57.200 14.976066
57.205 15.40569
57.210 15.977549
57.215 15.313764
57.220 14.755593
57.225 14.685931
57.230 14.458694
57.235 14.045996
57.240 13.804979
57.245 13.455937
57.250 13.532429
57.255 13.706258
57.260 13.894047
57.265 14.483117
57.270 14.469726
57.275 14.219343
57.280 14.257769
57.285 14.323967
57.290 14.417802
57.295 14.162104
57.300 13.930467
57.305 13.88671
57.310 13.855041
57.315 13.931302
57.320 14.006286
57.325 14.149274
57.330 14.2101
57.335 13.889045
57.340 14.153929
57.345 14.645136
57.350 14.174286
57.355 13.790484
57.360 13.492958
57.365 14.084547
57.370 14.61197
57.375 14.751133
57.380 14.993043
57.385 15.887829
57.390 16.516626
57.395 16.351685
57.400 16.175207
57.405 15.513021
57.410 14.84892
57.415 14.051083
57.420 13.766963
57.425 13.56141
57.430 13.804847
57.435 14.267167
57.440 15.150619
57.445 15.957008
57.450 15.963916
57.455 15.704045
57.460 15.706359
57.465 15.243537
57.470 14.331962
57.475 13.93433
57.480 13.392794
57.485 14.149551
57.490 14.247624
57.495 13.939051
57.500 14.018272
57.505 14.142821
57.510 13.994245
57.515 13.960051
57.520 13.703423
57.525 14.125866
57.530 14.715579
57.535 15.066055
57.540 14.945827
57.545 15.034011
57.550 14.651894
57.555 14.239467
57.560 13.638022
57.565 13.098516
57.570 13.261444
57.575 13.81927
57.580 14.273316
57.585 14.800161
57.590 14.869492
57.595 15.318607
57.600 15.655946
57.605 15.290469
57.610 15.220354
57.615 14.946156
57.620 14.78681
57.625 15.001659
57.630 15.072811
57.635 14.917327
57.640 15.060785
57.645 14.846346
57.650 14.883511
57.655 14.768025
57.660 14.265047
57.665 14.154747
57.670 14.389164
57.675 14.581429
57.680 15.003845
57.685 15.485681
57.690 15.621293
57.695 15.900311
57.700 16.011137
57.705 16.029587
57.710 15.946991
57.715 15.494214
57.720 15.331984
57.725 15.668838
57.730 15.913178
57.735 16.361973
57.740 16.400276
57.745 16.45216
57.750 16.688934
57.755 16.744066
57.760 16.569803
57.765 16.06319
57.770 15.257371
57.775 14.961662
57.780 15.30806
57.785 14.846816
57.790 14.670501
57.795 14.751412
57.800 14.848691
57.805 14.953318
57.810 15.075126
57.815 14.967758
57.820 14.81497
57.825 14.879835
57.830 14.440348
57.835 14.022806
57.840 13.859152
57.845 13.548873
57.850 13.383543
57.855 13.417199
57.860 13.337169
57.865 13.277092
57.870 13.934966
57.875 14.539077
57.880 14.528217
57.885 14.595873
57.890 15.363404
57.895 15.767029
57.900 15.890038
57.905 15.521166
57.910 15.372705
57.915 15.121052
57.920 15.257565
57.925 14.900259
57.930 14.839497
57.935 14.771571
57.940 15.054907
57.945 15.333987
57.950 15.933949
57.955 16.238415
57.960 16.150848
57.965 15.842109
57.970 15.952927
57.975 15.897738
57.980 15.463153
57.985 14.755384
57.990 14.136744
57.995 13.917686
58.000 13.854861
58.005 14.010346
58.010 13.950225
58.015 13.801213
58.020 14.162179
58.025 14.066091
58.030 14.457661
58.035 15.01571
58.040 15.54778
58.045 15.930155
58.050 16.028051
58.055 15.695897
58.060 15.672416
58.065 15.453426
58.070 15.510987
58.075 15.00639
58.080 14.984411
58.085 15.412233
58.090 15.798899
58.095 15.843659
58.100 16.012531
58.105 15.488266
58.110 15.293343
58.115 14.699273
58.120 14.395198
58.125 14.343322
58.130 14.191288
58.135 14.172147
58.140 14.729933
58.145 15.359026
58.150 15.993636
58.155 16.448015
58.160 16.629597
58.165 16.951199
58.170 16.698877
58.175 16.344324
58.180 15.593375
58.185 14.923467
58.190 14.805682
58.195 14.699512
58.200 14.966025
58.205 15.221496
58.210 15.104122
58.215 15.419561
58.220 15.671178
58.225 15.397602
58.230 15.264454
58.235 14.587525
58.240 14.381034
58.245 14.034052
58.250 13.773888
58.255 14.078171
58.260 14.207114
58.265 14.80628
58.270 16.086603
58.275 16.692101
58.280 17.353275
58.285 17.610704
58.290 17.311747
58.295 17.011446
58.300 16.709139
58.305 15.714814
58.310 15.171384
58.315 15.231903
58.320 15.791995
58.325 16.48321
58.330 16.663488
58.335 16.688927
58.340 17.054369
58.345 17.199924
58.350 16.534479
58.355 15.507797
58.360 14.612302
58.365 15.077242
58.370 15.058595
58.375 14.980522
58.380 14.863238
58.385 14.951716
58.390 15.188246
58.395 15.448587
58.400 14.976729
58.405 14.91278
58.410 14.569293
58.415 14.489861
58.420 14.619027
58.425 14.632072
58.430 14.906548
58.435 15.38228
58.440 15.809366
58.445 15.97574
58.450 16.253826
58.455 16.458981
58.460 16.6283
58.465 16.081154
58.470 15.639353
58.475 15.50537
58.480 15.578198
58.485 15.356563
58.490 15.171369
58.495 15.54434
58.500 16.466658
58.505 16.630667
58.510 16.678162
58.515 16.670202
58.520 16.423452
58.525 16.12373
58.530 16.058802
58.535 15.507594
58.540 15.659522
58.545 15.222713
58.550 15.19138
58.555 15.30494
58.560 15.896092
58.565 15.355472
58.570 15.854266
58.575 15.457583
58.580 15.618414
58.585 16.210169
58.590 17.005819
58.595 16.962488
58.600 17.130941
58.605 16.762074
58.610 17.042494
58.615 16.881104
58.620 16.722925
58.625 16.512867
58.630 16.272829
58.635 16.79847
58.640 16.827276
58.645 16.279863
58.650 16.29549
58.655 15.964074
58.660 15.371974
58.665 15.229091
58.670 14.829629
58.675 14.606961
58.680 14.835155
58.685 15.010097
58.690 15.380606
58.695 16.059105
58.700 16.012794
58.705 15.360402
58.710 15.508235
58.715 15.51278
58.720 15.837471
58.725 16.279369
58.730 16.215027
58.735 16.533936
58.740 16.389097
58.745 16.532095
58.750 16.718218
58.755 16.547363
58.760 16.006445
58.765 16.029682
58.770 16.219894
58.775 16.938858
58.780 16.763092
58.785 16.368834
58.790 15.721481
58.795 15.673113
58.800 15.923099
58.805 15.733919
58.810 15.719109
58.815 15.406681
58.820 15.097478
58.825 15.202792
58.830 14.748766
58.835 14.259248
58.840 14.294937
58.845 14.145406
58.850 14.359809
58.855 14.826934
58.860 14.540022
58.865 14.180346
58.870 14.448325
58.875 13.923312
58.880 13.958957
58.885 14.478206
58.890 15.164793
58.895 15.157234
58.900 15.318802
58.905 15.262511
58.910 16.265965
58.915 16.951893
58.920 16.940453
58.925 16.936441
58.930 17.579269
58.935 17.906275
58.940 17.91573
58.945 17.059364
58.950 16.57069
58.955 15.831853
58.960 15.494197
58.965 15.373555
58.970 15.483554
58.975 15.252967
58.980 15.764999
58.985 15.734478
58.990 16.604116
58.995 16.804394
59.000 17.017109
59.005 16.610563
59.010 16.953434
59.015 16.669071
59.020 16.520947
59.025 15.811009
59.030 15.978539
59.035 16.276075
59.040 16.573776
59.045 16.126507
59.050 15.869973
59.055 16.026154
59.060 16.08894
59.065 15.824532
59.070 15.253799
59.075 15.537214
59.080 16.184258
59.085 16.848822
59.090 17.479923
59.095 17.800529
59.100 17.525209
59.105 17.445967
59.110 16.857391
59.115 16.376045
59.120 15.944785
59.125 15.40231
59.130 15.06454
59.135 15.612508
59.140 16.150312
59.145 16.525026
59.150 16.603788
59.155 16.474104
59.160 16.53108
59.165 16.094217
59.170 15.143655
59.175 15.082577
59.180 15.159108
59.185 15.191212
59.190 14.947017
59.195 14.848402
59.200 15.349022
59.205 15.929708
59.210 16.406826
59.215 16.011835
59.220 16.36837
59.225 16.821486
59.230 16.7008
59.235 17.011475
59.240 17.028776
59.245 16.639393
59.250 17.028326
59.255 17.375605
59.260 16.977964
59.265 16.649584
59.270 16.613991
59.275 17.136108
59.280 16.937319
59.285 16.428535
59.290 15.955416
59.295 16.129705
59.300 16.564753
59.305 16.600603
59.310 15.916813
59.315 16.008144
59.320 15.763558
59.325 16.044317
59.330 16.182978
59.335 15.908214
59.340 15.693406
59.345 15.400604
59.350 15.409643
59.355 16.29632
59.360 16.560482
59.365 16.602503
59.370 17.081131
59.375 17.29126
59.380 17.381222
59.385 17.536678
59.390 17.821098
59.395 18.00506
59.400 18.414047
59.405 18.189426
59.410 18.687218
59.415 19.149481
59.420 19.221769
59.425 18.983061
59.430 18.692965
59.435 18.592209
59.440 18.968151
59.445 19.276529
59.450 19.273382
59.455 19.082024
59.460 18.992762
59.465 19.395832
59.470 19.513248
59.475 18.764168
59.480 17.957264
59.485 18.108513
59.490 18.338562
59.495 18.106211
59.500 17.932169
59.505 17.673529
59.510 17.49382
59.515 17.384077
59.520 17.358339
59.525 17.104662
59.530 17.150953
59.535 16.918066
59.540 17.370951
59.545 17.979595
59.550 18.198069
59.555 18.073305
59.560 18.441811
59.565 18.804352
59.570 18.964071
59.575 18.64266
59.580 18.697821
59.585 18.669226
59.590 18.847517
59.595 19.066231
59.600 19.386196
59.605 19.645792
59.610 19.767416
59.615 19.79463
59.620 20.014523
59.625 20.168802
59.630 20.245838
59.635 20.72949
59.640 21.024364
59.645 20.808115
59.650 20.898991
59.655 21.439695
59.660 21.278444
59.665 20.623783
59.670 20.12351
59.675 20.472054
59.680 21.09977
59.685 20.935179
59.690 20.663452
59.695 21.006664
59.700 21.75676
59.705 21.474535
59.710 21.161943
59.715 20.856539
59.720 21.012775
59.725 21.107386
59.730 21.237612
59.735 21.464886
59.740 21.046831
59.745 20.43342
59.750 20.363382
59.755 20.401552
59.760 20.62249
59.765 20.820107
59.770 20.260681
59.775 21.125584
59.780 21.684122
59.785 21.50112
59.790 21.388165
59.795 20.909981
59.800 20.608513
59.805 20.943392
59.810 20.646105
59.815 21.298834
59.820 21.68276
59.825 21.869022
59.830 21.900093
59.835 22.102745
59.840 22.676899
59.845 22.842138
59.850 22.671791
59.855 23.237621
59.860 23.348366
59.865 23.391552
59.870 22.988853
59.875 21.590498
59.880 20.897806
59.885 20.337891
59.890 20.0219
59.895 20.021662
59.900 20.072346
59.905 20.041967
59.910 20.8496
59.915 20.696508
59.920 21.408176
59.925 21.317133
59.930 21.040956
59.935 21.30443
59.940 21.867956
59.945 22.490465
59.950 22.941805
59.955 22.058832
59.960 22.477163
59.965 22.774639
59.970 23.034555
59.975 22.588406
59.980 22.580891
59.985 22.564159
59.990 22.700695
59.995 22.316393
60.000 21.955259
60.005 22.0734
60.010 21.901924
60.015 21.108618
60.020 21.326235
60.025 21.844898
60.030 22.253223
60.035 22.480793
60.040 22.081091
60.045 22.324921
60.050 22.880939
60.055 22.50769
60.060 22.078791
60.065 21.826836
60.070 21.407072
60.075 21.798618
60.080 22.219259
60.085 22.363777
60.090 22.142521
60.095 21.665983
60.100 21.688032
60.105 21.606426
60.110 21.841257
60.115 21.536446
60.120 21.097515
60.125 22.23465
60.130 22.856211
60.135 22.764868
60.140 22.842201
60.145 22.29598
60.150 22.533611
60.155 22.792803
60.160 22.318663
60.165 22.809229
60.170 23.007721
60.175 22.761202
60.180 22.261263
60.185 22.030106
60.190 21.528372
60.195 21.282841
60.200 20.910784
60.205 20.690937
60.210 20.760483
60.215 20.886194
60.220 21.12118
60.225 22.18054
60.230 22.655127
60.235 22.873171
60.240 22.783306
60.245 23.572144
60.250 23.521189
60.255 23.430834
60.260 22.151251
60.265 21.541727
60.270 21.702963
60.275 22.383768
60.280 22.440811
60.285 22.392307
60.290 22.0986
60.295 22.351387
60.300 22.22308
60.305 21.552267
60.310 21.121956
60.315 20.911486
60.320 21.179043
60.325 21.549305
60.330 21.859344
60.335 21.795202
60.340 21.927006
60.345 21.930407
60.350 21.932291
60.355 21.448576
60.360 21.250099
60.365 20.993948
60.370 21.06673
60.375 20.493345
60.380 20.01008
60.385 20.027613
60.390 20.443501
60.395 20.952627
60.400 21.494959
60.405 21.59943
60.410 22.206356
60.415 21.922573
60.420 21.532364
60.425 21.301254
60.430 21.089907
60.435 20.804874
60.440 20.488573
60.445 20.324224
60.450 20.499041
60.455 20.916525
60.460 20.62937
60.465 20.09989
60.470 20.210043
60.475 20.299511
60.480 20.587788
60.485 20.673777
60.490 20.300526
60.495 20.448633
60.500 20.6455
60.505 20.624863
60.510 20.577116
60.515 20.004267
60.520 19.618515
60.525 19.628714
60.530 19.568563
60.535 20.088345
60.540 20.17309
60.545 20.126884
60.550 20.146923
60.555 20.092009
60.560 20.069803
60.565 19.589338
60.570 18.695177
60.575 18.797421
60.580 18.822981
60.585 19.176153
60.590 19.37952
60.595 19.343607
60.600 19.017942
60.605 19.680038
60.610 19.168171
60.615 19.021215
60.620 19.114536
60.625 18.787455
60.630 19.184488
60.635 19.974323
60.640 19.343012
60.645 19.435743
60.650 19.593033
60.655 19.456615
60.660 19.533123
60.665 19.362688
60.670 18.950336
60.675 18.609947
60.680 17.992104
60.685 17.511826
60.690 17.621162
60.695 17.67705
60.700 17.319622
60.705 17.406689
60.710 17.691309
60.715 17.990723
60.720 17.937595
60.725 17.783909
60.730 18.044958
60.735 18.400398
60.740 18.202278
60.745 18.11216
60.750 18.135967
60.755 18.68714
60.760 19.136105
60.765 19.067039
60.770 18.65292
60.775 18.403208
60.780 18.697021
60.785 19.04483
60.790 18.781662
60.795 18.842068
60.800 18.787516
60.805 18.819443
60.810 18.918739
60.815 18.326773
60.820 17.545454
60.825 17.56242
60.830 17.3022
60.835 17.440031
60.840 17.829662
60.845 17.972319
60.850 19.01161
60.855 19.795662
60.860 19.63286
60.865 19.162992
60.870 18.774813
60.875 18.718418
60.880 18.25873
60.885 17.27363
60.890 16.852398
60.895 16.865604
60.900 17.023863
60.905 17.179235
60.910 16.923532
60.915 16.817551
60.920 17.4023
60.925 17.753597
60.930 17.945621
60.935 17.984661
60.940 17.661028
60.945 17.589935
60.950 17.661005
60.955 17.256023
60.960 17.495403
60.965 17.478458
60.970 17.900892
60.975 18.417774
60.980 18.097809
60.985 18.061815
60.990 18.001387
60.995 17.153399
61.000 16.612694
61.005 16.93096
61.010 16.781731
61.015 17.199232
61.020 17.975122
61.025 18.252218
61.030 18.397635
61.035 18.938169
61.040 18.726881
61.045 18.703081
61.050 18.998144
61.055 17.94721
61.060 17.812321
61.065 17.867619
61.070 18.265545
61.075 18.243818
61.080 18.454693
61.085 18.338398
61.090 19.093632
61.095 18.964268
61.100 19.139664
61.105 18.578882
61.110 17.656555
61.115 17.184877
61.120 16.996775
61.125 17.036076
61.130 16.98423
61.135 16.433285
61.140 16.104843
61.145 16.808004
61.150 16.990154
61.155 16.81612
61.160 16.580685
61.165 17.159136
61.170 17.58898
61.175 18.003836
61.180 18.041416
61.185 18.142908
61.190 18.526917
61.195 18.75622
61.200 19.302172
61.205 20.157114
61.210 19.952272
61.215 19.695057
61.220 19.646545
61.225 19.139069
61.230 19.114058
61.235 18.335649
61.240 17.417315
61.245 17.407175
61.250 17.280422
61.255 17.508892
61.260 18.224985
61.265 18.314653
61.270 18.267756
61.275 17.676687
61.280 17.409615
61.285 17.752237
61.290 17.475266
61.295 17.111229
61.300 16.499994
61.305 16.467251
61.310 17.461561
61.315 17.912416
61.320 17.86331
61.325 17.95409
61.330 17.812256
61.335 18.727131
61.340 18.876455
61.345 18.33309
61.350 18.511368
61.355 18.473951
61.360 18.46242
61.365 18.502905
61.370 17.553753
61.375 16.920147
61.380 17.026939
61.385 16.430117
61.390 16.118698
61.395 16.031164
61.400 16.063219
61.405 16.491247
61.410 16.704483
61.415 16.483797
61.420 16.86237
61.425 17.302357
61.430 17.162868
61.435 17.62096
61.440 17.514147
61.445 18.030239
61.450 18.417528
61.455 18.069155
61.460 17.936758
61.465 18.303659
61.470 18.055971
61.475 18.280008
61.480 17.785521
61.485 17.808632
61.490 18.295561
61.495 18.229595
61.500 17.967876
61.505 17.469364
61.510 17.53203
61.515 18.125116
61.520 17.696331
61.525 17.317553
61.530 17.273932
61.535 17.718124
61.540 18.355684
61.545 18.24542
61.550 17.754393
61.555 18.034372
61.560 18.29014
61.565 18.01318
61.570 18.324036
61.575 18.282387
61.580 17.56374
61.585 17.49329
61.590 17.48917
61.595 17.475153
61.600 17.609623
61.605 17.028513
61.610 16.403233
61.615 16.940784
61.620 17.218996
61.625 17.407869
61.630 17.104326
61.635 17.25465
61.640 17.421438
61.645 17.742426
61.650 17.528524
61.655 17.231886
61.660 17.405306
61.665 18.231087
61.670 18.376884
61.675 18.187162
61.680 18.144842
61.685 18.296364
61.690 18.428713
61.695 18.230625
61.700 17.551609
61.705 17.291027
61.710 17.217871
61.715 16.872227
61.720 16.725544
61.725 16.469257
61.730 16.354477
61.735 16.488295
61.740 16.240343
61.745 16.04686
61.750 16.327452
61.755 16.4286
61.760 16.585726
61.765 16.807528
61.770 16.718788
61.775 16.625063
61.780 16.87797
61.785 16.778599
61.790 16.948162
61.795 16.898567
61.800 16.478506
61.805 16.561293
61.810 16.817028
61.815 16.765274
61.820 16.69939
61.825 16.92556
61.830 16.841616
61.835 16.975863
61.840 16.947077
61.845 16.989487
61.850 17.175541
61.855 18.298067
61.860 18.657902
61.865 18.986992
61.870 18.920883
61.875 19.351273
61.880 19.288708
61.885 19.702707
61.890 19.574383
61.895 18.993229
61.900 19.005882
61.905 19.338289
61.910 19.576706
61.915 19.354454
61.920 18.677429
61.925 17.862659
61.930 17.402489
61.935 17.004749
61.940 16.51215
61.945 15.823344
61.950 15.414823
61.955 15.290089
61.960 15.629602
61.965 16.051741
61.970 16.42956
61.975 16.776335
61.980 17.471092
61.985 17.924835
61.990 18.140713
61.995 18.154066
62.000 18.121244
62.005 18.620117
62.010 18.925032
62.015 18.547438
62.020 18.469313
62.025 18.144381
62.030 18.186954
62.035 17.769157
62.040 17.272728
62.045 17.303381
62.050 17.119539
62.055 17.725676
62.060 18.049841
62.065 17.989994
62.070 17.909327
62.075 17.133631
62.080 16.887423
62.085 17.759159
62.090 17.627453
62.095 17.413885
62.100 17.251249
62.105 17.360939
62.110 17.720329
62.115 17.455044
62.120 17.094261
62.125 16.874435
62.130 17.055952
62.135 17.045902
62.140 17.551764
62.145 17.49464
62.150 17.09804
62.155 16.946753
62.160 16.733704
62.165 16.913784
62.170 17.838068
62.175 18.159264
62.180 18.403461
62.185 18.588465
62.190 18.694433
62.195 19.168373
62.200 19.345531
62.205 18.501059
62.210 17.744358
62.215 17.521254
62.220 17.26993
62.225 17.104607
62.230 16.844334
62.235 16.429043
62.240 16.736
62.245 17.291718
62.250 17.614882
62.255 18.294121
62.260 18.13183
62.265 17.706059
62.270 17.935347
62.275 18.064451
62.280 18.012325
62.285 18.139112
62.290 17.433298
62.295 17.259958
62.300 17.426765
62.305 16.983377
62.310 16.523869
62.315 15.928192
62.320 15.933149
62.325 16.255798
62.330 16.133411
62.335 16.025917
62.340 15.410091
62.345 15.641318
62.350 16.163467
62.355 16.604956
62.360 17.202761
62.365 17.720152
62.370 18.106663
62.375 18.763083
62.380 18.523781
62.385 18.087151
62.390 17.898226
62.395 17.276478
62.400 17.657862
62.405 17.573502
62.410 17.766018
62.415 18.244013
62.420 18.631689
62.425 18.447313
62.430 18.700665
62.435 18.461
62.440 18.184986
62.445 18.397093
62.450 18.818413
62.455 18.788168
62.460 18.852016
62.465 18.291805
62.470 18.612219
62.475 18.931532
62.480 18.205097
62.485 17.666615
62.490 18.106573
62.495 18.116779
62.500 18.354511
62.505 17.943258
62.510 17.628668
62.515 17.986549
62.520 17.864504
62.525 17.271015
62.530 17.112219
62.535 16.699144
62.540 16.890594
62.545 16.993269
62.550 16.107998
62.555 16.279297
62.560 16.628839
62.565 16.849331
62.570 16.902822
62.575 16.939854
62.580 16.981825
62.585 17.732588
62.590 18.192207
62.595 17.688896
62.600 17.373678
62.605 17.784592
62.610 17.650879
62.615 17.825041
62.620 17.062168
62.625 16.568069
62.630 16.987461
62.635 17.72506
62.640 17.443621
62.645 17.438368
62.650 17.788441
62.655 18.440678
62.660 18.008774
62.665 17.658669
62.670 17.274874
62.675 17.646088
62.680 17.60351
62.685 17.412493
62.690 17.273815
62.695 17.432878
62.700 17.653913
62.705 17.737637
62.710 17.778536
62.715 18.085913
62.720 18.559666
62.725 19.170046
62.730 19.565111
62.735 19.326756
62.740 19.052618
62.745 18.903011
62.750 18.527458
62.755 18.321196
62.760 17.687912
62.765 17.591852
62.770 17.890022
62.775 17.850527
62.780 17.93922
62.785 17.709949
62.790 17.706772
62.795 18.461395
62.800 18.341755
62.805 18.523737
62.810 18.518309
62.815 18.519573
62.820 18.865002
62.825 18.319359
62.830 17.327171
62.835 16.683853
62.840 16.591942
62.845 16.926739
62.850 16.827044
62.855 17.01939
62.860 17.477163
62.865 18.193745
62.870 18.39649
62.875 18.247286
62.880 17.751366
62.885 17.399336
62.890 17.300394
62.895 17.436485
62.900 16.909084
62.905 16.799709
62.910 17.148676
62.915 17.777218
62.920 18.096071
62.925 18.264786
62.930 17.870033
62.935 18.498802
62.940 19.573921
62.945 19.207647
62.950 19.11791
62.955 19.127428
62.960 18.913687
62.965 18.943171
62.970 18.884527
62.975 18.648829
62.980 18.58371
62.985 18.239777
62.990 18.302919
62.995 18.659868
63.000 19.030157
63.005 18.365465
63.010 18.244802
63.015 18.457836
63.020 18.451998
63.025 18.330038
63.030 17.372259
63.035 16.943417
63.040 17.280169
63.045 17.337469
63.050 17.634722
63.055 17.588331
63.060 17.111217
63.065 17.581604
63.070 17.855566
63.075 17.910543
63.080 17.502127
63.085 17.191034
63.090 17.052567
63.095 17.393003
63.100 17.181496
63.105 16.933502
63.110 16.956881
63.115 17.31678
63.120 17.768984
63.125 18.192108
63.130 17.935698
63.135 17.813004
63.140 17.777634
63.145 17.712378
63.150 17.567612
63.155 17.280096
63.160 17.149467
63.165 17.939426
63.170 17.78557
63.175 17.729084
63.180 17.56683
63.185 17.541164
63.190 17.70546
63.195 17.737734
63.200 17.153893
63.205 17.367899
63.210 17.754801
63.215 18.276279
63.220 17.74896
63.225 17.076973
63.230 16.662214
63.235 16.807867
63.240 17.292875
63.245 16.606989
63.250 16.171501
63.255 16.880047
63.260 17.052986
63.265 17.046431
63.270 16.905861
63.275 16.420004
63.280 16.753651
63.285 16.823143
63.290 16.989061
63.295 17.514498
63.300 17.689489
63.305 17.834635
63.310 18.497303
63.315 18.696749
63.320 18.612301
63.325 18.112528
63.330 17.742722
63.335 17.827843
63.340 17.677748
63.345 17.501488
63.350 18.006262
63.355 18.23925
63.360 18.399399
63.365 18.827393
63.370 18.902283
63.375 19.108648
63.380 19.056145
63.385 18.621841
63.390 18.357708
63.395 18.593288
63.400 18.114868
63.405 17.719303
63.410 17.628576
63.415 17.915686
63.420 17.829594
63.425 18.104231
63.430 18.101194
63.435 18.009653
63.440 17.933781
63.445 17.507486
63.450 16.767906
63.455 17.223936
63.460 17.394337
63.465 18.063828
63.470 18.535614
63.475 18.432556
63.480 18.658236
63.485 19.046368
63.490 18.916468
63.495 19.024672
63.500 18.471264
63.505 18.731632
63.510 19.3109
63.515 19.158251
63.520 18.690836
63.525 18.871464
63.530 18.943205
63.535 19.581831
63.540 19.778479
63.545 20.053114
63.550 20.194502
63.555 20.299152
63.560 19.951426
63.565 19.284021
63.570 18.687857
63.575 18.447535
63.580 18.164421
63.585 18.351847
63.590 18.477528
63.595 18.594103
63.600 18.916037
63.605 19.059679
63.610 18.810963
63.615 18.841772
63.620 18.572054
63.625 18.40976
63.630 18.075575
63.635 17.247297
63.640 17.058096
63.645 17.373722
63.650 17.11768
63.655 17.231974
63.660 17.608187
63.665 17.9251
63.670 18.793711
63.675 18.867254
63.680 18.457962
63.685 18.699991
63.690 18.378271
63.695 18.228437
63.700 18.551931
63.705 18.200607
63.710 18.004124
63.715 18.33078
63.720 18.382019
63.725 19.235262
63.730 19.778095
63.735 19.017838
63.740 19.10708
63.745 19.483521
63.750 19.951319
63.755 19.882502
63.760 19.184868
63.765 18.601952
63.770 18.861351
63.775 18.777191
63.780 18.606607
63.785 18.086699
63.790 18.576521
63.795 18.795595
63.800 18.533562
63.805 17.824024
63.810 17.886784
63.815 17.570961
63.820 17.54117
63.825 17.262585
63.830 17.441046
63.835 17.651834
63.840 17.799112
63.845 17.823015
63.850 18.207739
63.855 18.103851
63.860 17.987078
63.865 17.92355
63.870 18.106447
63.875 18.418558
63.880 18.348129
63.885 17.933357
63.890 17.774357
63.895 17.673998
63.900 17.93947
63.905 18.571812
63.910 18.749447
63.915 18.712116
63.920 18.852692
63.925 19.11825
63.930 19.627897
63.935 19.462391
63.940 18.960268
63.945 18.427732
63.950 18.423944
63.955 18.70743
63.960 18.416506
63.965 18.094969
63.970 18.056692
63.975 18.172396
63.980 18.58518
63.985 18.647226
63.990 18.425148
63.995 18.260036
64.000 18.015226
64.005 18.363564
64.010 19.04911
64.015 19.109995
64.020 19.725964
64.025 20.092007
64.030 20.693762
64.035 20.877447
64.040 20.63714
64.045 20.251802
64.050 19.991028
64.055 19.680214
64.060 19.770649
64.065 19.684443
64.070 19.25367
64.075 18.983421
64.080 18.240093
64.085 18.423897
64.090 18.700624
64.095 19.348621
64.100 19.342125
64.105 19.345001
64.110 19.668341
64.115 20.501152
64.120 20.93759
64.125 20.596985
64.130 19.799547
64.135 19.994183
64.140 20.129774
64.145 20.091791
64.150 19.699226
64.155 18.981945
64.160 18.414358
64.165 18.111845
64.170 17.649813
64.175 17.324965
64.180 17.334373
64.185 17.325073
64.190 17.35412
64.195 17.69763
64.200 17.590729
64.205 17.655001
64.210 17.898809
64.215 17.807846
64.220 17.648283
64.225 17.673079
64.230 17.478035
64.235 18.208435
64.240 18.590088
64.245 18.71842
64.250 18.804688
64.255 18.866179
64.260 18.988182
64.265 19.703894
64.270 19.271416
64.275 18.884619
64.280 18.641293
64.285 18.632372
64.290 18.542995
64.295 18.686003
64.300 18.767488
64.305 18.851927
64.310 19.207634
64.315 19.375132
64.320 19.69087
64.325 19.849316
64.330 19.776617
64.335 19.062365
64.340 18.691256
64.345 18.203423
64.350 18.28713
64.355 17.859573
64.360 18.194527
64.365 18.108715
64.370 18.312841
64.375 19.548307
64.380 20.484156
64.385 20.258385
64.390 19.753431
64.395 19.961594
64.400 19.974876
64.405 20.148876
64.410 19.526276
64.415 18.973757
64.420 19.760956
64.425 20.684368
64.430 20.269867
64.435 20.592037
64.440 20.778648
64.445 21.245087
64.450 21.951134
64.455 21.861965
64.460 21.660976
64.465 21.570934
64.470 20.497162
64.475 20.113459
64.480 19.702839
64.485 19.080524
64.490 18.736769
64.495 19.009806
64.500 19.792194
64.505 20.320436
64.510 20.168177
64.515 19.858707
64.520 19.777548
64.525 19.600796
64.530 19.647675
64.535 19.470526
64.540 19.676319
64.545 20.355694
64.550 20.46476
64.555 20.507507
64.560 20.497305
64.565 20.143005
64.570 19.660542
64.575 19.783915
64.580 20.267248
64.585 20.638807
64.590 21.102949
64.595 21.34429
64.600 21.219219
64.605 21.203444
64.610 20.450588
64.615 19.477701
64.620 19.265621
64.625 19.144501
64.630 19.178379
64.635 19.585175
64.640 20.289337
64.645 20.922159
64.650 20.690727
64.655 20.781885
64.660 20.889374
64.665 20.620096
64.670 20.282454
64.675 19.819611
64.680 19.664145
64.685 20.845661
64.690 21.080151
64.695 21.067627
64.700 21.735912
64.705 21.644516
64.710 22.343699
64.715 22.434381
64.720 21.532782
64.725 21.494717
64.730 21.746956
64.735 21.666229
64.740 22.272036
64.745 21.708519
64.750 21.876068
64.755 21.716217
64.760 21.401978
64.765 20.863789
64.770 19.643896
64.775 18.761936
64.780 18.919775
64.785 19.265089
64.790 19.326845
64.795 19.351871
64.800 19.873173
64.805 20.955059
64.810 21.719427
64.815 22.165562
64.820 22.328678
64.825 22.849043
64.830 22.869898
64.835 22.69236
64.840 23.063679
64.845 22.712772
64.850 21.832308
64.855 20.902296
64.860 20.209036
64.865 19.70216
64.870 18.971907
64.875 18.732565
64.880 19.076893
64.885 19.253805
64.890 19.329269
64.895 19.777266
64.900 20.779648
64.905 21.844286
64.910 22.051424
64.915 22.23958
64.920 22.766907
64.925 22.88262
64.930 22.999125
64.935 22.398781
64.940 22.211906
64.945 22.095438
64.950 22.079899
64.955 22.128031
64.960 22.888279
64.965 23.052752
64.970 23.068224
64.975 22.698971
64.980 22.473003
64.985 22.522573
64.990 22.382296
64.995 22.405737
65.000 23.019148
65.005 23.613377
65.010 24.0739
65.015 24.223261
65.020 24.954889
65.025 25.325356
65.030 25.140797
65.035 25.305103
65.040 25.544212
65.045 25.810316
65.050 25.834993
65.055 25.430048
65.060 25.197853
65.065 24.551088
65.070 23.880583
65.075 23.524881
65.080 23.419039
65.085 23.687414
65.090 23.734884
65.095 22.91114
65.100 23.272034
65.105 23.627895
65.110 23.892204
65.115 23.909317
65.120 23.699297
65.125 23.895712
65.130 25.201464
65.135 25.873388
65.140 25.752695
65.145 25.735256
65.150 25.652254
65.155 25.616838
65.160 25.805216
65.165 25.733925
65.170 25.273479
65.175 25.213766
65.180 24.645439
65.185 24.252666
65.190 24.011858
65.195 24.125931
65.200 23.632824
65.205 23.126169
65.210 23.345192
65.215 23.41828
65.220 23.969713
65.225 23.603834
65.230 23.178324
65.235 23.481321
65.240 23.540426
65.245 23.610123
65.250 24.145767
65.255 25.070589
65.260 25.839823
65.265 26.36166
65.270 26.629093
65.275 26.466015
65.280 25.482576
65.285 25.078392
65.290 24.46361
65.295 24.129053
65.300 23.440702
65.305 22.635798
65.310 22.993336
65.315 23.66716
65.320 23.323326
65.325 22.931028
65.330 22.768143
65.335 23.533712
65.340 24.51869
65.345 24.723379
65.350 24.894966
65.355 25.094994
65.360 25.358713
65.365 25.204241
65.370 25.374805
65.375 25.232544
65.380 25.378263
65.385 25.772707
65.390 25.281963
65.395 24.814741
65.400 24.911856
65.405 24.874472
65.410 24.51663
65.415 24.65601
65.420 24.607061
65.425 25.48217
65.430 26.146656
65.435 26.999699
65.440 26.906326
65.445 26.851093
65.450 26.443151
65.455 26.446272
65.460 26.677067
65.465 26.5109
65.470 25.705853
65.475 25.841148
65.480 26.22897
65.485 26.545679
65.490 26.542686
65.495 26.4643
65.500 26.906603
65.505 27.376753
65.510 27.67267
65.515 28.166903
65.520 27.754982
65.525 27.834002
65.530 28.483971
65.535 28.880751
65.540 28.63699
65.545 28.829866
65.550 29.157375
65.555 29.605963
65.560 29.892677
65.565 29.296164
65.570 28.876455
65.575 29.379957
65.580 29.433596
65.585 29.656462
65.590 29.968735
65.595 29.352716
65.600 29.457371
65.605 30.217226
65.610 31.159243
65.615 32.070881
65.620 32.016827
65.625 31.998596
65.630 32.437748
65.635 33.213329
65.640 32.545055
65.645 32.501064
65.650 31.779392
65.655 31.923746
65.660 31.952099
65.665 32.396393
65.670 32.194569
65.675 32.961136
65.680 32.939373
65.685 32.652298
65.690 32.947239
65.695 33.187866
65.700 33.504749
65.705 34.064701
65.710 34.014133
65.715 34.411652
65.720 35.169514
65.725 35.096966
65.730 35.452991
65.735 35.505917
65.740 35.822487
65.745 36.064903
65.750 35.410477
65.755 35.485912
65.760 35.841869
65.765 36.048832
65.770 35.26556
65.775 34.119797
65.780 33.307007
65.785 33.858086
65.790 34.057796
65.795 33.907654
65.800 33.726475
65.805 34.206913
65.810 34.494049
65.815 35.473652
65.820 36.431343
65.825 36.546104
65.830 36.523067
65.835 36.098763
65.840 35.704075
65.845 36.4231
65.850 37.022747
65.855 36.676933
65.860 35.907177
65.865 36.671101
65.870 36.802792
65.875 37.051094
65.880 36.835648
65.885 36.381596
65.890 36.327545
65.895 36.752243
65.900 36.980858
65.905 37.487202
65.910 37.755638
65.915 38.064964
65.920 37.731823
65.925 38.146339
65.930 38.232098
65.935 38.172989
65.940 38.020458
65.945 38.236198
65.950 38.266098
65.955 38.440357
65.960 38.118767
65.965 37.553127
65.970 37.144577
65.975 37.709106
65.980 37.778027
65.985 37.750404
65.990 38.75312
65.995 38.795921
66.000 39.944485
66.005 40.968948
66.010 40.909588
66.015 41.171883
66.020 41.531239
66.025 40.615135
66.030 41.135513
66.035 41.000725
66.040 40.290291
66.045 39.63345
66.050 38.882473
66.055 38.489128
66.060 38.817635
66.065 38.043499
66.070 38.452328
66.075 38.640022
66.080 38.66457
66.085 39.183842
66.090 39.059109
66.095 38.991493
66.100 39.82999
66.105 39.75758
66.110 40.49379
66.115 41.581348
66.120 41.174099
66.125 41.093399
66.130 41.084114
66.135 40.812397
66.140 40.207069
66.145 39.820724
66.150 38.741779
66.155 39.152504
66.160 39.663158
66.165 38.971458
66.170 38.938244
66.175 38.766842
66.180 38.432945
66.185 38.837513
66.190 38.327862
66.195 37.635376
66.200 37.919693
66.205 37.376434
66.210 37.433968
66.215 37.472954
66.220 36.986332
66.225 36.242287
66.230 35.77882
66.235 35.639706
66.240 35.722702
66.245 36.026325
66.250 35.723164
66.255 35.767799
66.260 35.667507
66.265 36.404552
66.270 36.105003
66.275 35.07983
66.280 33.987995
66.285 34.036976
66.290 33.922813
66.295 34.208546
66.300 33.689907
66.305 33.38599
66.310 33.429913
66.315 34.209225
66.320 33.402859
66.325 33.65213
66.330 33.333698
66.335 34.002682
66.340 35.169014
66.345 34.863464
66.350 34.082996
66.355 34.068939
66.360 33.759823
66.365 33.207024
66.370 31.960327
66.375 30.981787
66.380 31.545771
66.385 31.590746
66.390 32.605339
66.395 32.871822
66.400 33.444782
66.405 33.783779
66.410 33.701206
66.415 32.971489
66.420 32.444748
66.425 31.476139
66.430 31.421429
66.435 31.022659
66.440 31.06867
66.445 30.267729
66.450 30.736641
66.455 31.263737
66.460 31.094397
66.465 30.951025
66.470 30.98703
66.475 31.126135
66.480 31.581749
66.485 31.06498
66.490 30.12097
66.495 29.525864
66.500 29.358326
66.505 29.121599
66.510 28.219091
66.515 27.636784
66.520 27.09156
66.525 26.770876
66.530 26.730303
66.535 26.374107
66.540 26.009884
66.545 25.854177
66.550 26.26688
66.555 26.624554
66.560 27.517633
66.565 27.67281
66.570 27.783228
66.575 27.74263
66.580 28.030815
66.585 27.549904
66.590 26.769257
66.595 26.018866
66.600 26.081882
66.605 25.968437
66.610 26.173395
66.615 26.23597
66.620 26.05373
66.625 26.255249
66.630 26.752516
66.635 25.946766
66.640 25.597225
66.645 25.48551
66.650 24.783411
66.655 24.874512
66.660 24.842474
66.665 25.177326
66.670 25.662758
66.675 25.333782
66.680 25.913498
66.685 26.221603
66.690 25.741606
66.695 25.83263
66.700 25.207418
66.705 25.262068
66.710 25.230495
66.715 24.677361
66.720 24.918549
66.725 25.169762
66.730 24.512178
66.735 24.910122
66.740 24.445328
66.745 25.046854
66.750 25.056467
66.755 24.333078
66.760 24.062363
66.765 23.44614
66.770 23.013258
66.775 23.13415
66.780 23.131756
66.785 23.50626
66.790 23.367151
66.795 23.870865
66.800 24.338957
66.805 24.252207
66.810 24.312897
66.815 23.684626
66.820 23.479591
66.825 24.399855
66.830 24.709818
66.835 24.483004
66.840 24.072863
66.845 23.345953
66.850 23.270895
66.855 23.123783
66.860 22.873468
66.865 22.915653
66.870 23.68079
66.875 24.442284
66.880 24.761127
66.885 24.495182
66.890 24.24955
66.895 23.897303
66.900 23.527458
66.905 22.834749
66.910 22.54715
66.915 22.859522
66.920 23.283205
66.925 23.469975
66.930 23.542446
66.935 23.701483
66.940 24.334553
66.945 23.803217
66.950 23.754583
66.955 23.758448
66.960 24.528469
66.965 24.952761
66.970 24.913303
66.975 24.976267
66.980 25.486153
66.985 24.940105
66.990 24.321625
66.995 23.671488
67.000 23.453648
67.005 23.413603
67.010 23.294237
67.015 23.562925
67.020 24.113977
67.025 24.235147
67.030 23.304884
67.035 22.391308
67.040 21.938431
67.045 21.287708
67.050 21.30007
67.055 21.226904
67.060 21.713757
67.065 22.037172
67.070 22.752066
67.075 23.082197
67.080 23.216339
67.085 22.662174
67.090 22.133707
67.095 21.90136
67.100 22.203379
67.105 22.023508
67.110 22.239485
67.115 22.614607
67.120 23.189646
67.125 23.479544
67.130 23.459978
67.135 23.357088
67.140 23.205889
67.145 22.871536
67.150 22.500479
67.155 22.249985
67.160 22.604322
67.165 23.157852
67.170 23.132132
67.175 22.557247
67.180 22.538246
67.185 22.447792
67.190 22.338524
67.195 21.827904
67.200 21.2616
67.205 21.225668
67.210 21.388586
67.215 21.849533
67.220 22.514088
67.225 22.306684
67.230 22.05238
67.235 21.851423
67.240 21.97794
67.245 22.480688
67.250 21.772408
67.255 21.163639
67.260 21.069262
67.265 21.484383
67.270 21.253355
67.275 21.384592
67.280 21.117083
67.285 21.346985
67.290 20.817682
67.295 20.859331
67.300 20.695303
67.305 20.964809
67.310 20.268053
67.315 20.462545
67.320 20.822727
67.325 21.216381
67.330 20.988964
67.335 20.953512
67.340 21.376968
67.345 21.904898
67.350 22.063187
67.355 22.636425
67.360 23.596865
67.365 24.306463
67.370 24.388956
67.375 24.544016
67.380 24.845636
67.385 24.668421
67.390 24.077257
67.395 23.885128
67.400 23.765512
67.405 23.623089
67.410 23.032904
67.415 22.59013
67.420 22.454281
67.425 21.883324
67.430 21.258528
67.435 20.53466
67.440 20.414896
67.445 20.940361
67.450 21.440559
67.455 21.429214
67.460 21.718454
67.465 22.018208
67.470 22.867762
67.475 22.787565
67.480 22.003738
67.485 21.254883
67.490 21.613712
67.495 21.902533
67.500 21.805477
67.505 21.663219
67.510 21.866619
67.515 22.017443
67.520 21.836678
67.525 21.907661
67.530 21.565905
67.535 21.366613
67.540 21.64142
67.545 21.243494
67.550 21.543674
67.555 21.252953
67.560 20.836309
67.565 20.8906
67.570 20.701241
67.575 20.600395
67.580 20.763012
67.585 21.453598
67.590 21.969294
67.595 22.205709
67.600 22.500036
67.605 22.81469
67.610 23.15243
67.615 22.847601
67.620 22.954453
67.625 23.103819
67.630 23.304508
67.635 23.397453
67.640 22.952959
67.645 22.650957
67.650 22.93935
67.655 22.742342
67.660 22.640182
67.665 22.357283
67.670 21.776266
67.675 21.995186
67.680 21.760681
67.685 20.846869
67.690 20.408813
67.695 19.900049
67.700 19.737892
67.705 19.93837
67.710 20.015417
67.715 20.342915
67.720 21.18
67.725 20.950373
67.730 20.964622
67.735 21.258066
67.740 21.296076
67.745 21.051086
67.750 20.378853
67.755 20.306868
67.760 21.097385
67.765 21.041189
67.770 21.157125
67.775 22.097994
67.780 22.436434
67.785 22.766945
67.790 22.494579
67.795 22.11894
67.800 22.274347
67.805 22.028234
67.810 21.137777
67.815 21.194675
67.820 21.485197
67.825 21.805931
67.830 21.222837
67.835 21.436659
67.840 21.411518
67.845 21.392767
67.850 21.181747
67.855 21.082874
67.860 21.58251
67.865 22.335562
67.870 22.488541
67.875 22.39319
67.880 22.632748
67.885 22.642172
67.890 22.141758
67.895 21.837839
67.900 22.207794
67.905 22.052309
67.910 21.532269
67.915 21.14349
67.920 21.42733
67.925 21.642263
67.930 21.539991
67.935 20.941399
67.940 20.704494
67.945 20.976376
67.950 20.996439
67.955 20.574497
67.960 20.651722
67.965 20.58345
67.970 20.668219
67.975 21.266638
67.980 21.280649
67.985 21.426262
67.990 21.43289
67.995 20.78941
68.000 20.65509
68.005 20.461029
68.010 20.750948
68.015 21.111332
68.020 21.206526
68.025 21.354834
68.030 21.478537
68.035 21.120495
68.040 20.846998
68.045 20.418093
68.050 19.704317
68.055 19.015783
68.060 19.144213
68.065 19.31513
68.070 20.017538
68.075 19.95013
68.080 19.646374
68.085 20.630941
68.090 21.067942
68.095 21.797844
68.100 22.037317
68.105 22.489094
68.110 23.050327
68.115 23.346443
68.120 22.955608
68.125 22.584709
68.130 21.60008
68.135 21.466349
68.140 20.522074
68.145 20.668297
68.150 20.578581
68.155 20.620541
68.160 20.881008
68.165 20.812277
68.170 20.700109
68.175 20.854387
68.180 20.669029
68.185 20.935392
68.190 21.269741
68.195 20.880297
68.200 21.211456
68.205 21.130501
68.210 21.522243
68.215 21.817656
68.220 21.454636
68.225 21.290253
68.230 21.217882
68.235 21.009378
68.240 21.750866
68.245 21.697935
68.250 21.515465
68.255 21.497873
68.260 21.951658
68.265 22.096769
68.270 21.842751
68.275 21.529793
68.280 21.398243
68.285 21.382862
68.290 21.345198
68.295 21.187956
68.300 21.155888
68.305 21.436962
68.310 21.141575
68.315 20.686411
68.320 19.964537
68.325 19.721684
68.330 19.621696
68.335 19.677773
68.340 19.332273
68.345 18.95993
68.350 19.671888
68.355 21.025517
68.360 20.769148
68.365 20.116022
68.370 20.168049
68.375 20.361765
68.380 20.80765
68.385 20.818766
68.390 20.436144
68.395 21.182907
68.400 21.342577
68.405 21.304735
68.410 21.364855
68.415 21.474512
68.420 21.188152
68.425 21.32267
68.430 21.192894
68.435 21.770332
68.440 21.830404
68.445 21.643986
68.450 21.696177
68.455 21.982471
68.460 22.476671
68.465 22.708031
68.470 22.70014
68.475 22.535515
68.480 22.484207
68.485 22.478827
68.490 21.761911
68.495 20.720829
68.500 20.336895
68.505 20.344435
68.510 20.447063
68.515 20.454733
68.520 20.541012
68.525 20.254347
68.530 20.713533
68.535 21.119804
68.540 21.288403
68.545 21.512188
68.550 21.017263
68.555 21.188944
68.560 21.6742
68.565 21.310854
68.570 21.043716
68.575 21.311102
68.580 21.711643
68.585 21.447239
68.590 20.837915
68.595 21.485994
68.600 21.999563
68.605 22.098833
68.610 21.494013
68.615 21.518608
68.620 21.901762
68.625 22.360788
68.630 22.102966
68.635 21.746998
68.640 21.614319
68.645 21.96681
68.650 21.746479
68.655 21.770073
68.660 21.510181
68.665 21.08239
68.670 21.20286
68.675 21.002659
68.680 20.405535
68.685 20.163607
68.690 20.371584
68.695 20.588497
68.700 20.901367
68.705 21.532425
68.710 22.059505
68.715 22.656271
68.720 23.447981
68.725 23.74802
68.730 23.802059
68.735 23.712709
68.740 23.730442
68.745 23.977335
68.750 23.962669
68.755 23.866177
68.760 22.896004
68.765 22.93347
68.770 22.86204
68.775 22.008781
68.780 21.757713
68.785 21.442085
68.790 21.483746
68.795 21.248299
68.800 21.284422
68.805 21.448566
68.810 21.658819
68.815 21.453733
68.820 21.635742
68.825 22.004128
68.830 22.460318
68.835 23.22802
68.840 23.59827
68.845 24.220282
68.850 24.68992
68.855 24.869455
68.860 25.207903
68.865 26.287167
68.870 25.792788
68.875 25.06282
68.880 24.542227
68.885 24.183794
68.890 24.110622
68.895 24.14654
68.900 23.849306
68.905 23.807013
68.910 23.777723
68.915 23.194895
68.920 23.046034
68.925 23.08951
68.930 22.540161
68.935 21.721937
68.940 22.24851
68.945 22.94241
68.950 23.215065
68.955 23.025944
68.960 23.629078
68.965 24.098143
68.970 24.468952
68.975 24.414122
68.980 24.414236
68.985 24.698143
68.990 24.705482
68.995 23.619177
69.000 23.456381
69.005 23.52206
69.010 23.657269
69.015 24.24892
69.020 24.30409
69.025 24.4986
69.030 24.778374
69.035 24.234325
69.040 23.647434
69.045 24.070786
69.050 24.421087
69.055 24.902925
69.060 25.00532
69.065 25.557888
69.070 26.200857
69.075 26.256285
69.080 25.866049
69.085 24.706312
69.090 24.445171
69.095 24.486414
69.100 24.70381
69.105 25.050596
69.110 24.836409
69.115 25.051449
69.120 25.608278
69.125 25.589457
69.130 25.572517
69.135 24.959621
69.140 26.021318
69.145 26.2689
69.150 25.99357
69.155 25.872725
69.160 25.523165
69.165 25.303726
69.170 25.368484
69.175 24.869936
69.180 24.975784
69.185 25.328503
69.190 25.450708
69.195 25.983179
69.200 26.198759
69.205 26.803606
69.210 26.783596
69.215 26.755648
69.220 26.616434
69.225 26.777843
69.230 27.179716
69.235 27.229668
69.240 26.810783
69.245 27.366226
69.250 27.893475
69.255 27.850185
69.260 27.934042
69.265 27.52718
69.270 27.38962
69.275 27.128311
69.280 26.200928
69.285 25.986488
69.290 26.496555
69.295 26.404812
69.300 26.902128
69.305 27.172482
69.310 27.626255
69.315 28.447363
69.320 28.850786
69.325 28.87826
69.330 28.998188
69.335 29.105574
69.340 29.862591
69.345 30.405069
69.350 30.637428
69.355 30.297409
69.360 30.190693
69.365 30.211065
69.370 29.951225
69.375 29.605307
69.380 29.124346
69.385 28.733604
69.390 28.643534
69.395 28.999779
69.400 29.088591
69.405 28.507423
69.410 28.476004
69.415 27.772184
69.420 27.99707
69.425 28.241945
69.430 28.201654
69.435 28.492889
69.440 29.083961
69.445 29.270113
69.450 29.54191
69.455 29.669811
69.460 30.26396
69.465 30.012156
69.470 30.005346
69.475 30.005957
69.480 29.878305
69.485 29.302515
69.490 29.69635
69.495 29.099899
69.500 29.236158
69.505 29.435017
69.510 29.649937
69.515 30.199903
69.520 30.437616
69.525 30.551928
69.530 30.768988
69.535 30.887197
69.540 30.982903
69.545 31.022655
69.550 30.946476
69.555 30.265129
69.560 29.941828
69.565 29.877129
69.570 29.908363
69.575 29.367472
69.580 29.152819
69.585 29.562183
69.590 30.328587
69.595 29.727224
69.600 29.927584
69.605 29.986698
69.610 30.225224
69.615 30.310457
69.620 30.633881
69.625 30.431761
69.630 31.749378
69.635 31.913326
69.640 31.523972
69.645 32.002663
69.650 31.821875
69.655 31.098261
69.660 31.160032
69.665 30.372623
69.670 30.125813
69.675 30.330471
69.680 30.768368
69.685 30.583378
69.690 31.438686
69.695 31.530657
69.700 31.925049
69.705 31.808353
69.710 31.618679
69.715 31.020832
69.720 31.082575
69.725 31.003267
69.730 30.389658
69.735 29.253326
69.740 29.552902
69.745 29.550282
69.750 29.361153
69.755 29.07089
69.760 29.123165
69.765 29.084261
69.770 29.441586
69.775 28.953409
69.780 28.616619
69.785 28.894169
69.790 28.320133
69.795 27.776754
69.800 27.82082
69.805 27.708242
69.810 27.682247
69.815 27.95875
69.820 28.123884
69.825 28.242111
69.830 28.123404
69.835 28.858398
69.840 28.602259
69.845 28.733715
69.850 28.18898
69.855 27.994551
69.860 27.932713
69.865 26.610382
69.870 26.160265
69.875 26.308813
69.880 25.873255
69.885 26.03825
69.890 25.721163
69.895 25.649691
69.900 25.865725
69.905 25.307713
69.910 24.434109
69.915 24.608465
69.920 24.725044
69.925 24.153521
69.930 23.454884
69.935 23.47747
69.940 23.269213
69.945 23.176104
69.950 22.762081
69.955 22.956306
69.960 23.61623
69.965 23.449594
69.970 22.523623
69.975 22.64538
69.980 22.988098
69.985 22.679916
69.990 22.029917
69.995 22.091471
70.000 23.223265
70.005 23.962549
70.010 23.898029
70.015 24.277697
70.020 24.620552
70.025 24.137959
70.030 23.640663
70.035 23.281216
70.040 23.086798
70.045 22.814766
70.050 22.035259
70.055 21.955675
70.060 22.227438
70.065 21.968393
70.070 21.730051
70.075 21.601868
70.080 21.84626
70.085 21.956425
70.090 22.208891
70.095 21.975227
70.100 22.040653
70.105 21.720791
70.110 21.740934
70.115 21.218447
70.120 21.172522
70.125 21.02474
70.130 20.917757
70.135 21.383795
70.140 21.274933
70.145 20.943689
70.150 21.014729
70.155 20.92297
70.160 20.931376
70.165 21.028753
70.170 20.627029
70.175 19.84956
70.180 19.748619
70.185 19.569084
70.190 19.430655
70.195 19.199148
70.200 19.863155
70.205 19.817455
70.210 20.300955
70.215 20.462999
70.220 20.645727
70.225 20.538965
70.230 20.333815
70.235 19.628901
70.240 20.257318
70.245 20.510691
70.250 20.346788
70.255 20.242596
70.260 20.594643
70.265 20.757172
70.270 20.756771
70.275 20.791828
70.280 21.043777
70.285 20.905825
70.290 20.590187
70.295 20.490145
70.300 20.425261
70.305 20.167671
70.310 19.484892
70.315 19.053053
70.320 19.170557
70.325 18.883385
70.330 18.44692
70.335 18.336182
70.340 19.012764
70.345 19.958138
70.350 20.445112
70.355 20.871321
70.360 21.510868
70.365 22.232416
70.370 22.216288
70.375 21.2756
70.380 20.672459
70.385 20.148617
70.390 20.222418
70.395 20.29871
70.400 20.227139
70.405 20.380341
70.410 21.200111
70.415 21.496023
70.420 22.085161
70.425 21.733212
70.430 20.982584
70.435 20.755465
70.440 20.853016
70.445 20.610855
70.450 20.186335
70.455 19.811974
70.460 20.2306
70.465 20.826317
70.470 20.828337
70.475 20.412048
70.480 19.953079
70.485 19.705624
70.490 19.314884
70.495 18.933001
70.500 18.67425
70.505 18.92557
70.510 19.703754
70.515 19.965227
70.520 20.374229
70.525 20.178513
70.530 19.834719
70.535 19.980288
70.540 19.380777
70.545 18.726376
70.550 19.112589
70.555 19.468828
70.560 19.504372
70.565 19.183437
70.570 19.132776
70.575 19.530373
70.580 20.604128
70.585 21.181278
70.590 20.907522
70.595 21.485579
70.600 21.49675
70.605 21.698929
70.610 21.751547
70.615 20.61953
70.620 19.961559
70.625 20.327217
70.630 20.407314
70.635 20.985394
70.640 20.651978
70.645 20.434639
70.650 20.595316
70.655 20.387749
70.660 20.09211
70.665 19.914164
70.670 19.773624
70.675 19.518673
70.680 19.661978
70.685 20.079145
70.690 20.321547
70.695 20.940954
70.700 20.921242
70.705 20.443684
70.710 19.744261
70.715 19.814749
70.720 19.602289
70.725 19.78108
70.730 19.916025
70.735 19.905607
70.740 20.367662
70.745 20.183144
70.750 19.527908
70.755 19.622595
70.760 19.39888
70.765 18.73123
70.770 18.952173
70.775 19.543215
70.780 20.137362
70.785 20.138865
70.790 20.149408
70.795 20.279154
70.800 20.608633
70.805 20.181604
70.810 19.954422
70.815 20.510027
70.820 20.801836
70.825 20.222139
70.830 20.145176
70.835 19.828344
70.840 20.382492
70.845 19.965015
70.850 19.307211
70.855 18.346029
70.860 18.549397
70.865 18.507887
70.870 18.695488
70.875 18.670101
70.880 19.371733
70.885 19.85465
70.890 20.360329
70.895 20.311441
70.900 20.337128
70.905 19.903019
70.910 19.631893
70.915 19.439554
70.920 19.026989
70.925 18.949696
70.930 18.774914
70.935 18.952238
70.940 19.256527
70.945 19.157188
70.950 19.109295
70.955 19.540754
70.960 19.722862
70.965 19.9027
70.970 19.800652
70.975 19.451998
70.980 19.60216
70.985 19.893148
70.990 19.76325
70.995 20.048223
71.000 19.734774
71.005 19.713198
71.010 20.420609
71.015 20.205191
71.020 19.889933
71.025 19.927317
71.030 19.669706
71.035 20.155436
71.040 20.540766
71.045 20.348114
71.050 20.026665
71.055 19.413918
71.060 18.928032
71.065 18.636856
71.070 18.090492
71.075 17.192009
71.080 17.013557
71.085 17.191875
71.090 17.691782
71.095 17.669622
71.100 18.007082
71.105 18.565811
71.110 19.575062
71.115 20.027826
71.120 20.244617
71.125 20.21699
71.130 20.017447
71.135 19.801414
71.140 19.623234
71.145 19.132004
71.150 18.767715
71.155 19.236271
71.160 20.124414
71.165 20.409969
71.170 20.249664
71.175 19.514851
71.180 19.350698
71.185 19.634508
71.190 19.222912
71.195 18.970627
71.200 19.104517
71.205 19.130499
71.210 19.661596
71.215 19.813675
71.220 19.19636
71.225 19.349478
71.230 19.744471
71.235 19.975111
71.240 20.210335
71.245 19.817907
71.250 19.906597
71.255 20.223486
71.260 19.694925
71.265 19.408731
71.270 19.072262
71.275 19.051983
71.280 18.993729
71.285 19.092993
71.290 18.811165
71.295 19.019522
71.300 19.161631
71.305 19.483692
71.310 19.706366
71.315 20.266525
71.320 20.374233
71.325 20.524904
71.330 19.627869
71.335 18.966007
71.340 18.679274
71.345 18.284124
71.350 18.201498
71.355 17.949587
71.360 17.940891
71.365 18.030865
71.370 18.038792
71.375 18.446892
71.380 18.193293
71.385 17.634291
71.390 17.504875
71.395 17.718159
71.400 18.277636
71.405 18.446955
71.410 18.479042
71.415 18.591579
71.420 19.666992
71.425 20.07888
71.430 20.197887
71.435 20.742027
71.440 20.437023
71.445 20.707794
71.450 20.797174
71.455 20.624321
71.460 20.895248
71.465 20.783197
71.470 20.897514
71.475 20.616098
71.480 20.172924
71.485 20.222897
71.490 19.740976
71.495 19.886044
71.500 20.052397
71.505 19.912737
71.510 20.181068
71.515 19.921873
71.520 19.801773
71.525 19.556732
71.530 18.532228
71.535 18.623255
71.540 18.768095
71.545 18.934624
71.550 18.932009
71.555 18.384384
71.560 18.522535
71.565 18.854759
71.570 18.449099
71.575 18.052639
71.580 17.940418
71.585 17.869328
71.590 18.047523
71.595 18.176685
71.600 17.95537
71.605 18.076731
71.610 18.305149
71.615 18.842228
71.620 19.291876
71.625 19.16593
71.630 18.852552
71.635 18.526007
71.640 18.578938
71.645 18.404467
71.650 18.136936
71.655 17.637794
71.660 17.530214
71.665 17.949774
71.670 18.890104
71.675 19.243595
71.680 19.477894
71.685 19.761885
71.690 20.863873
71.695 21.366396
71.700 21.257668
71.705 20.305439
71.710 20.265659
71.715 20.29598
71.720 20.244558
71.725 19.284803
71.730 18.89575
71.735 19.415581
71.740 19.555201
71.745 19.25914
71.750 18.822329
71.755 18.492443
71.760 18.863781
71.765 18.562277
71.770 18.254913
71.775 18.208052
71.780 18.527769
71.785 18.496056
71.790 18.495831
71.795 18.494316
71.800 19.150896
71.805 19.031927
71.810 19.188372
71.815 19.453295
71.820 19.602112
71.825 19.681555
71.830 19.439863
71.835 18.975008
71.840 19.055759
71.845 18.819328
71.850 18.831285
71.855 18.713207
71.860 19.149681
71.865 19.543392
71.870 19.432322
71.875 19.744385
71.880 19.76816
71.885 20.054688
71.890 19.884949
71.895 19.671139
71.900 20.11759
71.905 20.609545
71.910 20.47298
71.915 19.833832
71.920 20.019459
71.925 20.577566
71.930 20.471979
71.935 20.373978
71.940 19.540066
71.945 19.947388
71.950 20.628157
71.955 20.222889
71.960 20.114864
71.965 19.723209
71.970 19.338291
71.975 19.813976
71.980 19.91021
71.985 20.336546
71.990 20.067524
71.995 19.888157
72.000 19.15287
72.005 18.673546
72.010 17.302513
72.015 16.772955
72.020 16.748442
72.025 17.060923
72.030 17.498564
72.035 18.009865
72.040 18.783007
72.045 18.858332
72.050 18.191933
72.055 17.631409
72.060 17.263348
72.065 17.244766
72.070 17.883213
72.075 18.260357
72.080 18.887733
72.085 19.295427
72.090 19.122213
72.095 19.185532
72.100 18.591976
72.105 17.735741
72.110 17.471458
72.115 17.162767
72.120 17.620182
72.125 17.852619
72.130 18.477558
72.135 19.422684
72.140 19.902258
72.145 19.922449
72.150 19.600864
72.155 18.755041
72.160 19.042595
72.165 18.624357
72.170 17.90255
72.175 17.636322
72.180 17.532536
72.185 17.581301
72.190 17.364672
72.195 17.320196
72.200 17.565529
72.205 18.086212
72.210 17.747658
72.215 17.275005
72.220 17.405317
72.225 17.926298
72.230 17.914955
72.235 17.719797
72.240 17.485634
72.245 18.123869
72.250 18.607937
72.255 19.245094
72.260 19.417566
72.265 19.722658
72.270 19.745581
72.275 20.146717
72.280 20.364439
72.285 20.373718
72.290 20.034607
72.295 19.202435
72.300 18.584087
72.305 18.735168
72.310 18.234306
72.315 18.377224
72.320 18.064638
72.325 18.304241
72.330 18.75037
72.335 18.99029
72.340 18.820597
72.345 18.354342
72.350 19.1297
72.355 19.710533
72.360 19.47485
72.365 19.163054
72.370 18.815245
72.375 19.111414
72.380 19.375708
72.385 18.385893
72.390 17.25493
72.395 17.216009
72.400 16.997149
72.405 17.008924
72.410 16.990273
72.415 17.287893
72.420 18.172165
72.425 19.281652
72.430 19.758621
72.435 20.030773
72.440 19.976065
72.445 19.816845
72.450 19.372513
72.455 18.863829
72.460 18.190735
72.465 18.474054
72.470 18.724884
72.475 19.01569
72.480 19.236589
72.485 19.048643
72.490 19.077736
72.495 19.169195
72.500 18.335363
72.505 18.032904
72.510 17.656355
72.515 17.651403
72.520 17.803116
72.525 17.539915
72.530 17.746675
72.535 18.372625
72.540 18.685049
72.545 18.634092
72.550 17.876495
72.555 17.548304
72.560 17.592337
72.565 17.001785
72.570 16.743454
72.575 16.839653
72.580 17.235085
72.585 17.905533
72.590 18.462185
72.595 18.766853
72.600 19.469547
72.605 19.091772
72.610 18.844837
72.615 18.316578
72.620 18.557356
72.625 18.325163
72.630 17.446577
72.635 17.323769
72.640 17.089607
72.645 17.012087
72.650 17.219826
72.655 16.969919
72.660 16.677485
72.665 17.421904
72.670 17.707003
72.675 17.98646
72.680 18.161074
72.685 18.126934
72.690 18.578226
72.695 19.188473
72.700 18.585531
72.705 18.652107
72.710 18.814907
72.715 18.758175
72.720 18.293566
72.725 17.86743
72.730 17.747252
72.735 17.512098
72.740 17.175449
72.745 17.329096
72.750 17.299101
72.755 17.658573
72.760 17.949995
72.765 18.757763
72.770 19.265429
72.775 19.143978
72.780 18.714151
72.785 18.939104
72.790 18.79353
72.795 18.789509
72.800 18.402086
72.805 18.446568
72.810 18.948299
72.815 19.384293
72.820 19.174221
72.825 18.962006
72.830 18.551332
72.835 18.044098
72.840 17.617836
72.845 17.653496
72.850 17.568182
72.855 17.625759
72.860 17.375734
72.865 17.445173
72.870 18.02043
72.875 17.936775
72.880 17.740423
72.885 17.170757
72.890 17.151833
72.895 16.971684
72.900 16.80842
72.905 16.890732
72.910 16.480913
72.915 16.402878
72.920 17.103718
72.925 16.893145
72.930 17.33222
72.935 17.733221
72.940 18.25017
72.945 18.810579
72.950 18.728966
72.955 18.600893
72.960 18.916876
72.965 18.891094
72.970 18.347239
72.975 18.013493
72.980 18.014057
72.985 17.986603
72.990 17.64579
72.995 17.568153
73.000 17.338467
