!@!!GADDS PLOTSO FILE: Chi integration type
!@!!Title/SampleName: map-162
!@!!Comment: ?
!@!!User: Bruker Instrument Administrator
!@!!Site: University of Illinois Chicago
!@!!Frame: map-162_01_000.gfrm
!@!!Wavelengths    1.54184   1.54056   1.54439
!@!!Frame angles: 2Theta: 63.000 Omega: 50.000 Phi: 0.000 Chi: 90.000
!@!!Integration range: 2Theta: 53.000 to 73.000  Gamma: -105.000 to -75.000
!@!!Integration method: bin normalized
!@!N
!@!SS
!@!M
!@!L 0.0 0.0 0.0 0.0
!@!XDegrees
!@!YCounts
53.000 4.135373
53.005 3.861619
53.010 4.282563
53.015 4.716149
53.020 4.535819
53.025 4.516131
53.030 4.836973
53.035 5.456999
53.040 5.573895
53.045 5.201271
53.050 4.903371
53.055 5.011777
53.060 4.903431
53.065 4.542838
53.070 3.961407
53.075 3.48202
53.080 3.141465
53.085 3.482756
53.090 3.736294
53.095 4.240049
53.100 4.519785
53.105 4.974831
53.110 5.453804
53.115 5.671644
53.120 5.39711
53.125 5.015765
53.130 4.750161
53.135 4.577004
53.140 4.188164
53.145 4.160968
53.150 4.167828
53.155 4.206508
53.160 4.137582
53.165 4.113005
53.170 4.34022
53.175 4.61665
53.180 4.988859
53.185 5.232997
53.190 5.407583
53.195 5.452657
53.200 5.506877
53.205 5.420606
53.210 5.310585
53.215 4.947568
53.220 4.866333
53.225 4.758955
53.230 5.308547
53.235 5.380423
53.240 5.272918
53.245 5.295657
53.250 5.356603
53.255 5.295662
53.260 5.373079
53.265 5.055847
53.270 4.958035
53.275 4.840667
53.280 4.71768
53.285 4.749919
53.290 4.850281
53.295 4.807273
53.300 5.041296
53.305 5.478403
53.310 5.801504
53.315 5.950068
53.320 5.661082
53.325 6.012544
53.330 6.071311
53.335 5.96922
53.340 5.744524
53.345 5.454547
53.350 5.595186
53.355 5.715533
53.360 5.320749
53.365 4.996826
53.370 4.622542
53.375 4.810089
53.380 4.997528
53.385 4.900174
53.390 5.239581
53.395 5.833622
53.400 6.163922
53.405 6.07707
53.410 5.970532
53.415 5.73061
53.420 5.539382
53.425 5.07631
53.430 4.427318
53.435 4.340311
53.440 4.209273
53.445 4.44658
53.450 4.605509
53.455 4.58944
53.460 4.706783
53.465 4.88366
53.470 5.255454
53.475 5.362335
53.480 4.950389
53.485 4.946948
53.490 5.197229
53.495 5.361829
53.500 5.586724
53.505 5.708673
53.510 6.089935
53.515 6.241012
53.520 6.523197
53.525 6.797695
53.530 6.665684
53.535 6.542533
53.540 6.330963
53.545 6.222694
53.550 6.166536
53.555 6.079187
53.560 5.743011
53.565 5.874333
53.570 5.555285
53.575 5.790406
53.580 5.858391
53.585 5.683972
53.590 5.547539
53.595 5.749595
53.600 5.683254
53.605 5.902893
53.610 5.649634
53.615 6.09527
53.620 6.36775
53.625 6.562564
53.630 6.378432
53.635 6.522127
53.640 6.409719
53.645 6.406231
53.650 6.116704
53.655 6.043952
53.660 6.07972
53.665 5.888853
53.670 5.840673
53.675 5.772825
53.680 5.742748
53.685 5.654878
53.690 5.30874
53.695 4.946989
53.700 4.893149
53.705 5.048678
53.710 4.964414
53.715 4.767099
53.720 4.938387
53.725 5.241565
53.730 5.174109
53.735 5.2518
53.740 5.183834
53.745 5.576171
53.750 5.705908
53.755 5.659473
53.760 5.654115
53.765 6.333174
53.770 6.291575
53.775 6.129582
53.780 6.015798
53.785 6.104964
53.790 6.361633
53.795 6.286893
53.800 6.095994
53.805 6.120021
53.810 6.032287
53.815 5.526518
53.820 5.447927
53.825 5.859522
53.830 5.739578
53.835 5.557746
53.840 5.603278
53.845 5.976371
53.850 6.289699
53.855 5.976858
53.860 5.539005
53.865 5.760463
53.870 6.003684
53.875 5.923666
53.880 5.947515
53.885 5.89187
53.890 6.045678
53.895 6.155978
53.900 5.99656
53.905 6.147953
53.910 6.347927
53.915 6.174313
53.920 6.051026
53.925 5.687627
53.930 5.483705
53.935 5.779238
53.940 5.51205
53.945 5.209539
53.950 5.596311
53.955 6.089472
53.960 6.509772
53.965 6.324797
53.970 6.149325
53.975 6.358096
53.980 6.652345
53.985 6.020689
53.990 5.724594
53.995 5.962976
54.000 5.853892
54.005 5.775652
54.010 5.95693
54.015 5.771764
54.020 5.796167
54.025 5.938378
54.030 6.077444
54.035 6.304358
54.040 5.994103
54.045 5.608745
54.050 6.014873
54.055 6.252913
54.060 6.112038
54.065 6.149078
54.070 6.143148
54.075 6.304822
54.080 6.465036
54.085 6.099245
54.090 5.898095
54.095 5.848091
54.100 5.744856
54.105 5.818493
54.110 5.526798
54.115 5.436286
54.120 5.455935
54.125 5.698843
54.130 5.634461
54.135 5.664022
54.140 5.8514
54.145 6.244865
54.150 6.440008
54.155 6.287908
54.160 6.025321
54.165 5.695019
54.170 5.460271
54.175 5.249615
54.180 5.349599
54.185 5.723775
54.190 5.596605
54.195 5.773972
54.200 6.205853
54.205 6.770299
54.210 6.855809
54.215 6.618404
54.220 6.082912
54.225 6.18322
54.230 5.90397
54.235 5.66884
54.240 5.162791
54.245 4.696955
54.250 4.557227
54.255 4.607607
54.260 4.634786
54.265 4.581615
54.270 4.762935
54.275 4.806592
54.280 4.96508
54.285 5.442681
54.290 5.739866
54.295 6.122935
54.300 6.238228
54.305 6.401884
54.310 6.605721
54.315 6.539599
54.320 6.645807
54.325 6.611409
54.330 6.575833
54.335 6.534942
54.340 6.267665
54.345 6.3725
54.350 6.300688
54.355 6.030411
54.360 5.82427
54.365 5.597165
54.370 5.753681
54.375 5.605685
54.380 5.82202
54.385 5.886907
54.390 5.855761
54.395 5.96795
54.400 5.817217
54.405 5.433504
54.410 5.580539
54.415 5.2424
54.420 5.649344
54.425 5.714188
54.430 6.054824
54.435 6.626946
54.440 6.801331
54.445 6.885521
54.450 6.927784
54.455 6.788226
54.460 7.088295
54.465 6.634779
54.470 6.236913
54.475 5.911537
54.480 5.781822
54.485 5.673969
54.490 5.491574
54.495 5.100222
54.500 5.311813
54.505 5.318707
54.510 5.652104
54.515 6.123638
54.520 6.100862
54.525 6.101193
54.530 5.935694
54.535 5.72228
54.540 5.424188
54.545 5.248545
54.550 4.885068
54.555 4.729183
54.560 4.689344
54.565 4.808167
54.570 5.157703
54.575 5.671691
54.580 5.946229
54.585 6.438812
54.590 6.830194
54.595 6.808308
54.600 6.669247
54.605 6.736604
54.610 6.606959
54.615 6.076733
54.620 5.689563
54.625 5.779589
54.630 5.861276
54.635 5.813055
54.640 5.70879
54.645 5.711993
54.650 6.304409
54.655 6.120765
54.660 5.917808
54.665 5.775287
54.670 5.690066
54.675 5.682358
54.680 5.614793
54.685 5.464365
54.690 5.440082
54.695 5.667833
54.700 5.952166
54.705 5.785737
54.710 5.767538
54.715 5.585854
54.720 5.41252
54.725 5.556568
54.730 5.33867
54.735 5.406387
54.740 5.656484
54.745 5.47047
54.750 5.290165
54.755 5.547167
54.760 5.385518
54.765 5.640214
54.770 5.480721
54.775 5.517683
54.780 5.81163
54.785 6.053678
54.790 5.928775
54.795 6.166687
54.800 6.282075
54.805 6.484606
54.810 6.512058
54.815 6.736979
54.820 6.631029
54.825 6.442507
54.830 6.176053
54.835 6.145999
54.840 6.020095
54.845 6.186733
54.850 6.100318
54.855 6.268792
54.860 6.172132
54.865 6.511416
54.870 6.544318
54.875 6.653833
54.880 6.362799
54.885 6.033463
54.890 5.941237
54.895 5.830889
54.900 5.348839
54.905 5.151279
54.910 5.009554
54.915 5.883864
54.920 6.355616
54.925 6.580212
54.930 6.716689
54.935 6.601107
54.940 6.682232
54.945 6.320477
54.950 5.802999
54.955 5.957524
54.960 6.179701
54.965 6.481757
54.970 6.724753
54.975 6.596622
54.980 6.499578
54.985 6.419919
54.990 6.152774
54.995 5.941562
55.000 5.999754
55.005 6.170442
55.010 6.517293
55.015 6.663261
55.020 6.571774
55.025 6.693251
55.030 6.752389
55.035 6.525314
55.040 6.3234
55.045 6.244776
55.050 6.114527
55.055 6.570547
55.060 6.665674
55.065 6.869997
55.070 7.251187
55.075 7.313224
55.080 7.397038
55.085 7.185292
55.090 6.680748
55.095 6.728767
55.100 6.209501
55.105 5.956287
55.110 5.982178
55.115 5.95338
55.120 6.048428
55.125 5.899135
55.130 5.672756
55.135 5.92065
55.140 5.72189
55.145 5.61492
55.150 5.639261
55.155 5.59018
55.160 5.644733
55.165 5.665271
55.170 5.856185
55.175 5.858563
55.180 5.872875
55.185 5.883416
55.190 6.212024
55.195 6.568119
55.200 6.852052
55.205 7.020962
55.210 7.323524
55.215 7.513515
55.220 7.491634
55.225 7.287278
55.230 6.978541
55.235 6.356668
55.240 6.0708
55.245 6.029316
55.250 6.164261
55.255 5.944461
55.260 5.797246
55.265 5.894251
55.270 6.440926
55.275 6.789256
55.280 6.789099
55.285 6.538324
55.290 6.782885
55.295 6.8999
55.300 6.865181
55.305 6.283613
55.310 6.091883
55.315 6.010438
55.320 5.965849
55.325 5.594511
55.330 5.329224
55.335 5.515598
55.340 5.932553
55.345 5.775581
55.350 5.718761
55.355 5.827239
55.360 6.061443
55.365 5.878403
55.370 5.462244
55.375 5.17135
55.380 5.088305
55.385 5.268888
55.390 5.235218
55.395 5.035506
55.400 5.126049
55.405 5.590828
55.410 5.957505
55.415 6.386657
55.420 6.22421
55.425 6.558396
55.430 6.895646
55.435 7.202412
55.440 6.924355
55.445 6.854219
55.450 6.554497
55.455 6.603634
55.460 6.431111
55.465 6.618236
55.470 6.617852
55.475 6.601532
55.480 6.43539
55.485 6.530097
55.490 6.825801
55.495 6.743265
55.500 6.221466
55.505 6.27751
55.510 6.195788
55.515 5.968347
55.520 5.880462
55.525 5.810836
55.530 5.833075
55.535 6.068051
55.540 5.65183
55.545 5.612054
55.550 6.04725
55.555 6.009942
55.560 5.853057
55.565 6.051225
55.570 5.959722
55.575 6.179695
55.580 6.306548
55.585 5.968549
55.590 5.823672
55.595 5.777153
55.600 6.161947
55.605 6.159771
55.610 6.241693
55.615 6.354431
55.620 6.693974
55.625 7.083154
55.630 7.436216
55.635 7.336633
55.640 7.472689
55.645 7.445249
55.650 7.35568
55.655 7.441059
55.660 6.972006
55.665 6.344195
55.670 6.129725
55.675 6.11485
55.680 6.261965
55.685 6.445446
55.690 6.444791
55.695 6.720296
55.700 6.753657
55.705 6.880428
55.710 6.86697
55.715 6.615972
55.720 6.456
55.725 6.075227
55.730 6.12638
55.735 6.425986
55.740 6.023553
55.745 5.8143
55.750 5.971169
55.755 5.691721
55.760 6.264928
55.765 6.20571
55.770 6.23509
55.775 6.339677
55.780 6.394726
55.785 6.399733
55.790 6.384431
55.795 6.292676
55.800 6.167404
55.805 6.151134
55.810 6.424597
55.815 6.759756
55.820 6.841002
55.825 6.859171
55.830 6.932255
55.835 6.845396
55.840 6.689365
55.845 6.489146
55.850 6.47204
55.855 6.659393
55.860 6.747254
55.865 6.321798
55.870 6.281625
55.875 6.364742
55.880 6.409674
55.885 6.530106
55.890 6.533921
55.895 6.37544
55.900 6.717422
55.905 7.12929
55.910 7.149227
55.915 7.105896
55.920 6.634223
55.925 6.644694
55.930 6.774661
55.935 6.764924
55.940 6.371806
55.945 6.333827
55.950 5.796199
55.955 5.754037
55.960 5.541286
55.965 5.385426
55.970 5.357729
55.975 5.558106
55.980 5.770689
55.985 6.209733
55.990 6.467635
55.995 6.482504
56.000 6.822846
56.005 7.016842
56.010 6.694168
56.015 6.459381
56.020 6.260834
56.025 5.906176
56.030 5.823847
56.035 5.704563
56.040 5.522607
56.045 5.536028
56.050 5.849755
56.055 5.871527
56.060 6.321542
56.065 6.477252
56.070 6.535255
56.075 6.894797
56.080 7.317676
56.085 7.157133
56.090 7.159374
56.095 6.770281
56.100 6.582717
56.105 6.752007
56.110 6.376203
56.115 6.403137
56.120 6.450477
56.125 6.531532
56.130 6.658012
56.135 6.63285
56.140 6.569507
56.145 6.788722
56.150 6.699568
56.155 6.851042
56.160 6.724136
56.165 6.866806
56.170 6.643309
56.175 6.551404
56.180 6.383976
56.185 6.238643
56.190 6.151026
56.195 6.269613
56.200 5.996942
56.205 6.285335
56.210 6.196492
56.215 6.001293
56.220 5.86975
56.225 5.827356
56.230 6.26792
56.235 6.317751
56.240 6.205357
56.245 6.410263
56.250 6.328828
56.255 6.658854
56.260 6.614401
56.265 6.694045
56.270 7.27222
56.275 7.202855
56.280 7.202322
56.285 7.680837
56.290 7.89852
56.295 7.848638
56.300 7.179426
56.305 6.858771
56.310 6.987763
56.315 7.086815
56.320 6.841983
56.325 6.836549
56.330 6.440475
56.335 6.940684
56.340 7.050023
56.345 7.23939
56.350 7.207524
56.355 7.09344
56.360 7.514153
56.365 7.669392
56.370 7.040534
56.375 6.89069
56.380 6.746114
56.385 6.708746
56.390 6.441698
56.395 5.898864
56.400 6.48333
56.405 7.040846
56.410 7.021669
56.415 6.793359
56.420 6.853206
56.425 6.82866
56.430 7.28736
56.435 7.154211
56.440 6.987764
56.445 7.28426
56.450 7.952759
56.455 8.088022
56.460 8.40739
56.465 8.01333
56.470 7.629932
56.475 7.822313
56.480 7.625498
56.485 7.42705
56.490 7.417445
56.495 7.120311
56.500 7.321362
56.505 7.691266
56.510 7.271395
56.515 7.390285
56.520 7.369081
56.525 7.250049
56.530 7.229809
56.535 7.111763
56.540 6.735523
56.545 7.022336
56.550 6.939435
56.555 7.052654
56.560 7.343199
56.565 7.643367
56.570 7.808474
56.575 8.212145
56.580 7.920237
56.585 7.74768
56.590 7.697214
56.595 7.46882
56.600 7.144621
56.605 6.930873
56.610 6.605232
56.615 6.560044
56.620 6.592081
56.625 6.782932
56.630 6.894657
56.635 7.011328
56.640 7.373005
56.645 7.797647
56.650 7.782083
56.655 7.770665
56.660 7.841969
56.665 8.477613
56.670 8.454584
56.675 8.253701
56.680 8.217573
56.685 8.741754
56.690 8.970888
56.695 8.784824
56.700 8.619864
56.705 8.685954
56.710 8.606556
56.715 8.326025
56.720 8.032412
56.725 7.569015
56.730 7.143638
56.735 6.909994
56.740 6.580959
56.745 6.610297
56.750 6.558838
56.755 6.536609
56.760 6.772067
56.765 6.770358
56.770 6.637773
56.775 6.618897
56.780 6.636904
56.785 6.725809
56.790 6.745293
56.795 6.885548
56.800 6.880752
56.805 6.946582
56.810 6.88043
56.815 6.641077
56.820 6.8533
56.825 6.935332
56.830 6.598323
56.835 6.375556
56.840 6.379465
56.845 6.829463
56.850 7.270526
56.855 7.1006
56.860 6.861568
56.865 6.979582
56.870 6.936162
56.875 6.9805
56.880 6.698165
56.885 6.627475
56.890 6.803993
56.895 7.074776
56.900 7.244346
56.905 7.447323
56.910 7.720895
56.915 7.672533
56.920 7.331238
56.925 6.836416
56.930 6.589059
56.935 6.613472
56.940 6.650295
56.945 6.416497
56.950 6.268607
56.955 6.294781
56.960 6.461578
56.965 6.598643
56.970 6.700757
56.975 6.358943
56.980 6.587872
56.985 7.064607
56.990 7.083643
56.995 7.537882
57.000 7.297895
57.005 7.434078
57.010 8.124951
57.015 7.506215
57.020 7.205215
57.025 7.425506
57.030 7.185641
57.035 7.261606
57.040 6.975871
57.045 6.60171
57.050 6.669702
57.055 6.461016
57.060 6.497557
57.065 6.596489
57.070 6.690011
57.075 6.587784
57.080 6.791533
57.085 7.003251
57.090 7.017505
57.095 6.508772
57.100 6.082754
57.105 6.009253
57.110 6.133713
57.115 5.814906
57.120 5.894865
57.125 5.956471
57.130 6.168376
57.135 6.557923
57.140 6.601143
57.145 6.70438
57.150 6.760183
57.155 6.563759
57.160 6.50858
57.165 6.434545
57.170 6.712067
57.175 6.950894
57.180 6.654033
57.185 6.612118
57.190 7.046022
57.195 7.217658
57.200 7.669704
57.205 7.264774
57.210 7.250937
57.215 7.426331
57.220 7.801346
57.225 7.534193
57.230 7.205716
57.235 6.803195
57.240 6.866719
57.245 6.939411
57.250 6.702121
57.255 6.533323
57.260 6.572151
57.265 6.660017
57.270 6.639043
57.275 6.812655
57.280 6.693191
57.285 6.692431
57.290 7.103274
57.295 7.200866
57.300 7.283753
57.305 7.532068
57.310 7.514145
57.315 7.864757
57.320 7.860592
57.325 7.32005
57.330 7.999057
57.335 8.250534
57.340 8.040873
57.345 7.803161
57.350 7.149578
57.355 7.519766
57.360 7.355725
57.365 6.789408
57.370 6.732532
57.375 6.33542
57.380 6.359715
57.385 7.018129
57.390 6.833477
57.395 7.042835
57.400 6.822763
57.405 6.727216
57.410 6.996008
57.415 6.861593
57.420 6.445424
57.425 6.299306
57.430 6.383887
57.435 6.454492
57.440 6.566039
57.445 6.604241
57.450 6.529571
57.455 6.545622
57.460 6.759272
57.465 6.706931
57.470 6.802964
57.475 6.474913
57.480 6.271986
57.485 6.406554
57.490 6.825737
57.495 6.736259
57.500 6.625856
57.505 6.539365
57.510 6.809891
57.515 7.001376
57.520 6.757021
57.525 6.523638
57.530 6.536615
57.535 6.627701
57.540 6.788674
57.545 6.634681
57.550 6.495848
57.555 6.503065
57.560 6.33731
57.565 6.458558
57.570 6.613317
57.575 6.745318
57.580 6.872393
57.585 7.025485
57.590 6.950607
57.595 7.030779
57.600 6.676624
57.605 6.869624
57.610 6.628673
57.615 6.856364
57.620 6.711612
57.625 6.617836
57.630 6.559291
57.635 6.919168
57.640 6.852292
57.645 6.985591
57.650 6.803208
57.655 7.180459
57.660 7.704144
57.665 7.789168
57.670 7.631511
57.675 6.935153
57.680 6.882607
57.685 7.027634
57.690 6.919705
57.695 7.384194
57.700 7.238631
57.705 7.649824
57.710 8.059062
57.715 7.882916
57.720 7.820024
57.725 7.741939
57.730 7.059086
57.735 6.692788
57.740 6.058877
57.745 6.048921
57.750 6.229409
57.755 6.069479
57.760 5.667008
57.765 5.9377
57.770 6.242642
57.775 6.612985
57.780 6.356498
57.785 6.199797
57.790 6.691397
57.795 6.864127
57.800 6.459971
57.805 6.35189
57.810 6.398902
57.815 7.082313
57.820 7.177161
57.825 7.087825
57.830 7.077048
57.835 7.393196
57.840 7.360061
57.845 7.108013
57.850 6.82253
57.855 6.920969
57.860 6.907496
57.865 7.298012
57.870 7.572978
57.875 7.945734
57.880 7.736078
57.885 7.602431
57.890 7.448277
57.895 7.193552
57.900 6.764078
57.905 6.511997
57.910 6.198676
57.915 6.551347
57.920 6.51238
57.925 6.312415
57.930 6.432385
57.935 6.528497
57.940 6.457148
57.945 6.94037
57.950 6.96304
57.955 7.065906
57.960 7.440096
57.965 7.763483
57.970 8.168578
57.975 7.968948
57.980 7.48075
57.985 7.285497
57.990 7.030406
57.995 6.756953
58.000 6.09498
58.005 5.573073
58.010 5.797698
58.015 6.407682
58.020 6.722036
58.025 7.177057
58.030 7.547413
58.035 7.689308
58.040 7.926444
58.045 7.88584
58.050 7.381811
58.055 7.003247
58.060 6.720324
58.065 6.421825
58.070 6.36671
58.075 6.655683
58.080 6.824584
58.085 7.183653
58.090 7.338398
58.095 7.350747
58.100 7.559386
58.105 7.505211
58.110 7.129074
58.115 6.739587
58.120 6.631886
58.125 6.357629
58.130 6.271591
58.135 6.232349
58.140 6.654969
58.145 6.878016
58.150 7.035435
58.155 6.832587
58.160 6.973622
58.165 7.129745
58.170 7.448158
58.175 7.460606
58.180 7.262643
58.185 7.489268
58.190 7.638246
58.195 7.791871
58.200 7.691966
58.205 7.350525
58.210 7.378936
58.215 7.853427
58.220 7.928687
58.225 7.833541
58.230 7.588795
58.235 7.406525
58.240 7.496878
58.245 7.141447
58.250 6.741642
58.255 7.096543
58.260 7.269455
58.265 7.243316
58.270 7.399305
58.275 7.420485
58.280 7.259927
58.285 7.167183
58.290 7.092128
58.295 7.154408
58.300 7.404874
58.305 7.502754
58.310 7.579683
58.315 7.568989
58.320 7.744749
58.325 7.478994
58.330 7.51856
58.335 7.872952
58.340 7.908212
58.345 8.054315
58.350 8.247251
58.355 7.852906
58.360 7.646152
58.365 7.893969
58.370 7.696777
58.375 7.719245
58.380 7.694575
58.385 7.594836
58.390 7.581735
58.395 7.955614
58.400 7.380866
58.405 7.238108
58.410 7.155706
58.415 7.06172
58.420 7.38876
58.425 7.441696
58.430 7.200039
58.435 7.190187
58.440 7.161191
58.445 7.14948
58.450 7.288623
58.455 7.040644
58.460 7.25364
58.465 7.459425
58.470 7.350408
58.475 7.068101
58.480 6.747516
58.485 6.730992
58.490 7.101792
58.495 6.867158
58.500 6.740658
58.505 6.923831
58.510 7.258645
58.515 7.512914
58.520 7.418151
58.525 7.33513
58.530 7.677587
58.535 7.825847
58.540 7.868685
58.545 7.702298
58.550 7.357648
58.555 7.289794
58.560 6.893075
58.565 6.43504
58.570 6.359694
58.575 6.423599
58.580 6.358978
58.585 6.557015
58.590 6.826894
58.595 7.076319
58.600 7.153433
58.605 7.010688
58.610 7.151542
58.615 7.248207
58.620 7.180816
58.625 6.772666
58.630 6.488938
58.635 6.859824
58.640 7.054724
58.645 7.011208
58.650 7.304619
58.655 7.291902
58.660 7.585931
58.665 7.854616
58.670 7.557842
58.675 7.82011
58.680 8.08877
58.685 7.823165
58.690 7.651796
58.695 7.684893
58.700 7.960454
58.705 8.008249
58.710 7.872566
58.715 7.549423
58.720 7.634232
58.725 8.241005
58.730 8.143291
58.735 8.065197
58.740 8.052235
58.745 7.712595
58.750 7.513952
58.755 7.478181
58.760 7.185149
58.765 6.962874
58.770 6.583823
58.775 6.524779
58.780 6.807254
58.785 7.266372
58.790 7.132522
58.795 7.086147
58.800 7.199832
58.805 7.292523
58.810 7.295206
58.815 6.979024
58.820 6.635793
58.825 6.535635
58.830 6.294904
58.835 6.574241
58.840 6.508533
58.845 6.600888
58.850 6.658507
58.855 6.546947
58.860 6.605349
58.865 7.181089
58.870 7.037825
58.875 7.048476
58.880 6.760948
58.885 6.781782
58.890 6.891071
58.895 7.089314
58.900 7.03465
58.905 6.947962
58.910 7.267662
58.915 7.455326
58.920 7.507115
58.925 7.806326
58.930 7.448464
58.935 7.283198
58.940 7.75334
58.945 7.689737
58.950 7.899664
58.955 8.108732
58.960 7.991322
58.965 7.787745
58.970 7.509787
58.975 7.401801
58.980 7.689319
58.985 7.76658
58.990 7.495935
58.995 7.34936
59.000 7.783933
59.005 8.227996
59.010 7.845856
59.015 7.440983
59.020 7.294718
59.025 7.724085
59.030 8.056898
59.035 7.883077
59.040 7.431472
59.045 7.413561
59.050 7.282199
59.055 7.343685
59.060 7.208698
59.065 6.956528
59.070 6.882192
59.075 6.995395
59.080 6.806923
59.085 6.873799
59.090 7.177034
59.095 6.856143
59.100 7.362568
59.105 7.810731
59.110 7.807968
59.115 8.121116
59.120 8.116721
59.125 8.024155
59.130 8.510884
59.135 8.125045
59.140 7.863805
59.145 7.871539
59.150 7.514185
59.155 7.117615
59.160 6.980524
59.165 6.775826
59.170 7.160696
59.175 7.408689
59.180 7.645855
59.185 7.791751
59.190 8.037052
59.195 7.758617
59.200 7.648272
59.205 7.208011
59.210 7.20823
59.215 6.979822
59.220 7.178763
59.225 7.124919
59.230 7.291811
59.235 7.410491
59.240 7.49236
59.245 7.515983
59.250 7.540409
59.255 7.385045
59.260 7.182677
59.265 6.808433
59.270 6.466858
59.275 6.387431
59.280 6.17907
59.285 5.973733
59.290 6.248362
59.295 6.405107
59.300 6.667793
59.305 6.86041
59.310 6.885662
59.315 7.071081
59.320 7.241941
59.325 6.948581
59.330 7.034698
59.335 7.346057
59.340 7.288061
59.345 7.112561
59.350 6.855694
59.355 6.903002
59.360 7.165743
59.365 7.21273
59.370 6.866198
59.375 6.81285
59.380 7.161883
59.385 7.375879
59.390 7.567111
59.395 7.387713
59.400 7.401346
59.405 7.680543
59.410 7.658503
59.415 7.125215
59.420 7.06107
59.425 6.853345
59.430 7.25209
59.435 6.996096
59.440 7.028287
59.445 7.216147
59.450 7.475178
59.455 7.62382
59.460 7.961759
59.465 7.649321
59.470 7.540397
59.475 7.334226
59.480 7.632582
59.485 7.926234
59.490 7.976368
59.495 7.419072
59.500 7.516644
59.505 7.613342
59.510 7.369197
59.515 7.039953
59.520 6.952715
59.525 7.131278
59.530 7.262177
59.535 7.29762
59.540 7.247923
59.545 7.307089
59.550 7.285553
59.555 7.28081
59.560 6.928433
59.565 7.10369
59.570 7.170573
59.575 7.209017
59.580 7.139874
59.585 6.605924
59.590 6.295598
59.595 6.64924
59.600 7.042541
59.605 6.808192
59.610 6.801477
59.615 6.847805
59.620 7.178679
59.625 7.409421
59.630 7.154135
59.635 6.721824
59.640 6.788972
59.645 7.136265
59.650 7.338109
59.655 7.257694
59.660 7.110608
59.665 6.993413
59.670 7.119381
59.675 7.344291
59.680 7.074874
59.685 7.276527
59.690 7.547458
59.695 7.59205
59.700 7.761869
59.705 7.287301
59.710 7.137351
59.715 7.38376
59.720 7.175237
59.725 7.169905
59.730 7.279781
59.735 7.143301
59.740 7.499927
59.745 7.45076
59.750 7.643866
59.755 7.777826
59.760 7.616259
59.765 7.624999
59.770 7.830479
59.775 7.702728
59.780 7.807657
59.785 7.60111
59.790 7.649264
59.795 7.703821
59.800 7.974996
59.805 8.121105
59.810 8.450783
59.815 8.53897
59.820 8.614503
59.825 8.253542
59.830 7.882885
59.835 7.444571
59.840 7.301807
59.845 7.026731
59.850 6.468841
59.855 6.354865
59.860 6.775804
59.865 7.172016
59.870 7.423995
59.875 7.364156
59.880 7.500531
59.885 7.8631
59.890 8.012901
59.895 7.623098
59.900 7.64831
59.905 7.534646
59.910 7.210109
59.915 7.328088
59.920 7.422731
59.925 7.471335
59.930 7.695683
59.935 7.88631
59.940 7.90488
59.945 8.566228
59.950 8.579377
59.955 7.991133
59.960 7.854505
59.965 8.109294
59.970 8.162751
59.975 8.228981
59.980 7.433353
59.985 7.41143
59.990 7.793328
59.995 7.928679
60.000 7.648377
60.005 7.427267
60.010 7.329879
60.015 7.466145
60.020 7.215205
60.025 7.185539
60.030 7.133162
60.035 6.945076
60.040 6.98584
60.045 7.043645
60.050 7.229128
60.055 7.837041
60.060 7.968964
60.065 7.684196
60.070 7.642534
60.075 7.77074
60.080 7.840858
60.085 7.968359
60.090 7.618099
60.095 7.317919
60.100 7.505921
60.105 7.468611
60.110 7.276369
60.115 7.01352
60.120 7.288992
60.125 7.483454
60.130 8.211427
60.135 8.340238
60.140 8.493857
60.145 8.564311
60.150 8.15533
60.155 8.095123
60.160 8.085734
60.165 7.689404
60.170 7.517164
60.175 7.332129
60.180 7.232903
60.185 7.580424
60.190 7.326995
60.195 6.700635
60.200 6.872548
60.205 6.86649
60.210 6.690968
60.215 6.692142
60.220 6.591324
60.225 6.576893
60.230 7.222512
60.235 7.106044
60.240 7.130018
60.245 7.350383
60.250 7.297074
60.255 7.24789
60.260 6.985371
60.265 6.766801
60.270 6.860605
60.275 6.822413
60.280 6.669097
60.285 6.769247
60.290 6.896523
60.295 7.282871
60.300 6.975887
60.305 6.703578
60.310 6.674261
60.315 7.000668
60.320 7.325417
60.325 7.568655
60.330 7.441455
60.335 7.517933
60.340 7.936966
60.345 8.295189
60.350 8.224407
60.355 7.600847
60.360 7.050346
60.365 7.192701
60.370 7.336725
60.375 7.349181
60.380 7.379988
60.385 7.512354
60.390 8.153165
60.395 9.224601
60.400 8.804173
60.405 8.289033
60.410 7.673654
60.415 7.513065
60.420 7.56377
60.425 7.283223
60.430 6.66526
60.435 6.863484
60.440 7.28977
60.445 7.663328
60.450 7.37807
60.455 6.939136
60.460 6.638172
60.465 6.666619
60.470 6.779266
60.475 6.628487
60.480 6.435784
60.485 6.705254
60.490 6.926494
60.495 7.356432
60.500 7.5078
60.505 7.601851
60.510 7.557082
60.515 7.321688
60.520 6.956226
60.525 7.013731
60.530 6.34534
60.535 6.066846
60.540 5.814206
60.545 5.818467
60.550 6.288557
60.555 6.352438
60.560 6.260773
60.565 6.192898
60.570 5.982856
60.575 6.104806
60.580 6.287479
60.585 6.113823
60.590 6.181333
60.595 6.345139
60.600 6.790133
60.605 7.348857
60.610 7.557209
60.615 7.963304
60.620 8.231528
60.625 8.688126
60.630 8.907187
60.635 8.595387
60.640 8.566779
60.645 8.68221
60.650 8.38566
60.655 7.699617
60.660 7.298159
60.665 6.973502
60.670 7.292966
60.675 7.253002
60.680 6.744397
60.685 6.763557
60.690 7.53765
60.695 7.778457
60.700 8.068187
60.705 7.800606
60.710 7.462297
60.715 7.283578
60.720 7.053621
60.725 6.451301
60.730 6.135201
60.735 5.812366
60.740 5.980283
60.745 6.163786
60.750 6.257988
60.755 6.495117
60.760 6.430518
60.765 6.578494
60.770 6.974286
60.775 7.116445
60.780 6.986967
60.785 7.178113
60.790 7.316694
60.795 7.507043
60.800 7.396912
60.805 6.931942
60.810 6.645577
60.815 6.931069
60.820 6.83309
60.825 6.621413
60.830 6.766646
60.835 6.771258
60.840 7.037902
60.845 7.341755
60.850 7.571773
60.855 7.996548
60.860 8.347229
60.865 8.461082
60.870 8.414763
60.875 8.384585
60.880 8.396321
60.885 8.334438
60.890 7.644382
60.895 7.160736
60.900 6.718803
60.905 6.766065
60.910 6.730199
60.915 6.393447
60.920 6.927877
60.925 7.499449
60.930 7.846218
60.935 8.066127
60.940 8.052867
60.945 8.297287
60.950 8.491648
60.955 8.041433
60.960 7.970088
60.965 7.582222
60.970 7.616641
60.975 7.890827
60.980 7.717393
60.985 7.838579
60.990 7.894143
60.995 7.84119
61.000 8.290564
61.005 8.380341
61.010 7.99742
61.015 7.651044
61.020 7.322599
61.025 6.97685
61.030 7.023315
61.035 7.211842
61.040 7.380402
61.045 7.308044
61.050 7.311579
61.055 7.103402
61.060 6.962053
61.065 6.883574
61.070 6.834782
61.075 6.629573
61.080 6.702253
61.085 6.799059
61.090 6.983087
61.095 7.210803
61.100 7.175625
61.105 6.903042
61.110 7.103181
61.115 7.132452
61.120 7.138716
61.125 7.087186
61.130 7.254034
61.135 7.531235
61.140 7.736924
61.145 7.88876
61.150 7.902671
61.155 7.99132
61.160 8.457988
61.165 8.275954
61.170 8.105718
61.175 7.872838
61.180 7.589437
61.185 7.982947
61.190 8.051854
61.195 8.120954
61.200 8.199044
61.205 8.292281
61.210 8.239648
61.215 8.1222
61.220 7.941928
61.225 7.874561
61.230 7.520979
61.235 7.123542
61.240 6.793044
61.245 6.897979
61.250 7.097528
61.255 7.06055
61.260 7.087517
61.265 7.763401
61.270 8.258013
61.275 8.571263
61.280 8.577098
61.285 8.454296
61.290 8.194388
61.295 8.171297
61.300 7.389398
61.305 7.324957
61.310 6.881117
61.315 6.52751
61.320 6.910998
61.325 7.379542
61.330 6.924406
61.335 7.01627
61.340 7.329777
61.345 7.839568
61.350 7.957568
61.355 7.605582
61.360 7.260985
61.365 7.370619
61.370 7.279595
61.375 6.685151
61.380 6.535774
61.385 6.672021
61.390 6.610148
61.395 6.361554
61.400 6.536294
61.405 6.670573
61.410 6.783225
61.415 6.872305
61.420 6.938468
61.425 7.157705
61.430 7.2138
61.435 7.07554
61.440 7.004504
61.445 7.412874
61.450 7.445969
61.455 7.73302
61.460 7.819777
61.465 8.029315
61.470 8.205235
61.475 8.346497
61.480 7.712512
61.485 7.638222
61.490 7.268019
61.495 7.375929
61.500 7.725163
61.505 7.782343
61.510 7.913971
61.515 8.095345
61.520 7.732707
61.525 7.565142
61.530 7.197417
61.535 7.046612
61.540 7.109812
61.545 7.28927
61.550 7.583175
61.555 8.367109
61.560 8.768661
61.565 9.14502
61.570 9.014711
61.575 8.775545
61.580 8.372194
61.585 7.921804
61.590 7.104354
61.595 6.903623
61.600 6.708345
61.605 6.714169
61.610 6.909508
61.615 6.991411
61.620 7.163848
61.625 7.692667
61.630 7.558156
61.635 7.381126
61.640 7.061202
61.645 6.67531
61.650 6.696616
61.655 6.938816
61.660 6.797891
61.665 6.92986
61.670 7.335498
61.675 7.653508
61.680 7.786984
61.685 7.831786
61.690 7.831524
61.695 7.696641
61.700 7.453915
61.705 7.460969
61.710 7.694938
61.715 8.069648
61.720 7.810274
61.725 7.547862
61.730 7.717218
61.735 7.925053
61.740 7.618241
61.745 7.598464
61.750 7.502295
61.755 7.708748
61.760 7.524086
61.765 7.385941
61.770 7.364992
61.775 7.617808
61.780 6.917364
61.785 6.572072
61.790 6.464809
61.795 6.719628
61.800 6.873172
61.805 6.583167
61.810 6.461787
61.815 6.628995
61.820 6.856846
61.825 7.110703
61.830 7.301743
61.835 7.569548
61.840 7.948933
61.845 7.964789
61.850 8.035095
61.855 7.828181
61.860 7.692583
61.865 7.64361
61.870 7.444609
61.875 7.647506
61.880 7.803375
61.885 7.88782
61.890 7.928607
61.895 7.936226
61.900 8.077012
61.905 7.938025
61.910 7.483532
61.915 7.32901
61.920 7.859377
61.925 8.112885
61.930 8.206852
61.935 8.119332
61.940 8.407206
61.945 8.751316
61.950 9.125436
61.955 8.831248
61.960 9.062524
61.965 8.963399
61.970 8.886962
61.975 8.700654
61.980 8.369583
61.985 8.001795
61.990 7.660111
61.995 7.385207
62.000 7.239914
62.005 7.427248
62.010 7.633468
62.015 7.544686
62.020 7.713205
62.025 8.148799
62.030 8.295856
62.035 8.285439
62.040 7.979373
62.045 8.208878
62.050 8.447603
62.055 8.196065
62.060 8.077974
62.065 8.345793
62.070 8.64574
62.075 8.858101
62.080 8.569921
62.085 8.850886
62.090 9.05039
62.095 8.629636
62.100 8.397449
62.105 8.233106
62.110 8.100889
62.115 8.059788
62.120 8.135769
62.125 8.317886
62.130 8.532063
62.135 8.054739
62.140 7.974727
62.145 7.795918
62.150 7.968474
62.155 7.793204
62.160 7.721247
62.165 8.113036
62.170 8.874739
62.175 9.16914
62.180 9.316693
62.185 9.579531
62.190 9.68574
62.195 9.623184
62.200 9.274134
62.205 8.631433
62.210 8.754998
62.215 8.988007
62.220 8.580399
62.225 8.346206
62.230 8.142548
62.235 8.405421
62.240 8.257129
62.245 7.76132
62.250 7.544879
62.255 7.556465
62.260 7.478452
62.265 7.843841
62.270 7.943359
62.275 8.046183
62.280 8.128417
62.285 8.228043
62.290 8.031523
62.295 7.841649
62.300 7.4983
62.305 7.51685
62.310 7.663304
62.315 7.344609
62.320 6.902311
62.325 7.022893
62.330 7.110784
62.335 7.377475
62.340 7.118453
62.345 7.236919
62.350 7.171891
62.355 7.384732
62.360 7.671377
62.365 7.737265
62.370 7.675041
62.375 7.467106
62.380 7.5947
62.385 7.837773
62.390 7.813379
62.395 7.727619
62.400 7.599868
62.405 7.474139
62.410 7.801704
62.415 7.387337
62.420 7.165307
62.425 7.255873
62.430 7.081382
62.435 7.045913
62.440 7.164299
62.445 7.375177
62.450 7.879867
62.455 8.434199
62.460 8.783468
62.465 9.113478
62.470 9.407943
62.475 9.399925
62.480 9.285255
62.485 9.067584
62.490 8.778243
62.495 8.262263
62.500 8.254002
62.505 8.188107
62.510 8.331928
62.515 7.921455
62.520 7.968514
62.525 7.778415
62.530 7.771363
62.535 7.487596
62.540 7.437696
62.545 7.31122
62.550 7.795197
62.555 7.708171
62.560 7.455328
62.565 7.571879
62.570 7.834261
62.575 7.790252
62.580 8.003745
62.585 8.118053
62.590 8.237265
62.595 8.715466
62.600 8.695427
62.605 8.842565
62.610 9.142981
62.615 8.93401
62.620 8.713571
62.625 8.744115
62.630 8.631078
62.635 8.743565
62.640 8.529462
62.645 8.81827
62.650 9.17436
62.655 9.218453
62.660 9.327524
62.665 9.588704
62.670 9.565038
62.675 9.553937
62.680 9.216419
62.685 9.213118
62.690 9.457717
62.695 9.706553
62.700 9.356349
62.705 9.059784
62.710 9.568367
62.715 9.517463
62.720 9.486054
62.725 9.722598
62.730 9.646807
62.735 10.029571
62.740 10.606663
62.745 10.228513
62.750 9.972801
62.755 9.679786
62.760 9.084704
62.765 8.835266
62.770 8.930235
62.775 8.744424
62.780 8.636039
62.785 8.631399
62.790 9.098142
62.795 9.566543
62.800 9.670911
62.805 9.41826
62.810 9.222185
62.815 9.271338
62.820 9.311367
62.825 8.866591
62.830 9.211704
62.835 9.69123
62.840 9.535584
62.845 9.183103
62.850 9.336529
62.855 9.421001
62.860 9.57441
62.865 9.183681
62.870 8.398534
62.875 8.353199
62.880 8.949545
62.885 8.946613
62.890 8.743155
62.895 8.795326
62.900 8.401024
62.905 8.707541
62.910 9.135953
62.915 8.664885
62.920 8.952662
62.925 8.994294
62.930 8.693151
62.935 8.83126
62.940 8.99756
62.945 8.376991
62.950 8.500749
62.955 8.389857
62.960 8.532453
62.965 9.239768
62.970 9.216206
62.975 9.198263
62.980 9.736036
62.985 9.740842
62.990 9.901073
62.995 9.959992
63.000 9.920711
63.005 9.922117
63.010 9.846066
63.015 9.377205
63.020 8.902698
63.025 8.231501
63.030 8.082244
63.035 7.469203
63.040 7.316734
63.045 7.366838
63.050 7.433906
63.055 7.439059
63.060 7.34226
63.065 7.308968
63.070 7.604007
63.075 7.558329
63.080 7.231014
63.085 6.947937
63.090 7.130596
63.095 7.400883
63.100 7.376338
63.105 7.174033
63.110 7.415746
63.115 7.461953
63.120 7.822044
63.125 7.770684
63.130 7.642528
63.135 7.832477
63.140 8.194028
63.145 8.71322
63.150 8.612325
63.155 8.571432
63.160 8.730096
63.165 8.88158
63.170 8.929856
63.175 8.558653
63.180 7.622451
63.185 7.774588
63.190 8.149185
63.195 8.307296
63.200 8.117699
63.205 7.487774
63.210 7.542611
63.215 7.841126
63.220 7.753386
63.225 7.354614
63.230 6.855924
63.235 6.746244
63.240 6.847911
63.245 6.866864
63.250 7.236132
63.255 7.373302
63.260 7.420095
63.265 7.67891
63.270 7.793472
63.275 7.828767
63.280 7.720624
63.285 7.69626
63.290 7.68045
63.295 7.886333
63.300 7.959585
63.305 8.230471
63.310 8.490891
63.315 8.544963
63.320 8.426727
63.325 8.463181
63.330 8.535895
63.335 8.693516
63.340 8.41454
63.345 8.215376
63.350 8.014519
63.355 7.835363
63.360 8.170185
63.365 7.943115
63.370 7.503264
63.375 7.472755
63.380 7.842304
63.385 7.844951
63.390 7.788044
63.395 7.45485
63.400 8.024477
63.405 8.165812
63.410 8.331724
63.415 8.227721
63.420 8.386965
63.425 8.585721
63.430 8.634173
63.435 8.459782
63.440 8.575171
63.445 8.207706
63.450 8.200095
63.455 8.018254
63.460 7.805341
63.465 7.399316
63.470 7.547944
63.475 7.690619
63.480 7.865866
63.485 7.840532
63.490 8.025212
63.495 7.974172
63.500 8.179737
63.505 8.065118
63.510 7.971898
63.515 8.004275
63.520 7.884379
63.525 7.906218
63.530 8.021876
63.535 7.807107
63.540 7.486064
63.545 7.492323
63.550 7.343154
63.555 7.772848
63.560 8.302123
63.565 8.396948
63.570 8.518459
63.575 8.827129
63.580 8.888821
63.585 9.161454
63.590 8.61855
63.595 8.158327
63.600 8.090559
63.605 8.122223
63.610 8.42294
63.615 8.383224
63.620 8.039761
63.625 8.108867
63.630 8.096546
63.635 8.021605
63.640 8.008682
63.645 7.63003
63.650 8.086043
63.655 8.353683
63.660 8.358889
63.665 8.392934
63.670 8.461808
63.675 8.214424
63.680 8.185283
63.685 7.895447
63.690 7.800237
63.695 7.857287
63.700 7.987253
63.705 7.84595
63.710 7.716111
63.715 7.300761
63.720 6.998773
63.725 6.952198
63.730 7.021359
63.735 6.869019
63.740 7.535477
63.745 8.114842
63.750 8.693558
63.755 8.742248
63.760 8.757214
63.765 8.695206
63.770 8.582387
63.775 8.069498
63.780 7.628756
63.785 7.312532
63.790 7.159163
63.795 6.979488
63.800 6.753287
63.805 6.664162
63.810 6.588496
63.815 6.787753
63.820 6.77464
63.825 7.11249
63.830 7.219693
63.835 7.396615
63.840 7.406429
63.845 7.19766
63.850 6.99058
63.855 7.005491
63.860 7.283205
63.865 7.634467
63.870 7.306926
63.875 7.392362
63.880 7.294185
63.885 7.245411
63.890 7.468976
63.895 7.117787
63.900 6.695442
63.905 6.8715
63.910 7.07663
63.915 7.145092
63.920 7.132833
63.925 6.810896
63.930 6.615761
63.935 6.803206
63.940 7.273285
63.945 7.127741
63.950 7.178333
63.955 7.191164
63.960 7.420953
63.965 7.684024
63.970 7.493197
63.975 7.048822
63.980 6.987612
63.985 7.091005
63.990 6.721571
63.995 6.830159
64.000 6.92905
64.005 7.299525
64.010 7.71109
64.015 8.466736
64.020 9.294615
64.025 10.031579
64.030 10.087824
64.035 10.050292
64.040 9.692467
64.045 9.354736
64.050 9.275553
64.055 8.663485
64.060 8.184896
64.065 7.782458
64.070 7.866135
64.075 8.301085
64.080 8.256388
64.085 7.629571
64.090 7.617125
64.095 7.776453
64.100 7.593791
64.105 7.453857
64.110 7.229848
64.115 7.690859
64.120 7.806602
64.125 7.633322
64.130 7.746944
64.135 8.075881
64.140 8.265738
64.145 8.29847
64.150 8.082812
64.155 8.095955
64.160 8.143991
64.165 7.995273
64.170 7.837085
64.175 7.633976
64.180 7.477537
64.185 7.923045
64.190 7.9651
64.195 7.886363
64.200 8.136348
64.205 8.135122
64.210 7.788898
64.215 7.705471
64.220 7.093878
64.225 7.257672
64.230 7.211377
64.235 6.837574
64.240 7.009223
64.245 7.032259
64.250 6.895922
64.255 7.000896
64.260 7.368278
64.265 7.497956
64.270 7.860138
64.275 7.936938
64.280 7.887068
64.285 7.650176
64.290 7.418715
64.295 7.041959
64.300 7.259899
64.305 7.198353
64.310 7.318883
64.315 7.878944
64.320 8.363265
64.325 8.481168
64.330 8.742746
64.335 8.686056
64.340 8.305408
64.345 7.992703
64.350 7.879143
64.355 7.458526
64.360 7.501432
64.365 7.252631
64.370 7.234519
64.375 7.450815
64.380 7.926123
64.385 7.848632
64.390 8.000494
64.395 7.809824
64.400 8.036149
64.405 8.246145
64.410 8.317426
64.415 8.146138
64.420 8.427851
64.425 8.827048
64.430 8.984393
64.435 8.813093
64.440 8.404012
64.445 8.524241
64.450 8.859713
64.455 8.575741
64.460 8.332191
64.465 8.373015
64.470 8.428104
64.475 8.473142
64.480 8.536225
64.485 8.312101
64.490 8.486099
64.495 8.777898
64.500 8.70241
64.505 8.432272
64.510 8.565166
64.515 8.379638
64.520 8.280168
64.525 8.261464
64.530 7.835338
64.535 7.877203
64.540 8.211434
64.545 8.426952
64.550 8.555543
64.555 8.698567
64.560 8.667048
64.565 8.874061
64.570 8.512194
64.575 8.10179
64.580 8.086957
64.585 7.921891
64.590 7.433741
64.595 7.581834
64.600 7.933586
64.605 8.53475
64.610 8.438725
64.615 8.395513
64.620 8.611078
64.625 9.19043
64.630 8.961705
64.635 8.732306
64.640 8.718801
64.645 8.801328
64.650 8.675335
64.655 8.478683
64.660 8.610224
64.665 9.172482
64.670 9.310178
64.675 9.6725
64.680 9.668951
64.685 9.258171
64.690 9.24634
64.695 8.851516
64.700 8.317971
64.705 8.19045
64.710 8.220683
64.715 8.407824
64.720 8.790666
64.725 8.821372
64.730 8.979097
64.735 9.169247
64.740 9.434525
64.745 9.429386
64.750 9.504513
64.755 9.921291
64.760 10.160149
64.765 10.451834
64.770 10.157396
64.775 10.064785
64.780 10.24955
64.785 10.714942
64.790 10.72175
64.795 11.122151
64.800 11.318269
64.805 11.844021
64.810 11.910941
64.815 12.391571
64.820 12.404425
64.825 12.331374
64.830 12.291291
64.835 12.613791
64.840 12.248791
64.845 12.235734
64.850 12.039524
64.855 12.156823
64.860 12.180846
64.865 11.773985
64.870 11.153563
64.875 11.464327
64.880 11.897209
64.885 12.038239
64.890 12.143396
64.895 12.156765
64.900 12.731313
64.905 13.289205
64.910 13.388886
64.915 13.131594
64.920 13.06201
64.925 12.942502
64.930 12.945436
64.935 12.80347
64.940 12.421748
64.945 12.182853
64.950 12.23427
64.955 11.807296
64.960 12.450199
64.965 12.655636
64.970 12.613843
64.975 12.222529
64.980 12.289647
64.985 12.660975
64.990 13.184612
64.995 13.078408
65.000 13.252604
65.005 13.185778
65.010 13.752283
65.015 13.991724
65.020 14.437622
65.025 14.780398
65.030 14.582545
65.035 14.695069
65.040 15.032469
65.045 15.30012
65.050 15.490727
65.055 14.869639
65.060 14.635054
65.065 14.810726
65.070 14.494747
65.075 14.570746
65.080 14.486752
65.085 14.546593
65.090 14.659539
65.095 14.935652
65.100 14.576095
65.105 14.629107
65.110 14.464852
65.115 14.07945
65.120 14.285705
65.125 14.270685
65.130 13.94062
65.135 14.020947
65.140 14.099763
65.145 14.037188
65.150 14.27109
65.155 13.804234
65.160 13.559599
65.165 13.613743
65.170 13.077936
65.175 12.596231
65.180 12.607821
65.185 12.515684
65.190 12.09781
65.195 12.54866
65.200 12.295835
65.205 12.658332
65.210 12.650027
65.215 12.719516
65.220 12.590081
65.225 12.892505
65.230 12.317455
65.235 12.216764
65.240 11.817807
65.245 11.976264
65.250 11.501328
65.255 11.303691
65.260 11.152115
65.265 11.090882
65.270 11.244547
65.275 11.387863
65.280 11.106392
65.285 11.566402
65.290 11.565541
65.295 11.561769
65.300 11.603904
65.305 11.143716
65.310 11.437315
65.315 11.634212
65.320 11.241535
65.325 11.435937
65.330 11.346297
65.335 11.620964
65.340 12.062154
65.345 12.028734
65.350 11.426274
65.355 11.395802
65.360 11.205276
65.365 11.019914
65.370 10.024185
65.375 9.521324
65.380 8.957243
65.385 8.917288
65.390 8.589853
65.395 8.542793
65.400 8.173871
65.405 7.941891
65.410 8.168376
65.415 8.394827
65.420 8.460194
65.425 8.452774
65.430 8.290033
65.435 8.641482
65.440 8.991909
65.445 8.781246
65.450 8.709877
65.455 9.294116
65.460 10.00593
65.465 10.5257
65.470 10.507659
65.475 10.552603
65.480 10.535704
65.485 10.677336
65.490 10.174824
65.495 9.631491
65.500 9.368967
65.505 9.499301
65.510 9.332666
65.515 9.283286
65.520 8.923967
65.525 8.970453
65.530 9.081661
65.535 9.260408
65.540 9.191368
65.545 8.937111
65.550 9.079696
65.555 9.155156
65.560 9.171072
65.565 9.123631
65.570 8.552798
65.575 8.201996
65.580 8.388726
65.585 8.256905
65.590 8.455865
65.595 8.429802
65.600 8.428181
65.605 8.833173
65.610 9.330514
65.615 9.545356
65.620 10.072844
65.625 9.840495
65.630 9.365456
65.635 9.097746
65.640 9.024571
65.645 8.674828
65.650 8.229319
65.655 8.022359
65.660 8.270741
65.665 8.391667
65.670 8.520377
65.675 8.247189
65.680 8.267871
65.685 8.239037
65.690 7.77311
65.695 8.163843
65.700 8.375478
65.705 8.111566
65.710 8.055095
65.715 7.682995
65.720 7.633007
65.725 7.989779
65.730 7.674551
65.735 7.921215
65.740 7.951193
65.745 7.721199
65.750 7.667489
65.755 7.43869
65.760 6.95885
65.765 6.541951
65.770 6.397447
65.775 6.797413
65.780 7.20822
65.785 7.084756
65.790 6.995241
65.795 7.148117
65.800 7.168302
65.805 6.921313
65.810 6.767378
65.815 6.976521
65.820 7.423691
65.825 7.525523
65.830 8.014894
65.835 8.289922
65.840 8.29611
65.845 8.377048
65.850 8.107894
65.855 8.370565
65.860 8.518421
65.865 8.090199
65.870 8.307516
65.875 8.616903
65.880 8.580071
65.885 8.599265
65.890 8.390709
65.895 8.500073
65.900 8.667049
65.905 8.214252
65.910 8.111871
65.915 7.854708
65.920 7.792647
65.925 7.570855
65.930 7.203618
65.935 7.032926
65.940 7.325553
65.945 7.173323
65.950 7.171479
65.955 7.039176
65.960 7.314649
65.965 7.281998
65.970 7.475227
65.975 7.634708
65.980 7.59908
65.985 7.62363
65.990 7.632822
65.995 7.438204
66.000 7.659815
66.005 7.357484
66.010 7.018031
66.015 7.202747
66.020 7.333762
66.025 7.382363
66.030 7.621106
66.035 7.37166
66.040 7.318605
66.045 7.6858
66.050 7.544758
66.055 7.655465
66.060 7.747437
66.065 7.582772
66.070 7.814851
66.075 7.962985
66.080 7.684812
66.085 7.840282
66.090 7.714685
66.095 7.350941
66.100 7.337998
66.105 7.10192
66.110 7.145229
66.115 7.383413
66.120 7.004544
66.125 7.003264
66.130 7.317456
66.135 7.195086
66.140 7.28338
66.145 7.072807
66.150 7.056906
66.155 7.380163
66.160 7.470889
66.165 7.422115
66.170 7.415906
66.175 7.214683
66.180 7.2901
66.185 7.309298
66.190 7.23033
66.195 7.253454
66.200 7.738928
66.205 8.082471
66.210 8.389585
66.215 8.574757
66.220 8.46827
66.225 8.487638
66.230 8.246825
66.235 8.262763
66.240 8.324353
66.245 8.254605
66.250 8.25047
66.255 8.541432
66.260 8.557389
66.265 8.65759
66.270 7.862963
66.275 7.722593
66.280 7.612842
66.285 7.65741
66.290 7.445059
66.295 7.463008
66.300 7.436483
66.305 7.58003
66.310 7.632026
66.315 7.585317
66.320 7.390229
66.325 7.520133
66.330 7.690905
66.335 7.77899
66.340 7.771561
66.345 7.88632
66.350 7.817389
66.355 7.634804
66.360 7.786608
66.365 7.65767
66.370 7.820036
66.375 7.840006
66.380 7.62395
66.385 7.468727
66.390 7.568854
66.395 7.6177
66.400 7.570437
66.405 7.57718
66.410 7.79579
66.415 7.831155
66.420 7.976746
66.425 8.050174
66.430 7.777258
66.435 7.609017
66.440 7.327039
66.445 7.138961
66.450 7.351799
66.455 7.335453
66.460 7.367286
66.465 7.655584
66.470 8.082161
66.475 8.43392
66.480 8.946906
66.485 8.934776
66.490 9.470105
66.495 9.41186
66.500 9.199565
66.505 9.144101
66.510 9.204236
66.515 8.906026
66.520 9.054152
66.525 8.819941
66.530 8.838652
66.535 8.446221
66.540 8.239711
66.545 8.167679
66.550 7.820436
66.555 7.31176
66.560 6.849588
66.565 6.947863
66.570 7.493725
66.575 7.335694
66.580 7.109128
66.585 7.183418
66.590 7.665021
66.595 7.967847
66.600 8.02745
66.605 7.949712
66.610 8.059684
66.615 8.344041
66.620 8.337637
66.625 8.469335
66.630 8.445598
66.635 8.146209
66.640 7.892885
66.645 7.917598
66.650 7.771484
66.655 7.752429
66.660 7.560241
66.665 8.061027
66.670 8.32581
66.675 8.606098
66.680 8.352178
66.685 8.366032
66.690 8.500918
66.695 8.170251
66.700 7.614124
66.705 7.409781
66.710 7.023937
66.715 7.069656
66.720 7.005437
66.725 6.798818
66.730 6.784511
66.735 7.107193
66.740 7.106445
66.745 7.250785
66.750 7.428769
66.755 7.862357
66.760 8.63477
66.765 8.839775
66.770 8.480723
66.775 8.511187
66.780 8.479148
66.785 8.54624
66.790 8.259979
66.795 7.684731
66.800 7.299413
66.805 7.292374
66.810 7.25415
66.815 7.40489
66.820 7.48949
66.825 7.3736
66.830 7.529364
66.835 8.10722
66.840 8.254461
66.845 8.025963
66.850 7.958958
66.855 8.044021
66.860 8.271646
66.865 8.297585
66.870 7.992908
66.875 8.055259
66.880 8.228771
66.885 8.053246
66.890 8.060872
66.895 7.89234
66.900 7.611791
66.905 7.915286
66.910 7.80946
66.915 7.924291
66.920 7.841683
66.925 7.835904
66.930 8.059301
66.935 8.105168
66.940 7.694696
66.945 7.679318
66.950 7.794767
66.955 7.869262
66.960 7.736723
66.965 7.430932
66.970 7.724549
66.975 7.868511
66.980 8.178819
66.985 8.132061
66.990 8.067998
66.995 8.043245
67.000 8.125814
67.005 7.579495
67.010 7.41723
67.015 7.124612
67.020 7.077509
67.025 6.979177
67.030 6.789397
67.035 6.846323
67.040 7.024263
67.045 7.7352
67.050 7.808405
67.055 7.82364
67.060 7.940938
67.065 7.77648
67.070 7.730291
67.075 7.902851
67.080 7.021378
67.085 7.092006
67.090 7.099907
67.095 7.379373
67.100 7.670802
67.105 7.459572
67.110 7.386666
67.115 7.962913
67.120 7.746259
67.125 7.522497
67.130 7.2109
67.135 7.280591
67.140 8.14095
67.145 7.937245
67.150 7.438536
67.155 7.514774
67.160 7.775199
67.165 7.584166
67.170 7.102888
67.175 6.72296
67.180 6.930145
67.185 7.206327
67.190 7.310813
67.195 7.285198
67.200 7.598451
67.205 7.553542
67.210 7.049061
67.215 7.308369
67.220 7.358807
67.225 7.481962
67.230 7.287093
67.235 7.056547
67.240 7.369851
67.245 7.498337
67.250 7.382289
67.255 7.171357
67.260 7.135248
67.265 7.359115
67.270 7.580445
67.275 7.460921
67.280 7.466864
67.285 7.702756
67.290 7.886333
67.295 8.21825
67.300 8.534687
67.305 8.811172
67.310 8.967186
67.315 9.008792
67.320 8.687374
67.325 8.750769
67.330 8.875082
67.335 8.997591
67.340 8.901475
67.345 8.930013
67.350 8.791985
67.355 8.877407
67.360 8.919871
67.365 8.684925
67.370 8.428452
67.375 8.453032
67.380 8.310475
67.385 8.644648
67.390 8.612638
67.395 8.488775
67.400 8.437773
67.405 8.58978
67.410 8.598021
67.415 8.560325
67.420 8.135516
67.425 8.362282
67.430 8.165382
67.435 8.163997
67.440 7.929782
67.445 7.971124
67.450 8.600115
67.455 9.143138
67.460 9.128451
67.465 9.16967
67.470 9.033354
67.475 8.9258
67.480 9.13336
67.485 8.967136
67.490 8.618085
67.495 8.385828
67.500 8.281903
67.505 8.237537
67.510 8.515737
67.515 8.238365
67.520 7.885254
67.525 7.947459
67.530 7.859006
67.535 7.6189
67.540 7.524318
67.545 7.380595
67.550 7.434563
67.555 7.665213
67.560 7.752056
67.565 7.960427
67.570 8.069102
67.575 8.051392
67.580 7.907274
67.585 8.158427
67.590 8.062674
67.595 8.087264
67.600 8.065235
67.605 8.39289
67.610 8.433786
67.615 8.401553
67.620 8.723771
67.625 8.906818
67.630 9.077329
67.635 9.433163
67.640 9.499763
67.645 9.897967
67.650 10.183673
67.655 9.544479
67.660 9.061761
67.665 8.726486
67.670 8.372242
67.675 8.233125
67.680 8.05646
67.685 7.910809
67.690 7.989886
67.695 8.248563
67.700 8.318894
67.705 8.599338
67.710 8.51597
67.715 8.221593
67.720 8.118782
67.725 8.44306
67.730 8.636971
67.735 8.837668
67.740 8.503106
67.745 8.177758
67.750 8.374711
67.755 8.340263
67.760 8.414183
67.765 8.420285
67.770 8.302089
67.775 8.307134
67.780 8.571133
67.785 8.236447
67.790 8.110728
67.795 8.037433
67.800 7.994618
67.805 8.691632
67.810 9.061028
67.815 8.900145
67.820 8.903398
67.825 9.20202
67.830 9.14987
67.835 9.095711
67.840 8.401272
67.845 8.177794
67.850 8.437243
67.855 8.569546
67.860 8.239228
67.865 8.402869
67.870 8.418876
67.875 8.938194
67.880 9.105733
67.885 9.225007
67.890 9.698092
67.895 10.116695
67.900 10.513391
67.905 10.578302
67.910 10.408507
67.915 10.389991
67.920 10.252856
67.925 10.143646
67.930 9.744978
67.935 9.215475
67.940 8.968249
67.945 9.241751
67.950 9.296441
67.955 9.506665
67.960 9.70472
67.965 9.887757
67.970 10.081264
67.975 10.383466
67.980 10.332347
67.985 10.448452
67.990 10.685183
67.995 9.923246
68.000 9.762113
68.005 10.154489
68.010 9.866347
68.015 9.457078
68.020 9.035324
68.025 8.577348
68.030 9.225088
68.035 9.283346
68.040 8.696935
68.045 8.918674
68.050 9.084377
68.055 9.007074
68.060 8.87131
68.065 8.563482
68.070 8.861785
68.075 8.969118
68.080 8.762972
68.085 9.142119
68.090 9.242611
68.095 9.272282
68.100 9.295709
68.105 8.956183
68.110 8.472487
68.115 8.58993
68.120 8.328773
68.125 8.578247
68.130 8.421725
68.135 8.298057
68.140 8.435436
68.145 8.628201
68.150 8.512846
68.155 8.589928
68.160 8.527592
68.165 8.74291
68.170 8.671062
68.175 8.295025
68.180 8.269038
68.185 8.323629
68.190 8.194923
68.195 8.016282
68.200 7.748598
68.205 7.868556
68.210 7.994593
68.215 8.1148
68.220 8.539364
68.225 8.778917
68.230 8.84193
68.235 8.874498
68.240 8.373858
68.245 8.585392
68.250 8.215529
68.255 7.553682
68.260 7.542745
68.265 7.799485
68.270 8.122977
68.275 8.213014
68.280 7.872167
68.285 8.131037
68.290 7.870257
68.295 7.249224
68.300 6.843269
68.305 6.765575
68.310 6.908144
68.315 6.973419
68.320 7.337928
68.325 7.564653
68.330 7.9677
68.335 8.044067
68.340 8.043447
68.345 7.894161
68.350 7.329134
68.355 6.994925
68.360 7.002673
68.365 6.88623
68.370 6.779345
68.375 6.938573
68.380 7.390475
68.385 7.745596
68.390 7.536895
68.395 7.799888
68.400 7.891858
68.405 8.205477
68.410 7.756434
68.415 7.361965
68.420 7.546401
68.425 7.855822
68.430 7.774807
68.435 7.816849
68.440 7.620947
68.445 7.984516
68.450 8.036802
68.455 8.063244
68.460 7.593256
68.465 7.478423
68.470 7.353066
68.475 7.180022
68.480 7.028352
68.485 7.362768
68.490 7.174854
68.495 7.675326
68.500 7.837144
68.505 7.915472
68.510 8.435306
68.515 8.576324
68.520 8.746099
68.525 8.797353
68.530 8.987071
68.535 8.780556
68.540 8.634286
68.545 8.367136
68.550 8.470907
68.555 8.121417
68.560 8.210586
68.565 8.135036
68.570 8.175013
68.575 8.083886
68.580 7.984613
68.585 8.056583
68.590 8.09824
68.595 8.355631
68.600 8.567966
68.605 8.50728
68.610 8.897787
68.615 9.128828
68.620 8.933495
68.625 8.779835
68.630 8.56443
68.635 8.030342
68.640 8.402495
68.645 8.470218
68.650 8.438911
68.655 8.412866
68.660 8.392091
68.665 8.744059
68.670 9.2438
68.675 9.19285
68.680 8.890533
68.685 8.769769
68.690 8.610838
68.695 8.616453
68.700 8.35302
68.705 8.084139
68.710 7.834424
68.715 8.40326
68.720 8.418448
68.725 9.500251
68.730 9.565297
68.735 9.17011
68.740 9.292922
68.745 9.358452
68.750 9.195262
68.755 9.167892
68.760 8.454942
68.765 8.573436
68.770 8.571894
68.775 8.446256
68.780 8.479896
68.785 8.04281
68.790 8.130023
68.795 8.046645
68.800 8.263739
68.805 8.33647
68.810 8.422064
68.815 8.042749
68.820 8.048406
68.825 8.170301
68.830 8.197255
68.835 8.327228
68.840 8.105758
68.845 8.43402
68.850 8.760629
68.855 9.151416
68.860 9.182522
68.865 9.055387
68.870 8.760116
68.875 9.034509
68.880 8.835382
68.885 8.954537
68.890 8.793239
68.895 8.67484
68.900 8.543323
68.905 8.870482
68.910 8.855629
68.915 8.442998
68.920 8.583973
68.925 8.67736
68.930 8.869271
68.935 9.08684
68.940 9.386606
68.945 9.523064
68.950 9.994212
68.955 9.508848
68.960 9.178127
68.965 9.115542
68.970 9.055514
68.975 8.809116
68.980 8.493958
68.985 8.308374
68.990 8.603229
68.995 8.808016
69.000 8.800008
69.005 8.537317
69.010 8.675854
69.015 8.867953
69.020 8.738894
69.025 8.771188
69.030 8.671439
69.035 8.782059
69.040 8.958779
69.045 8.676874
69.050 8.753246
69.055 8.89471
69.060 8.823893
69.065 9.054158
69.070 9.143447
69.075 9.175389
69.080 9.207415
69.085 9.074986
69.090 9.086886
69.095 8.895837
69.100 8.825314
69.105 9.02911
69.110 9.332544
69.115 9.672637
69.120 9.676061
69.125 9.810699
69.130 10.138005
69.135 9.945559
69.140 9.617116
69.145 9.189189
69.150 9.249529
69.155 9.627892
69.160 9.55871
69.165 9.42655
69.170 9.391563
69.175 9.820422
69.180 9.788151
69.185 9.616375
69.190 9.580108
69.195 9.505232
69.200 9.616208
69.205 9.77387
69.210 9.152481
69.215 9.466272
69.220 9.282061
69.225 8.843667
69.230 8.754502
69.235 9.081826
69.240 8.84379
69.245 8.995887
69.250 8.975131
69.255 8.844364
69.260 9.214012
69.265 9.313992
69.270 8.700603
69.275 8.69173
69.280 8.264087
69.285 7.842662
69.290 8.068073
69.295 7.819624
69.300 7.392148
69.305 7.485447
69.310 7.69264
69.315 7.963183
69.320 8.005453
69.325 8.064426
69.330 7.955433
69.335 7.984449
69.340 7.940608
69.345 8.037068
69.350 8.224997
69.355 8.398007
69.360 7.999965
69.365 8.378061
69.370 8.621032
69.375 8.477847
69.380 8.351963
69.385 8.720522
69.390 8.684193
69.395 8.782054
69.400 8.92705
69.405 8.911516
69.410 8.841503
69.415 8.705845
69.420 8.593285
69.425 8.553786
69.430 8.586868
69.435 8.266069
69.440 8.307949
69.445 8.449947
69.450 8.280333
69.455 7.984473
69.460 8.18777
69.465 8.287242
69.470 8.598749
69.475 8.756745
69.480 8.6985
69.485 8.408728
69.490 8.229471
69.495 7.756207
69.500 7.600244
69.505 7.391865
69.510 7.280321
69.515 7.216255
69.520 7.567731
69.525 7.467497
69.530 7.570256
69.535 7.623501
69.540 7.727912
69.545 7.628218
69.550 8.096024
69.555 8.240149
69.560 8.532804
69.565 8.976934
69.570 8.92067
69.575 8.819337
69.580 8.858433
69.585 8.493979
69.590 8.457792
69.595 8.331068
69.600 8.023249
69.605 8.177355
69.610 8.210935
69.615 8.086293
69.620 8.045733
69.625 7.886541
69.630 7.996455
69.635 7.864658
69.640 7.803203
69.645 7.712583
69.650 7.895946
69.655 8.371666
69.660 8.558466
69.665 8.070778
69.670 8.188773
69.675 8.217541
69.680 8.364025
69.685 8.379066
69.690 8.277525
69.695 8.145891
69.700 8.753486
69.705 8.779923
69.710 8.722106
69.715 8.599635
69.720 9.008233
69.725 8.805834
69.730 8.732431
69.735 8.268998
69.740 8.198713
69.745 8.274878
69.750 7.84519
69.755 7.364625
69.760 7.236391
69.765 7.475731
69.770 7.533526
69.775 7.08702
69.780 7.267902
69.785 7.373181
69.790 7.564184
69.795 8.078548
69.800 8.077986
69.805 8.246595
69.810 8.507387
69.815 8.31928
69.820 8.426711
69.825 8.331768
69.830 8.127639
69.835 7.873604
69.840 8.017364
69.845 8.376723
69.850 8.95539
69.855 9.307741
69.860 9.148703
69.865 9.386086
69.870 9.561021
69.875 9.697273
69.880 9.526498
69.885 9.12666
69.890 8.883259
69.895 9.15922
69.900 8.915776
69.905 9.141134
69.910 8.863503
69.915 8.797057
69.920 9.154071
69.925 8.94482
69.930 8.902481
69.935 8.772733
69.940 8.291078
69.945 8.404111
69.950 8.060213
69.955 7.961274
69.960 8.23225
69.965 8.141587
69.970 8.039285
69.975 7.936664
69.980 7.93744
69.985 8.220654
69.990 8.354254
69.995 8.33099
70.000 8.204947
70.005 8.225076
70.010 8.34676
70.015 8.066421
70.020 7.530761
70.025 7.24983
70.030 7.593585
70.035 8.067771
70.040 8.054978
70.045 7.94986
70.050 8.220198
70.055 8.585331
70.060 8.575476
70.065 8.175705
70.070 8.644197
70.075 9.204556
70.080 9.550252
70.085 9.233797
70.090 9.253763
70.095 9.645304
70.100 9.667291
70.105 9.101262
70.110 8.803077
70.115 8.650156
70.120 8.827172
70.125 8.682629
70.130 8.731933
70.135 9.121082
70.140 9.270962
70.145 9.424647
70.150 9.208371
70.155 9.037973
70.160 9.049862
70.165 8.81236
70.170 8.507518
70.175 8.501703
70.180 8.470703
70.185 8.8915
70.190 9.165095
70.195 8.96378
70.200 9.046272
70.205 9.194811
70.210 9.439734
70.215 9.315875
70.220 9.093809
70.225 8.426058
70.230 8.05463
70.235 7.827002
70.240 7.797382
70.245 7.856701
70.250 8.768075
70.255 9.038605
70.260 9.650623
70.265 9.860381
70.270 9.776458
70.275 9.438776
70.280 9.304613
70.285 9.117601
70.290 9.427498
70.295 9.3454
70.300 9.520713
70.305 9.621432
70.310 10.105516
70.315 9.80662
70.320 9.074471
70.325 9.038707
70.330 9.147171
70.335 8.910382
70.340 8.706054
70.345 8.109015
70.350 8.442544
70.355 8.765459
70.360 8.681517
70.365 8.773566
70.370 8.619541
70.375 8.38798
70.380 8.308048
70.385 7.899352
70.390 8.00103
70.395 7.826759
70.400 7.438097
70.405 7.811962
70.410 7.811346
70.415 7.955363
70.420 7.847722
70.425 7.47086
70.430 7.549643
70.435 7.982904
70.440 8.208736
70.445 8.698066
70.450 8.860162
70.455 9.267288
70.460 9.694901
70.465 9.72156
70.470 9.513343
70.475 9.4505
70.480 9.211277
70.485 9.157822
70.490 9.039412
70.495 9.157273
70.500 9.23974
70.505 9.496043
70.510 9.770692
70.515 9.781606
70.520 10.075661
70.525 10.095951
70.530 9.851335
70.535 9.818199
70.540 9.874138
70.545 9.480896
70.550 9.415417
70.555 9.327315
70.560 9.149177
70.565 9.13918
70.570 8.852668
70.575 8.78583
70.580 8.953585
70.585 8.434075
70.590 8.106465
70.595 8.34713
70.600 8.229867
70.605 8.201445
70.610 8.291233
70.615 8.605052
70.620 8.813597
70.625 8.810566
70.630 8.262541
70.635 8.666861
70.640 8.900921
70.645 8.491038
70.650 8.171793
70.655 8.062267
70.660 7.990337
70.665 8.148981
70.670 7.838137
70.675 7.54582
70.680 7.751767
70.685 7.848351
70.690 8.353626
70.695 8.248387
70.700 8.037612
70.705 8.288248
70.710 8.251884
70.715 8.274819
70.720 8.194539
70.725 7.732566
70.730 7.936953
70.735 7.841963
70.740 7.826013
70.745 7.612093
70.750 7.359319
70.755 7.205431
70.760 7.385016
70.765 7.525995
70.770 7.80814
70.775 7.862533
70.780 8.237353
70.785 8.475711
70.790 8.569614
70.795 8.617292
70.800 8.671656
70.805 8.689159
70.810 8.80433
70.815 8.845888
70.820 9.116369
70.825 9.41853
70.830 9.490944
70.835 9.541716
70.840 9.536718
70.845 9.339488
70.850 9.480161
70.855 9.051561
70.860 8.455196
70.865 8.217134
70.870 7.937969
70.875 7.488022
70.880 7.262696
70.885 6.835614
70.890 7.017031
70.895 7.265916
70.900 7.454095
70.905 7.74546
70.910 8.20337
70.915 8.246087
70.920 8.533625
70.925 8.689516
70.930 9.089665
70.935 9.325475
70.940 9.360636
70.945 9.349628
70.950 9.284522
70.955 9.027027
70.960 8.862621
70.965 8.15949
70.970 7.723344
70.975 7.566409
70.980 7.18847
70.985 6.979757
70.990 6.853762
70.995 6.601421
71.000 6.839758
71.005 6.797658
71.010 6.838712
71.015 7.076766
71.020 7.203337
71.025 7.51845
71.030 7.555132
71.035 7.321212
71.040 7.523146
71.045 7.726662
71.050 7.802439
71.055 7.674934
71.060 7.473277
71.065 7.877497
71.070 7.964953
71.075 7.957097
71.080 8.016573
71.085 7.923194
71.090 8.520653
71.095 8.812916
71.100 9.195331
71.105 9.280458
71.110 9.191547
71.115 9.24692
71.120 9.207501
71.125 8.842657
71.130 8.474594
71.135 7.762942
71.140 7.726165
71.145 7.516087
71.150 7.251874
71.155 7.062949
71.160 6.80677
71.165 7.26662
71.170 7.668343
71.175 7.672553
71.180 7.901926
71.185 7.991942
71.190 8.277762
71.195 8.144427
71.200 7.849808
71.205 7.558386
71.210 7.427114
71.215 7.748378
71.220 7.672737
71.225 7.610719
71.230 7.819157
71.235 8.268003
71.240 8.237864
71.245 8.163651
71.250 7.858965
71.255 8.077916
71.260 8.217056
71.265 8.618214
71.270 8.51695
71.275 8.578113
71.280 8.716338
71.285 8.793782
71.290 8.563938
71.295 8.264302
71.300 7.7538
71.305 7.553679
71.310 7.80153
71.315 7.773375
71.320 7.955287
71.325 7.957985
71.330 7.698461
71.335 7.8012
71.340 7.639043
71.345 7.429154
71.350 7.271619
71.355 6.957384
71.360 6.97199
71.365 7.008096
71.370 7.094746
71.375 7.285801
71.380 7.527073
71.385 7.633029
71.390 7.737338
71.395 8.015319
71.400 8.376564
71.405 8.294528
71.410 8.40018
71.415 8.156077
71.420 8.136237
71.425 8.206234
71.430 7.921093
71.435 8.039909
71.440 8.351536
71.445 8.12433
71.450 8.092314
71.455 7.916131
71.460 8.05339
71.465 8.021066
71.470 7.705719
71.475 7.526893
71.480 7.441477
71.485 7.655504
71.490 7.863614
71.495 7.80459
71.500 8.014392
71.505 7.733565
71.510 7.711199
71.515 8.255305
71.520 8.180238
71.525 7.994013
71.530 8.078437
71.535 8.444809
71.540 8.757449
71.545 8.758996
71.550 8.361873
71.555 8.324326
71.560 8.622082
71.565 8.366517
71.570 7.901626
71.575 7.821864
71.580 7.599387
71.585 7.792671
71.590 7.780218
71.595 7.698807
71.600 7.683255
71.605 7.746807
71.610 7.977086
71.615 8.355329
71.620 8.322559
71.625 8.188914
71.630 8.204943
71.635 8.056046
71.640 8.168643
71.645 8.054461
71.650 7.629819
71.655 7.465158
71.660 7.472097
71.665 7.89326
71.670 7.884754
71.675 7.588587
71.680 7.420192
71.685 7.154822
71.690 6.873601
71.695 6.873625
71.700 6.527541
71.705 6.615938
71.710 6.774968
71.715 7.100954
71.720 7.662298
71.725 7.540659
71.730 7.337967
71.735 7.389316
71.740 7.400676
71.745 7.329975
71.750 7.386555
71.755 7.531298
71.760 7.648027
71.765 7.507694
71.770 7.388833
71.775 7.680807
71.780 7.622427
71.785 7.224404
71.790 6.989605
71.795 7.374564
71.800 7.642404
71.805 7.756166
71.810 7.387494
71.815 7.496382
71.820 7.899695
71.825 7.85665
71.830 7.828097
71.835 7.774715
71.840 7.630852
71.845 7.582037
71.850 7.599021
71.855 7.560894
71.860 7.644711
71.865 7.480229
71.870 7.482832
71.875 7.130234
71.880 7.608691
71.885 7.470627
71.890 7.460112
71.895 7.490734
71.900 7.548731
71.905 7.857417
71.910 8.49882
71.915 8.447541
71.920 8.480874
71.925 8.282308
71.930 8.41628
71.935 8.169565
71.940 8.157673
71.945 7.919437
71.950 8.091777
71.955 8.235226
71.960 8.418412
71.965 8.279639
71.970 8.163139
71.975 8.135693
71.980 7.914488
71.985 7.77388
71.990 7.771808
71.995 7.75487
72.000 8.331734
72.005 8.469696
72.010 8.570975
72.015 8.682271
72.020 8.600416
72.025 8.627569
72.030 8.546677
72.035 8.257413
72.040 7.990166
72.045 7.933587
72.050 7.674603
72.055 7.557195
72.060 7.48952
72.065 7.08223
72.070 7.680843
72.075 8.17127
72.080 8.071693
72.085 8.199999
72.090 8.256235
72.095 8.096493
72.100 8.567745
72.105 8.268344
72.110 8.300466
72.115 8.831323
72.120 8.885146
72.125 8.961744
72.130 8.907708
72.135 8.460488
72.140 8.431361
72.145 7.976812
72.150 7.709723
72.155 7.474817
72.160 7.535544
72.165 7.890285
72.170 7.654715
72.175 7.773905
72.180 7.432365
72.185 7.275463
72.190 7.350283
72.195 6.892339
72.200 6.601358
72.205 6.685491
72.210 6.694444
72.215 6.788156
72.220 6.630067
72.225 7.051115
72.230 7.505333
72.235 7.616592
72.240 7.406074
72.245 7.559669
72.250 7.707574
72.255 7.880229
72.260 8.042402
72.265 7.770158
72.270 7.976198
72.275 8.318626
72.280 8.573985
72.285 8.619025
72.290 8.534325
72.295 8.489435
72.300 8.626502
72.305 8.645829
72.310 8.638412
72.315 8.359907
72.320 8.378513
72.325 8.239954
72.330 8.329583
72.335 8.794382
72.340 9.181475
72.345 9.544868
72.350 9.648047
72.355 10.087627
72.360 9.885998
72.365 9.649791
72.370 8.924456
72.375 8.203349
72.380 7.814179
72.385 7.623109
72.390 7.53498
72.395 7.576524
72.400 7.453943
72.405 7.713178
72.410 7.903773
72.415 7.917706
72.420 7.857826
72.425 7.819365
72.430 8.077931
72.435 8.226461
72.440 7.889208
72.445 7.968148
72.450 8.201152
72.455 8.327779
72.460 7.723778
72.465 7.336473
72.470 7.438749
72.475 7.563872
72.480 7.427081
72.485 7.183394
72.490 7.414996
72.495 7.545825
72.500 7.40367
72.505 7.164318
72.510 7.294524
72.515 7.461298
72.520 7.413176
72.525 7.461581
72.530 7.82433
72.535 7.757147
72.540 7.937233
72.545 8.086083
72.550 8.41756
72.555 8.523025
72.560 8.357752
72.565 8.438849
72.570 8.589414
72.575 8.552035
72.580 8.353788
72.585 7.871744
72.590 7.962104
72.595 7.864887
72.600 7.635996
72.605 7.749956
72.610 7.550169
72.615 7.402093
72.620 7.39586
72.625 7.582437
72.630 7.801517
72.635 7.825563
72.640 7.554122
72.645 7.733627
72.650 7.988438
72.655 7.690247
72.660 7.794861
72.665 8.146516
72.670 8.71339
72.675 8.771491
72.680 8.951753
72.685 8.699308
72.690 8.757643
72.695 8.424658
72.700 8.150362
72.705 8.183246
72.710 8.219512
72.715 8.421922
72.720 8.73035
72.725 8.877363
72.730 8.8532
72.735 8.998726
72.740 9.080921
72.745 8.987656
72.750 8.701188
72.755 8.588017
72.760 8.605484
72.765 8.813791
72.770 8.526324
72.775 8.350096
72.780 8.737226
72.785 8.795511
72.790 8.496792
72.795 8.213467
72.800 7.665285
72.805 7.456186
72.810 7.037833
72.815 6.986052
72.820 7.004149
72.825 7.101175
72.830 7.162062
72.835 7.33223
72.840 7.495114
72.845 7.438341
72.850 7.143963
72.855 6.90657
72.860 6.92496
72.865 6.948567
72.870 7.220579
72.875 7.41573
72.880 7.516432
72.885 7.206686
72.890 7.360823
72.895 7.591291
72.900 7.532412
72.905 7.266453
72.910 7.716197
72.915 7.925884
72.920 8.243134
72.925 8.160116
72.930 7.955148
72.935 7.852229
72.940 7.612529
72.945 7.297463
72.950 7.066689
72.955 6.876167
72.960 7.513028
72.965 7.503926
72.970 7.686728
72.975 7.686227
72.980 7.724932
72.985 7.838725
72.990 7.87858
72.995 7.729607
73.000 7.743814
