!@!!GADDS PLOTSO FILE: Chi integration type
!@!!Title/SampleName: map-132
!@!!Comment: ?
!@!!User: Bruker Instrument Administrator
!@!!Site: University of Illinois Chicago
!@!!Frame: map-132_01_000.gfrm
!@!!Wavelengths    1.54184   1.54056   1.54439
!@!!Frame angles: 2Theta: 63.000 Omega: 50.000 Phi: 0.000 Chi: 90.000
!@!!Integration range: 2Theta: 53.000 to 73.000  Gamma: -105.000 to -75.000
!@!!Integration method: bin normalized
!@!N
!@!SS
!@!M
!@!L 0.0 0.0 0.0 0.0
!@!XDegrees
!@!YCounts
53.000 4.495592
53.005 4.184499
53.010 4.047
53.015 3.982454
53.020 4.081361
53.025 4.176816
53.030 4.668734
53.035 4.905735
53.040 5.032839
53.045 4.9686
53.050 4.977548
53.055 4.901684
53.060 4.885998
53.065 4.460512
53.070 4.222188
53.075 4.217577
53.080 4.112031
53.085 4.073789
53.090 3.838202
53.095 3.830026
53.100 3.673543
53.105 3.418621
53.110 3.433782
53.115 3.644068
53.120 3.798494
53.125 4.007906
53.130 4.307362
53.135 4.980444
53.140 4.934192
53.145 4.790419
53.150 4.887684
53.155 4.855048
53.160 4.704527
53.165 4.370509
53.170 4.303051
53.175 4.403154
53.180 4.513358
53.185 4.497469
53.190 4.763475
53.195 4.863086
53.200 4.881507
53.205 5.088504
53.210 5.368452
53.215 5.301464
53.220 4.973026
53.225 4.651627
53.230 4.747874
53.235 4.532946
53.240 4.301744
53.245 4.246707
53.250 4.763737
53.255 5.01887
53.260 4.793013
53.265 4.682343
53.270 4.94272
53.275 5.188509
53.280 5.32815
53.285 4.898899
53.290 4.694117
53.295 5.216931
53.300 5.532985
53.305 5.169408
53.310 4.801352
53.315 4.654471
53.320 4.910352
53.325 4.843431
53.330 4.39677
53.335 4.476842
53.340 4.524855
53.345 4.472705
53.350 4.550127
53.355 4.668478
53.360 4.844363
53.365 4.709232
53.370 4.915866
53.375 5.20824
53.380 5.434735
53.385 5.449543
53.390 5.225281
53.395 5.378938
53.400 5.375003
53.405 5.277927
53.410 5.396918
53.415 5.242882
53.420 5.110131
53.425 5.266727
53.430 5.261792
53.435 5.641647
53.440 5.505152
53.445 5.442431
53.450 5.393423
53.455 5.416934
53.460 5.201465
53.465 5.208512
53.470 5.135483
53.475 5.304356
53.480 5.395799
53.485 5.537434
53.490 5.714249
53.495 5.702231
53.500 5.383396
53.505 5.448124
53.510 5.118792
53.515 4.884692
53.520 4.589685
53.525 4.473345
53.530 4.497314
53.535 4.510228
53.540 4.445407
53.545 4.583721
53.550 5.036066
53.555 5.143195
53.560 5.279482
53.565 5.463825
53.570 5.798479
53.575 5.628144
53.580 5.434472
53.585 5.145949
53.590 5.187815
53.595 5.032002
53.600 4.575358
53.605 4.415044
53.610 4.486887
53.615 4.364444
53.620 4.26303
53.625 4.13436
53.630 4.349368
53.635 4.800823
53.640 4.895808
53.645 5.081055
53.650 5.138161
53.655 5.46058
53.660 5.395011
53.665 5.256921
53.670 5.055149
53.675 5.11869
53.680 5.249009
53.685 5.493584
53.690 5.635139
53.695 5.967728
53.700 6.015174
53.705 6.218881
53.710 6.049505
53.715 5.905035
53.720 6.256234
53.725 6.108568
53.730 6.136426
53.735 6.140446
53.740 6.030921
53.745 6.322094
53.750 6.090868
53.755 5.640076
53.760 5.93268
53.765 5.959985
53.770 5.858261
53.775 5.883684
53.780 5.92008
53.785 6.257421
53.790 6.118823
53.795 5.921774
53.800 5.536448
53.805 5.228869
53.810 4.990935
53.815 4.708779
53.820 4.387691
53.825 4.268575
53.830 3.920633
53.835 4.285352
53.840 4.518947
53.845 4.629699
53.850 4.838847
53.855 5.104932
53.860 5.305036
53.865 5.670481
53.870 5.659219
53.875 5.272185
53.880 5.273973
53.885 5.205468
53.890 5.201425
53.895 5.143965
53.900 4.633388
53.905 4.623422
53.910 4.663972
53.915 4.535935
53.920 4.543961
53.925 4.628414
53.930 5.070204
53.935 4.954835
53.940 5.172074
53.945 5.275611
53.950 5.393254
53.955 5.328329
53.960 5.466853
53.965 5.262336
53.970 5.627943
53.975 5.468413
53.980 5.42293
53.985 5.429481
53.990 5.431004
53.995 5.482656
54.000 5.727718
54.005 5.544527
54.010 5.860704
54.015 5.94783
54.020 5.811432
54.025 5.631899
54.030 5.445702
54.035 5.571323
54.040 5.576125
54.045 5.773997
54.050 5.833375
54.055 5.894959
54.060 5.902789
54.065 5.433334
54.070 5.322677
54.075 5.192589
54.080 4.819744
54.085 4.718925
54.090 4.870268
54.095 4.886636
54.100 4.969759
54.105 5.076155
54.110 5.097425
54.115 5.382171
54.120 5.582369
54.125 5.549235
54.130 5.794985
54.135 5.707601
54.140 5.398944
54.145 5.090449
54.150 4.843106
54.155 4.635137
54.160 4.15994
54.165 4.54149
54.170 4.647175
54.175 4.826239
54.180 5.11632
54.185 5.536963
54.190 5.671996
54.195 5.480164
54.200 5.204329
54.205 5.302382
54.210 5.135396
54.215 4.858329
54.220 4.40516
54.225 4.392511
54.230 4.807214
54.235 5.097704
54.240 5.311151
54.245 5.678525
54.250 5.789844
54.255 6.023851
54.260 6.057346
54.265 5.576843
54.270 5.454748
54.275 5.194008
54.280 4.841849
54.285 4.795333
54.290 4.671248
54.295 4.762157
54.300 4.652851
54.305 4.135531
54.310 4.372805
54.315 4.393196
54.320 4.543758
54.325 4.586109
54.330 4.783998
54.335 5.220965
54.340 5.640974
54.345 5.589885
54.350 6.102291
54.355 6.031205
54.360 6.281464
54.365 6.114406
54.370 6.294393
54.375 6.424651
54.380 6.305408
54.385 5.674478
54.390 5.817275
54.395 5.927808
54.400 5.954199
54.405 5.71666
54.410 5.500289
54.415 5.942609
54.420 6.207045
54.425 5.878614
54.430 5.528749
54.435 5.520438
54.440 5.658731
54.445 5.538607
54.450 5.368938
54.455 5.77861
54.460 6.107013
54.465 6.7507
54.470 7.222898
54.475 7.506937
54.480 7.973875
54.485 7.767915
54.490 7.543604
54.495 7.532265
54.500 7.162154
54.505 6.904164
54.510 6.661305
54.515 6.413161
54.520 6.372093
54.525 6.603076
54.530 6.322982
54.535 6.058289
54.540 5.985265
54.545 5.872684
54.550 5.997423
54.555 5.62599
54.560 5.697036
54.565 6.120714
54.570 6.169846
54.575 5.945936
54.580 5.899518
54.585 6.017778
54.590 6.195377
54.595 6.004344
54.600 5.612598
54.605 5.63592
54.610 5.527865
54.615 5.305439
54.620 5.20365
54.625 4.905779
54.630 4.691356
54.635 4.63562
54.640 4.66325
54.645 4.992413
54.650 4.922626
54.655 5.0931
54.660 5.059703
54.665 5.12151
54.670 5.21975
54.675 5.34628
54.680 5.476858
54.685 5.334383
54.690 5.541525
54.695 5.791229
54.700 5.93908
54.705 6.180824
54.710 6.533296
54.715 6.693782
54.720 7.298898
54.725 7.268877
54.730 7.291684
54.735 7.377214
54.740 7.069049
54.745 6.83665
54.750 6.608873
54.755 6.394448
54.760 6.431284
54.765 6.218209
54.770 6.058506
54.775 6.196815
54.780 6.196206
54.785 6.032342
54.790 5.853128
54.795 5.739168
54.800 5.826868
54.805 5.74737
54.810 5.817451
54.815 5.775529
54.820 6.014886
54.825 6.35205
54.830 6.576581
54.835 6.61926
54.840 6.747237
54.845 6.271149
54.850 6.628209
54.855 6.561053
54.860 6.56142
54.865 6.548203
54.870 6.739608
54.875 6.45294
54.880 6.64678
54.885 6.302629
54.890 6.320944
54.895 6.17725
54.900 6.119614
54.905 6.090763
54.910 6.370309
54.915 6.004744
54.920 6.0214
54.925 6.134547
54.930 6.072157
54.935 5.924798
54.940 5.906429
54.945 5.837858
54.950 6.235583
54.955 6.094604
54.960 5.89199
54.965 6.133604
54.970 6.276026
54.975 6.217247
54.980 6.150959
54.985 5.977029
54.990 6.15249
54.995 6.067468
55.000 5.829284
55.005 6.022731
55.010 6.333264
55.015 6.109907
55.020 6.041633
55.025 5.656813
55.030 5.864114
55.035 6.033191
55.040 5.734375
55.045 5.5224
55.050 5.775866
55.055 5.794641
55.060 5.741987
55.065 5.691519
55.070 5.451666
55.075 5.426356
55.080 5.641479
55.085 5.908833
55.090 5.780897
55.095 5.988746
55.100 6.183945
55.105 6.387493
55.110 6.238202
55.115 5.786369
55.120 5.694883
55.125 5.949647
55.130 6.07302
55.135 6.357453
55.140 6.254029
55.145 6.482557
55.150 6.728066
55.155 6.905608
55.160 7.027268
55.165 6.768136
55.170 6.552744
55.175 6.788262
55.180 6.992753
55.185 7.096149
55.190 6.922771
55.195 6.578959
55.200 6.35553
55.205 6.523081
55.210 6.588522
55.215 6.751259
55.220 7.086949
55.225 7.406463
55.230 7.613647
55.235 8.311329
55.240 8.134481
55.245 7.911107
55.250 7.761808
55.255 7.095582
55.260 6.8548
55.265 6.604638
55.270 6.033609
55.275 6.137769
55.280 6.159351
55.285 6.062718
55.290 6.499148
55.295 6.681271
55.300 6.840117
55.305 6.615759
55.310 6.73263
55.315 6.792457
55.320 6.740766
55.325 6.640346
55.330 6.6016
55.335 6.570789
55.340 6.540339
55.345 6.335704
55.350 6.005391
55.355 6.041256
55.360 6.282891
55.365 6.094345
55.370 6.200014
55.375 6.192131
55.380 6.424307
55.385 6.670693
55.390 6.381084
55.395 6.555314
55.400 6.463247
55.405 6.506354
55.410 6.517504
55.415 6.342334
55.420 6.38643
55.425 6.254709
55.430 5.536304
55.435 5.476298
55.440 5.40921
55.445 5.454439
55.450 5.376003
55.455 5.379033
55.460 5.611837
55.465 6.116752
55.470 6.133882
55.475 6.176149
55.480 5.928893
55.485 6.024561
55.490 6.529661
55.495 6.841918
55.500 7.19394
55.505 7.421974
55.510 7.728951
55.515 8.08726
55.520 8.064489
55.525 7.356069
55.530 6.796395
55.535 6.440461
55.540 6.460604
55.545 6.283238
55.550 6.20464
55.555 6.486472
55.560 7.229685
55.565 7.529139
55.570 7.60376
55.575 7.622536
55.580 7.879763
55.585 7.627232
55.590 7.038972
55.595 6.707787
55.600 6.778322
55.605 7.207476
55.610 7.330063
55.615 6.935078
55.620 7.285176
55.625 7.502475
55.630 7.269638
55.635 6.96508
55.640 6.4731
55.645 6.703954
55.650 7.108556
55.655 6.790982
55.660 6.714326
55.665 7.049424
55.670 7.345098
55.675 6.914116
55.680 6.41996
55.685 6.322025
55.690 6.24327
55.695 6.460821
55.700 6.405877
55.705 6.346105
55.710 6.749603
55.715 6.796004
55.720 6.934398
55.725 7.082369
55.730 7.136332
55.735 7.144168
55.740 7.011401
55.745 7.289579
55.750 7.415914
55.755 7.202562
55.760 6.974751
55.765 6.745202
55.770 6.812676
55.775 6.771693
55.780 6.397687
55.785 6.362387
55.790 6.34455
55.795 6.375281
55.800 6.43045
55.805 6.359768
55.810 6.538513
55.815 6.548937
55.820 6.455868
55.825 6.942104
55.830 7.135213
55.835 7.416026
55.840 7.522347
55.845 7.612942
55.850 7.546888
55.855 8.048429
55.860 8.151764
55.865 8.235708
55.870 7.994061
55.875 7.728624
55.880 7.287673
55.885 7.298638
55.890 7.165438
55.895 6.838438
55.900 6.860565
55.905 6.728821
55.910 7.16589
55.915 7.482026
55.920 7.403051
55.925 7.108654
55.930 7.136492
55.935 7.206048
55.940 7.452795
55.945 7.477773
55.950 7.418888
55.955 7.525516
55.960 7.797217
55.965 8.232855
55.970 8.148526
55.975 7.998826
55.980 7.793985
55.985 7.709191
55.990 7.474179
55.995 7.466686
56.000 7.115352
56.005 6.992646
56.010 6.715451
56.015 6.758234
56.020 6.941019
56.025 6.694814
56.030 6.334799
56.035 6.329063
56.040 6.33408
56.045 6.397551
56.050 6.076622
56.055 6.302407
56.060 6.521628
56.065 6.601298
56.070 6.785765
56.075 6.666486
56.080 7.016644
56.085 7.178648
56.090 6.968281
56.095 7.061255
56.100 6.659149
56.105 6.210383
56.110 6.554886
56.115 6.539469
56.120 6.570632
56.125 6.391148
56.130 6.299364
56.135 6.873755
56.140 7.165651
56.145 7.118093
56.150 7.156978
56.155 7.32721
56.160 7.794272
56.165 8.119409
56.170 7.921891
56.175 7.543531
56.180 7.560992
56.185 7.761701
56.190 8.293597
56.195 8.246627
56.200 8.112844
56.205 8.085452
56.210 8.506317
56.215 8.557808
56.220 8.349095
56.225 7.95449
56.230 8.076404
56.235 8.400199
56.240 8.464951
56.245 8.836024
56.250 8.991861
56.255 9.029243
56.260 8.740355
56.265 8.120473
56.270 8.12517
56.275 8.275146
56.280 7.47963
56.285 7.141045
56.290 7.127795
56.295 7.38294
56.300 7.551235
56.305 7.363573
56.310 7.326112
56.315 7.513475
56.320 7.385941
56.325 7.328845
56.330 7.03327
56.335 6.791644
56.340 6.688913
56.345 6.830208
56.350 6.820627
56.355 6.882783
56.360 7.078985
56.365 7.468123
56.370 7.494501
56.375 7.792192
56.380 7.600107
56.385 8.068104
56.390 7.963882
56.395 7.605103
56.400 7.580677
56.405 7.492892
56.410 7.288617
56.415 7.390325
56.420 7.491651
56.425 7.582716
56.430 8.072628
56.435 8.319976
56.440 8.38098
56.445 8.138309
56.450 7.936152
56.455 7.649533
56.460 7.929052
56.465 7.861028
56.470 7.896126
56.475 7.834186
56.480 8.324871
56.485 9.026461
56.490 9.255246
56.495 9.102365
56.500 8.71506
56.505 8.839256
56.510 8.778076
56.515 8.256349
56.520 7.937112
56.525 7.743334
56.530 7.55723
56.535 7.607907
56.540 7.218379
56.545 7.270631
56.550 7.444284
56.555 7.450625
56.560 7.544092
56.565 7.7864
56.570 7.842872
56.575 8.160791
56.580 8.28084
56.585 8.107811
56.590 8.368903
56.595 8.851976
56.600 8.866918
56.605 8.895872
56.610 8.733099
56.615 8.848872
56.620 8.618539
56.625 8.084962
56.630 7.355111
56.635 7.382246
56.640 7.275263
56.645 7.396514
56.650 7.428562
56.655 7.356463
56.660 7.6216
56.665 7.587886
56.670 7.35921
56.675 7.467879
56.680 7.347782
56.685 7.659913
56.690 7.971685
56.695 7.965724
56.700 7.888776
56.705 8.292923
56.710 8.593263
56.715 8.475044
56.720 8.333122
56.725 8.328929
56.730 8.651376
56.735 9.463455
56.740 9.209431
56.745 9.200843
56.750 9.298506
56.755 9.115746
56.760 8.83763
56.765 8.2129
56.770 7.779442
56.775 7.659429
56.780 7.57217
56.785 7.813435
56.790 8.162658
56.795 8.353783
56.800 8.866232
56.805 9.050244
56.810 8.728855
56.815 8.273886
56.820 7.805574
56.825 7.518516
56.830 7.2706
56.835 7.523017
56.840 7.799942
56.845 8.125308
56.850 8.565768
56.855 8.471157
56.860 8.436472
56.865 8.465784
56.870 8.263722
56.875 7.94547
56.880 8.460165
56.885 8.958511
56.890 8.91971
56.895 8.992704
56.900 8.649184
56.905 8.60818
56.910 8.53039
56.915 7.9126
56.920 7.353706
56.925 7.5455
56.930 7.832787
56.935 8.359513
56.940 8.423995
56.945 8.747031
56.950 8.656811
56.955 8.72715
56.960 8.652649
56.965 8.301031
56.970 7.484968
56.975 7.103809
56.980 6.85393
56.985 6.846295
56.990 7.055805
56.995 7.131953
57.000 7.312984
57.005 7.875806
57.010 8.042672
57.015 8.291717
57.020 8.485905
57.025 8.782675
57.030 8.854963
57.035 9.05034
57.040 8.787129
57.045 8.965695
57.050 9.236282
57.055 9.091967
57.060 8.75334
57.065 8.376124
57.070 7.995645
57.075 8.236564
57.080 8.064396
57.085 7.626419
57.090 7.62292
57.095 7.789671
57.100 8.41268
57.105 8.377165
57.110 8.176435
57.115 8.278994
57.120 8.529801
57.125 8.391088
57.130 8.290263
57.135 8.166691
57.140 8.491458
57.145 8.431491
57.150 8.159102
57.155 8.261376
57.160 8.452474
57.165 8.407115
57.170 8.414303
57.175 8.647763
57.180 8.790092
57.185 9.162946
57.190 9.126336
57.195 8.578956
57.200 8.408224
57.205 8.127059
57.210 7.654562
57.215 7.50932
57.220 7.229514
57.225 7.246765
57.230 7.902742
57.235 7.885131
57.240 7.830224
57.245 7.966069
57.250 8.228518
57.255 8.249725
57.260 7.98013
57.265 7.823191
57.270 7.965266
57.275 7.950178
57.280 7.899536
57.285 7.887633
57.290 8.140624
57.295 8.409293
57.300 8.306002
57.305 8.545924
57.310 8.710458
57.315 9.189569
57.320 8.887211
57.325 8.721085
57.330 8.792783
57.335 8.856609
57.340 8.53203
57.345 8.473785
57.350 8.346142
57.355 8.235045
57.360 8.62085
57.365 8.522714
57.370 8.445475
57.375 8.600611
57.380 8.708564
57.385 8.727418
57.390 8.899339
57.395 8.688555
57.400 8.455591
57.405 8.5517
57.410 8.400245
57.415 8.454841
57.420 8.225663
57.425 8.263324
57.430 8.20354
57.435 8.356439
57.440 7.924519
57.445 7.933543
57.450 8.037662
57.455 8.49065
57.460 8.372064
57.465 8.254488
57.470 8.423932
57.475 8.808688
57.480 8.802036
57.485 8.711733
57.490 8.826587
57.495 9.007176
57.500 9.495865
57.505 9.339211
57.510 9.499342
57.515 9.894879
57.520 9.825895
57.525 9.389065
57.530 9.111207
57.535 9.006536
57.540 9.145991
57.545 9.053647
57.550 8.953547
57.555 9.138608
57.560 9.301188
57.565 9.626364
57.570 9.583385
57.575 9.706317
57.580 9.636774
57.585 9.83932
57.590 9.860653
57.595 9.953828
57.600 9.706051
57.605 9.718228
57.610 9.6444
57.615 9.458263
57.620 8.712598
57.625 8.458291
57.630 8.338543
57.635 8.326972
57.640 8.5961
57.645 9.036464
57.650 9.535622
57.655 9.911001
57.660 10.063437
57.665 9.834506
57.670 9.718694
57.675 9.558289
57.680 9.58195
57.685 9.550385
57.690 9.660151
57.695 9.693504
57.700 10.015594
57.705 10.217283
57.710 10.115849
57.715 9.822664
57.720 9.62171
57.725 9.437251
57.730 9.319426
57.735 9.510714
57.740 9.141332
57.745 9.421042
57.750 9.333034
57.755 9.43675
57.760 9.677795
57.765 9.820343
57.770 10.002072
57.775 10.04427
57.780 9.827852
57.785 9.906675
57.790 9.783297
57.795 9.52623
57.800 9.31408
57.805 9.333925
57.810 9.499886
57.815 9.548428
57.820 9.621644
57.825 10.147758
57.830 10.083239
57.835 9.372461
57.840 9.545112
57.845 9.496445
57.850 9.438701
57.855 9.314122
57.860 9.104378
57.865 9.187412
57.870 9.941783
57.875 9.500238
57.880 9.668762
57.885 9.649132
57.890 9.930278
57.895 9.590848
57.900 9.763881
57.905 9.347556
57.910 9.276189
57.915 8.867934
57.920 8.624785
57.925 8.514322
57.930 9.110425
57.935 9.633827
57.940 9.856853
57.945 9.922944
57.950 10.582216
57.955 10.470798
57.960 10.08287
57.965 9.766685
57.970 9.570133
57.975 10.207006
57.980 10.450239
57.985 10.604419
57.990 10.663288
57.995 10.873783
58.000 11.154764
58.005 11.050997
58.010 10.595311
58.015 10.259403
58.020 10.108616
58.025 10.424184
58.030 10.192009
58.035 9.957171
58.040 10.032736
58.045 10.266224
58.050 10.385272
58.055 10.129558
58.060 10.448471
58.065 10.657585
58.070 10.592207
58.075 10.498156
58.080 10.519119
58.085 10.175767
58.090 10.257638
58.095 10.038654
58.100 9.958445
58.105 9.978602
58.110 10.147224
58.115 10.016273
58.120 10.500717
58.125 10.854856
58.130 10.872307
58.135 10.719339
58.140 10.591982
58.145 10.434317
58.150 10.481099
58.155 10.027117
58.160 9.496778
58.165 9.43081
58.170 9.822987
58.175 10.190761
58.180 10.009715
58.185 9.771293
58.190 9.911531
58.195 10.328719
58.200 10.466331
58.205 9.908657
58.210 9.676575
58.215 9.915864
58.220 10.371244
58.225 10.620297
58.230 10.679445
58.235 10.630998
58.240 10.498773
58.245 10.487247
58.250 10.263024
58.255 10.261732
58.260 10.174741
58.265 9.922682
58.270 10.435954
58.275 10.577907
58.280 10.626316
58.285 10.781375
58.290 10.571634
58.295 10.274235
58.300 10.254329
58.305 9.976314
58.310 10.238191
58.315 9.844178
58.320 9.830335
58.325 10.224751
58.330 10.50793
58.335 10.985933
58.340 11.349899
58.345 11.801181
58.350 12.272547
58.355 12.647292
58.360 12.917336
58.365 12.76839
58.370 12.442341
58.375 12.745723
58.380 12.899246
58.385 13.121972
58.390 12.62881
58.395 12.860275
58.400 13.583982
58.405 13.740839
58.410 13.899751
58.415 13.456546
58.420 13.470141
58.425 14.30395
58.430 14.082541
58.435 13.609218
58.440 13.499871
58.445 13.253726
58.450 13.887897
58.455 14.01932
58.460 13.905376
58.465 14.049148
58.470 13.764427
58.475 13.71082
58.480 13.674399
58.485 14.095045
58.490 14.469872
58.495 14.784207
58.500 15.118353
58.505 15.907002
58.510 16.467728
58.515 16.946362
58.520 16.908457
58.525 17.053301
58.530 17.006418
58.535 17.032516
58.540 17.462196
58.545 17.391665
58.550 16.929756
58.555 16.639553
58.560 16.977888
58.565 17.393976
58.570 18.108276
58.575 17.470919
58.580 17.366306
58.585 18.201309
58.590 19.463568
58.595 19.697735
58.600 19.791351
58.605 20.1231
58.610 20.944345
58.615 20.862709
58.620 20.151495
58.625 19.451633
58.630 19.490618
58.635 19.30864
58.640 19.114893
58.645 19.095163
58.650 19.33511
58.655 19.877625
58.660 19.94022
58.665 19.830153
58.670 20.233776
58.675 20.748938
58.680 21.206179
58.685 21.116215
58.690 21.064848
58.695 21.935062
58.700 21.952311
58.705 21.955431
58.710 21.923656
58.715 21.524994
58.720 22.073227
58.725 22.059416
58.730 21.577282
58.735 21.570454
58.740 21.782839
58.745 21.569891
58.750 21.314304
58.755 20.462627
58.760 20.303825
58.765 20.253986
58.770 20.154558
58.775 19.554705
58.780 19.046484
58.785 18.957748
58.790 19.51548
58.795 19.533775
58.800 19.423012
58.805 19.767605
58.810 19.312737
58.815 19.427784
58.820 19.56007
58.825 19.172115
58.830 18.7976
58.835 18.552896
58.840 18.111229
58.845 18.478224
58.850 18.727709
58.855 19.049898
58.860 19.395802
58.865 20.274149
58.870 21.105362
58.875 21.542145
58.880 20.919884
58.885 20.594889
58.890 20.581551
58.895 19.505177
58.900 18.068262
58.905 16.78215
58.910 16.13196
58.915 15.925268
58.920 14.926023
58.925 14.418976
58.930 14.496938
58.935 14.453854
58.940 14.677321
58.945 14.506024
58.950 14.375396
58.955 14.647026
58.960 14.998567
58.965 15.464799
58.970 15.103836
58.975 14.72228
58.980 14.945615
58.985 14.505101
58.990 13.997351
58.995 13.34799
59.000 12.735504
59.005 12.247869
59.010 11.519785
59.015 11.125709
59.020 11.332055
59.025 11.733586
59.030 11.849007
59.035 11.839888
59.040 12.417052
59.045 12.993217
59.050 13.104022
59.055 12.805001
59.060 12.697647
59.065 12.431917
59.070 12.525784
59.075 12.63703
59.080 12.609677
59.085 12.623343
59.090 12.70724
59.095 12.533403
59.100 12.72076
59.105 12.368451
59.110 11.528595
59.115 10.729035
59.120 10.638795
59.125 10.727508
59.130 10.515504
59.135 10.752299
59.140 10.872723
59.145 10.995386
59.150 11.32326
59.155 11.289051
59.160 11.475289
59.165 11.160501
59.170 10.749076
59.175 10.936887
59.180 11.600416
59.185 11.728986
59.190 11.932075
59.195 12.175301
59.200 12.336374
59.205 12.064064
59.210 11.447116
59.215 11.466089
59.220 11.24524
59.225 10.812562
59.230 10.489944
59.235 10.831931
59.240 11.270902
59.245 11.316854
59.250 10.611472
59.255 10.487541
59.260 10.451807
59.265 10.595442
59.270 10.819312
59.275 10.78915
59.280 11.000546
59.285 11.283139
59.290 11.639965
59.295 11.80832
59.300 11.258155
59.305 10.653826
59.310 10.30744
59.315 10.112354
59.320 9.771532
59.325 9.4769
59.330 9.871943
59.335 10.477558
59.340 11.006362
59.345 11.290869
59.350 11.187195
59.355 11.931003
59.360 11.723644
59.365 11.260914
59.370 11.041715
59.375 10.784848
59.380 10.59806
59.385 10.746284
59.390 10.311826
59.395 10.34968
59.400 10.489935
59.405 10.120236
59.410 10.253817
59.415 10.421266
59.420 10.098999
59.425 9.810574
59.430 9.891378
59.435 10.0921
59.440 10.655272
59.445 10.503127
59.450 10.883983
59.455 11.08672
59.460 11.33503
59.465 11.121413
59.470 11.065845
59.475 10.945926
59.480 10.691006
59.485 10.43949
59.490 10.7342
59.495 11.03665
59.500 11.351183
59.505 10.94246
59.510 10.874759
59.515 11.015654
59.520 11.002747
59.525 10.872698
59.530 10.501787
59.535 10.489698
59.540 10.36154
59.545 10.337166
59.550 10.712139
59.555 10.874991
59.560 10.405659
59.565 10.277438
59.570 9.582854
59.575 9.664048
59.580 9.682479
59.585 9.356407
59.590 8.970571
59.595 9.243259
59.600 9.7286
59.605 10.195818
59.610 9.962609
59.615 9.819399
59.620 10.248987
59.625 10.652703
59.630 10.507263
59.635 10.292096
59.640 10.343123
59.645 10.334232
59.650 10.143191
59.655 9.714462
59.660 9.380004
59.665 9.457163
59.670 9.6564
59.675 9.816835
59.680 9.834081
59.685 10.074947
59.690 9.9481
59.695 10.190653
59.700 10.773575
59.705 11.225114
59.710 11.431051
59.715 12.096857
59.720 12.259713
59.725 13.067014
59.730 13.342975
59.735 12.928823
59.740 12.758632
59.745 12.612054
59.750 12.320218
59.755 12.112222
59.760 11.327648
59.765 11.043766
59.770 10.876676
59.775 10.740616
59.780 11.119826
59.785 10.949367
59.790 10.901856
59.795 10.898624
59.800 10.570527
59.805 10.209741
59.810 10.153389
59.815 10.263886
59.820 10.136898
59.825 10.189455
59.830 10.191627
59.835 10.364257
59.840 10.256187
59.845 9.973544
59.850 9.672791
59.855 9.37068
59.860 9.074678
59.865 9.674149
59.870 9.475348
59.875 9.645378
59.880 10.148347
59.885 10.662049
59.890 11.22622
59.895 11.524634
59.900 11.119959
59.905 11.362125
59.910 11.533988
59.915 10.616144
59.920 10.609843
59.925 10.994206
59.930 11.258894
59.935 11.644712
59.940 11.766505
59.945 11.524571
59.950 11.505801
59.955 11.234018
59.960 10.837584
59.965 10.356567
59.970 10.084993
59.975 9.932521
59.980 9.953915
59.985 10.094419
59.990 10.06706
59.995 9.626471
60.000 9.803555
60.005 9.936656
60.010 10.624529
60.015 11.116879
60.020 11.42188
60.025 11.113061
60.030 11.205681
60.035 11.192326
60.040 10.972234
60.045 10.968735
60.050 10.872359
60.055 10.706629
60.060 11.016892
60.065 11.293015
60.070 11.368703
60.075 11.36312
60.080 11.307111
60.085 11.052662
60.090 10.84448
60.095 11.019241
60.100 10.833936
60.105 10.709023
60.110 10.609899
60.115 10.423838
60.120 10.674816
60.125 10.553547
60.130 10.355839
60.135 10.166995
60.140 9.85639
60.145 9.767437
60.150 9.613853
60.155 9.658683
60.160 10.474493
60.165 10.947941
60.170 11.148427
60.175 11.039926
60.180 10.810779
60.185 10.733665
60.190 10.336576
60.195 9.471704
60.200 9.44682
60.205 10.253118
60.210 10.703356
60.215 10.666022
60.220 10.737575
60.225 11.521683
60.230 12.168524
60.235 12.004386
60.240 11.317474
60.245 11.07216
60.250 11.244174
60.255 10.909542
60.260 9.835597
60.265 9.731145
60.270 9.663959
60.275 9.870776
60.280 10.041851
60.285 9.896301
60.290 10.198493
60.295 10.903751
60.300 11.066329
60.305 10.706717
60.310 10.420115
60.315 10.751998
60.320 11.027422
60.325 11.111919
60.330 10.440653
60.335 10.234755
60.340 10.920296
60.345 11.11607
60.350 10.975936
60.355 11.097793
60.360 11.134075
60.365 11.671544
60.370 11.459797
60.375 11.029733
60.380 10.803166
60.385 10.660454
60.390 10.494222
60.395 10.826864
60.400 11.142308
60.405 11.933119
60.410 12.253893
60.415 12.323877
60.420 12.117739
60.425 12.567353
60.430 12.300637
60.435 11.713343
60.440 11.387515
60.445 11.524082
60.450 11.427432
60.455 11.774295
60.460 11.509479
60.465 11.631446
60.470 11.578532
60.475 11.432185
60.480 11.650108
60.485 11.959703
60.490 11.473301
60.495 11.227177
60.500 11.020679
60.505 11.019396
60.510 10.794339
60.515 10.539464
60.520 10.37261
60.525 10.716817
60.530 10.86463
60.535 10.579597
60.540 10.358576
60.545 10.349518
60.550 10.33656
60.555 10.540706
60.560 10.868647
60.565 10.717838
60.570 10.599051
60.575 10.944655
60.580 10.730024
60.585 10.593823
60.590 10.601486
60.595 10.627001
60.600 10.600026
60.605 11.173446
60.610 11.018724
60.615 10.882808
60.620 10.814517
60.625 10.478042
60.630 10.53614
60.635 10.576652
60.640 10.351943
60.645 10.756765
60.650 11.307958
60.655 11.302351
60.660 11.453968
60.665 11.2296
60.670 11.193389
60.675 11.382241
60.680 11.516387
60.685 11.504224
60.690 11.292517
60.695 11.182613
60.700 11.031841
60.705 11.112962
60.710 10.734911
60.715 10.078958
60.720 10.321647
60.725 10.399993
60.730 10.544624
60.735 11.099664
60.740 11.566179
60.745 11.698756
60.750 12.038023
60.755 12.145186
60.760 12.593081
60.765 12.414556
60.770 12.049589
60.775 11.846026
60.780 11.763268
60.785 11.626214
60.790 11.184704
60.795 11.363966
60.800 11.470739
60.805 11.42564
60.810 11.680106
60.815 11.831821
60.820 11.861217
60.825 12.026234
60.830 11.464239
60.835 11.459746
60.840 11.616944
60.845 11.175925
60.850 11.453325
60.855 11.735007
60.860 11.369636
60.865 11.496582
60.870 11.800836
60.875 11.646511
60.880 11.669271
60.885 11.422547
60.890 11.409949
60.895 11.699983
60.900 11.907582
60.905 12.040398
60.910 11.957355
60.915 12.057322
60.920 12.015684
60.925 11.662419
60.930 11.577795
60.935 10.928102
60.940 10.217897
60.945 10.353531
60.950 10.549959
60.955 10.572694
60.960 10.324852
60.965 10.189516
60.970 10.686997
60.975 10.935693
60.980 10.837077
60.985 10.642659
60.990 10.690473
60.995 10.886315
61.000 11.103685
61.005 10.809373
61.010 10.940696
61.015 10.807133
61.020 10.992693
61.025 11.468801
61.030 11.510638
61.035 11.460467
61.040 11.64053
61.045 11.618654
61.050 12.003443
61.055 11.474985
61.060 11.191547
61.065 10.954101
61.070 10.730799
61.075 10.406386
61.080 10.084835
61.085 9.746612
61.090 10.1158
61.095 10.190151
61.100 10.403087
61.105 10.788413
61.110 11.190372
61.115 11.651718
61.120 11.699312
61.125 11.490946
61.130 11.389404
61.135 10.922438
61.140 10.381146
61.145 10.093209
61.150 9.828112
61.155 9.822588
61.160 9.651319
61.165 9.450687
61.170 9.708978
61.175 9.858438
61.180 9.77494
61.185 9.658575
61.190 9.7534
61.195 9.958032
61.200 11.109415
61.205 11.579296
61.210 11.984014
61.215 12.380762
61.220 12.790737
61.225 12.761336
61.230 12.655633
61.235 11.750222
61.240 11.350409
61.245 11.742367
61.250 11.818397
61.255 11.577781
61.260 11.767426
61.265 11.844615
61.270 12.214474
61.275 12.227785
61.280 11.744596
61.285 11.595308
61.290 11.548347
61.295 11.286555
61.300 11.215014
61.305 10.810298
61.310 10.698843
61.315 10.723454
61.320 10.756793
61.325 10.597137
61.330 10.488731
61.335 10.398582
61.340 10.779242
61.345 10.701334
61.350 10.543898
61.355 10.785338
61.360 10.963481
61.365 11.724516
61.370 11.857311
61.375 11.627846
61.380 11.891726
61.385 11.899567
61.390 11.781738
61.395 11.821671
61.400 11.210643
61.405 11.047496
61.410 11.343664
61.415 11.173385
61.420 11.167879
61.425 11.618696
61.430 11.850874
61.435 11.99564
61.440 12.215048
61.445 12.147388
61.450 12.459791
61.455 12.420126
61.460 11.716209
61.465 11.622589
61.470 11.760373
61.475 11.6126
61.480 11.453779
61.485 11.404079
61.490 11.633198
61.495 11.964604
61.500 11.567924
61.505 11.545158
61.510 11.98451
61.515 12.252908
61.520 12.00263
61.525 11.681404
61.530 12.076287
61.535 12.564084
61.540 12.567479
61.545 12.39389
61.550 12.443872
61.555 12.709545
61.560 12.918861
61.565 12.560103
61.570 12.809196
61.575 13.407321
61.580 13.837231
61.585 13.717381
61.590 13.554082
61.595 13.2726
61.600 13.847983
61.605 13.490492
61.610 12.677545
61.615 12.070799
61.620 12.062389
61.625 12.086658
61.630 11.969349
61.635 10.913674
61.640 11.287276
61.645 11.312028
61.650 10.955072
61.655 11.010262
61.660 11.219615
61.665 11.378867
61.670 11.545473
61.675 11.071598
61.680 11.24822
61.685 11.379538
61.690 11.089491
61.695 11.146871
61.700 11.581881
61.705 11.798501
61.710 12.128713
61.715 12.179692
61.720 12.245721
61.725 12.652491
61.730 12.868042
61.735 12.716228
61.740 12.373384
61.745 11.980075
61.750 11.473907
61.755 11.748791
61.760 11.572072
61.765 11.021565
61.770 11.543034
61.775 11.891737
61.780 12.238618
61.785 12.235917
61.790 12.077682
61.795 11.789628
61.800 12.282008
61.805 11.725113
61.810 11.904535
61.815 12.101723
61.820 12.738976
61.825 12.954655
61.830 13.144416
61.835 12.683493
61.840 12.76934
61.845 12.699813
61.850 12.554724
61.855 12.524816
61.860 12.86056
61.865 13.000508
61.870 13.194933
61.875 13.339119
61.880 13.430267
61.885 12.91751
61.890 12.128904
61.895 11.673324
61.900 11.980216
61.905 12.293123
61.910 12.222775
61.915 12.037708
61.920 12.262431
61.925 13.166909
61.930 13.060081
61.935 12.935504
61.940 12.647312
61.945 12.416508
61.950 12.706515
61.955 12.779125
61.960 11.86866
61.965 11.585109
61.970 11.083302
61.975 11.054632
61.980 11.004394
61.985 10.764106
61.990 10.738079
61.995 11.255109
62.000 11.671494
62.005 11.956609
62.010 11.839773
62.015 11.580875
62.020 11.447371
62.025 11.694778
62.030 11.745512
62.035 11.854009
62.040 11.839238
62.045 11.797019
62.050 12.16179
62.055 12.143248
62.060 11.783261
62.065 11.552855
62.070 11.177473
62.075 11.124137
62.080 11.217439
62.085 11.219913
62.090 11.508745
62.095 11.754536
62.100 12.074774
62.105 12.427092
62.110 12.66207
62.115 12.584958
62.120 12.504807
62.125 12.277185
62.130 12.312659
62.135 12.429973
62.140 12.353519
62.145 12.133645
62.150 12.277212
62.155 12.331558
62.160 12.659025
62.165 13.001087
62.170 12.853289
62.175 13.343006
62.180 13.264854
62.185 12.875031
62.190 12.49556
62.195 11.855306
62.200 11.19445
62.205 11.020704
62.210 10.558263
62.215 10.85027
62.220 11.282693
62.225 11.819774
62.230 12.302531
62.235 12.57796
62.240 12.622085
62.245 12.219137
62.250 11.699944
62.255 11.356125
62.260 10.871455
62.265 11.023577
62.270 10.598824
62.275 10.500419
62.280 11.015281
62.285 11.483847
62.290 11.468996
62.295 11.694178
62.300 10.980629
62.305 11.20828
62.310 11.600718
62.315 11.366393
62.320 11.066262
62.325 11.021154
62.330 10.743149
62.335 10.773546
62.340 10.833222
62.345 10.499374
62.350 10.808452
62.355 11.175048
62.360 11.547888
62.365 12.036287
62.370 12.213805
62.375 11.803074
62.380 11.817549
62.385 11.456317
62.390 11.527622
62.395 11.397196
62.400 11.199038
62.405 11.588916
62.410 12.229303
62.415 12.044564
62.420 12.227422
62.425 12.083292
62.430 11.896781
62.435 12.362514
62.440 11.979731
62.445 11.752057
62.450 12.432266
62.455 12.582249
62.460 12.70527
62.465 12.888547
62.470 12.806369
62.475 13.355913
62.480 13.522935
62.485 13.213078
62.490 13.036898
62.495 13.041278
62.500 12.93879
62.505 12.841715
62.510 12.542525
62.515 12.320425
62.520 11.999671
62.525 12.086087
62.530 11.936276
62.535 11.97917
62.540 11.538442
62.545 11.455326
62.550 11.598128
62.555 11.802629
62.560 11.974536
62.565 12.433778
62.570 12.615432
62.575 12.912809
62.580 13.064527
62.585 13.351064
62.590 13.497746
62.595 13.095414
62.600 12.589123
62.605 12.550427
62.610 12.601114
62.615 12.144291
62.620 11.917849
62.625 11.758487
62.630 11.801615
62.635 11.613333
62.640 11.80277
62.645 11.775964
62.650 12.282394
62.655 12.147693
62.660 11.97271
62.665 12.228397
62.670 12.409802
62.675 12.793303
62.680 12.920245
62.685 12.782006
62.690 13.188813
62.695 13.353962
62.700 13.175115
62.705 13.435986
62.710 12.951762
62.715 13.178066
62.720 13.451783
62.725 13.324013
62.730 13.537523
62.735 13.721322
62.740 13.540955
62.745 13.436707
62.750 13.165263
62.755 13.096097
62.760 13.226557
62.765 13.244101
62.770 12.561662
62.775 12.564955
62.780 12.804877
62.785 12.299543
62.790 11.987372
62.795 11.928241
62.800 12.049081
62.805 13.063764
62.810 13.032315
62.815 12.537699
62.820 12.996635
62.825 13.085289
62.830 12.944038
62.835 12.789585
62.840 12.566521
62.845 12.6714
62.850 13.193444
62.855 13.285488
62.860 13.173409
62.865 12.713217
62.870 12.193034
62.875 11.766916
62.880 11.943771
62.885 11.688926
62.890 11.325213
62.895 11.69805
62.900 12.338915
62.905 12.945669
62.910 12.829576
62.915 12.564049
62.920 12.698246
62.925 12.699091
62.930 12.181183
62.935 11.996993
62.940 11.809748
62.945 11.712227
62.950 11.74247
62.955 12.248857
62.960 12.419086
62.965 12.87886
62.970 13.211454
62.975 13.341208
62.980 13.282911
62.985 13.182034
62.990 13.096692
62.995 13.488516
63.000 13.213029
63.005 13.019034
63.010 13.200557
63.015 13.6141
63.020 13.978322
63.025 13.81303
63.030 13.312571
63.035 13.198204
63.040 12.594961
63.045 12.631496
63.050 12.594725
63.055 12.391484
63.060 12.327858
63.065 12.436334
63.070 12.851956
63.075 13.281605
63.080 12.606524
63.085 12.304305
63.090 12.202957
63.095 12.561039
63.100 12.414273
63.105 12.132937
63.110 12.006129
63.115 12.939609
63.120 13.446528
63.125 13.090918
63.130 13.024586
63.135 13.084796
63.140 12.754475
63.145 12.382215
63.150 12.337151
63.155 12.480999
63.160 12.972186
63.165 12.916709
63.170 13.028827
63.175 13.311238
63.180 13.568933
63.185 12.999054
63.190 12.348117
63.195 12.136329
63.200 11.85279
63.205 11.676134
63.210 11.60819
63.215 11.87407
63.220 12.087152
63.225 12.53124
63.230 12.831798
63.235 13.147255
63.240 13.828122
63.245 14.065048
63.250 14.073997
63.255 14.190397
63.260 14.148857
63.265 13.765671
63.270 13.336995
63.275 13.142832
63.280 13.605763
63.285 13.471357
63.290 13.105516
63.295 12.90476
63.300 12.790162
63.305 13.033968
63.310 12.932634
63.315 12.56111
63.320 12.959698
63.325 13.708438
63.330 13.826869
63.335 14.251336
63.340 13.761524
63.345 13.395555
63.350 13.391994
63.355 13.150715
63.360 12.737616
63.365 12.887443
63.370 12.670745
63.375 12.916725
63.380 13.02582
63.385 12.869623
63.390 12.749248
63.395 12.486687
63.400 12.101415
63.405 11.872961
63.410 11.541915
63.415 11.691779
63.420 11.448946
63.425 11.451974
63.430 11.576364
63.435 11.692705
63.440 11.90712
63.445 12.377734
63.450 12.096107
63.455 12.417145
63.460 12.406212
63.465 12.032475
63.470 11.952059
63.475 12.549732
63.480 12.075924
63.485 12.397847
63.490 12.447284
63.495 12.69086
63.500 12.858728
63.505 13.97069
63.510 14.079883
63.515 14.938619
63.520 15.1639
63.525 15.049917
63.530 15.395892
63.535 15.715475
63.540 14.890968
63.545 14.391479
63.550 13.467154
63.555 13.243662
63.560 13.369943
63.565 12.972389
63.570 12.725828
63.575 12.996692
63.580 13.505201
63.585 14.071627
63.590 14.137744
63.595 14.260052
63.600 14.452493
63.605 14.642578
63.610 14.572603
63.615 14.462366
63.620 14.257872
63.625 14.061141
63.630 13.732835
63.635 13.671947
63.640 13.046278
63.645 12.616865
63.650 12.344553
63.655 12.706008
63.660 13.24547
63.665 13.532729
63.670 14.066513
63.675 14.547846
63.680 14.346755
63.685 14.719455
63.690 14.726143
63.695 14.384709
63.700 14.034699
63.705 13.879355
63.710 13.882662
63.715 14.224968
63.720 13.73688
63.725 13.150917
63.730 13.38883
63.735 13.534841
63.740 13.229538
63.745 13.326314
63.750 13.406985
63.755 13.438964
63.760 13.272902
63.765 12.633281
63.770 13.096927
63.775 13.696
63.780 13.632953
63.785 13.756568
63.790 13.891216
63.795 13.878956
63.800 14.394586
63.805 14.585425
63.810 13.976685
63.815 14.326826
63.820 14.484179
63.825 14.494924
63.830 14.971492
63.835 15.272948
63.840 15.190464
63.845 15.517153
63.850 14.822535
63.855 15.363585
63.860 16.124121
63.865 15.798673
63.870 15.1481
63.875 14.571111
63.880 14.699113
63.885 15.206052
63.890 15.168476
63.895 14.753466
63.900 15.243228
63.905 15.117028
63.910 14.956695
63.915 14.969879
63.920 15.068498
63.925 14.590915
63.930 14.280857
63.935 13.73627
63.940 14.300154
63.945 14.948239
63.950 14.68313
63.955 14.340281
63.960 14.266058
63.965 14.482143
63.970 15.012673
63.975 15.095761
63.980 14.844868
63.985 14.625164
63.990 14.971715
63.995 15.519562
64.000 16.25894
64.005 16.221891
64.010 16.527601
64.015 17.173405
64.020 17.90366
64.025 18.275539
64.030 18.010715
64.035 18.063297
64.040 18.003651
64.045 18.251781
64.050 18.113052
64.055 17.300991
64.060 16.498646
64.065 16.777918
64.070 16.570286
64.075 16.857555
64.080 16.659634
64.085 16.996847
64.090 17.740429
64.095 18.678619
64.100 18.704054
64.105 18.927792
64.110 18.745468
64.115 18.730646
64.120 19.136221
64.125 19.192795
64.130 18.952389
64.135 19.115648
64.140 19.125793
64.145 19.559662
64.150 19.952494
64.155 19.713877
64.160 19.298498
64.165 19.299711
64.170 19.530285
64.175 19.650635
64.180 19.754816
64.185 19.802189
64.190 20.05221
64.195 20.406208
64.200 21.08293
64.205 21.460295
64.210 21.431364
64.215 21.401169
64.220 21.717531
64.225 22.195448
64.230 22.545561
64.235 22.614128
64.240 22.68593
64.245 22.99288
64.250 22.88587
64.255 23.547216
64.260 24.575865
64.265 25.19343
64.270 25.6989
64.275 25.935667
64.280 26.311579
64.285 26.711992
64.290 26.485209
64.295 26.75971
64.300 27.883715
64.305 29.056892
64.310 30.246101
64.315 31.819204
64.320 32.54369
64.325 33.35326
64.330 33.790749
64.335 33.683411
64.340 33.491432
64.345 33.247322
64.350 32.448711
64.355 32.552639
64.360 32.959412
64.365 33.457539
64.370 33.787178
64.375 33.815304
64.380 33.740208
64.385 35.014374
64.390 35.337334
64.395 35.300823
64.400 35.148235
64.405 34.954208
64.410 35.676693
64.415 35.624271
64.420 35.473694
64.425 36.424007
64.430 37.598095
64.435 38.049946
64.440 39.001858
64.445 38.713932
64.450 38.804588
64.455 38.50536
64.460 37.595802
64.465 37.0592
64.470 36.566326
64.475 35.77861
64.480 36.63623
64.485 37.181973
64.490 36.821888
64.495 37.016533
64.500 37.152367
64.505 36.249706
64.510 35.96315
64.515 34.958267
64.520 34.287521
64.525 34.267143
64.530 34.065784
64.535 33.765884
64.540 34.297462
64.545 34.47707
64.550 34.549492
64.555 34.535709
64.560 34.119453
64.565 33.314911
64.570 32.468632
64.575 31.84177
64.580 30.791239
64.585 30.095036
64.590 29.789459
64.595 29.442066
64.600 29.295603
64.605 29.593803
64.610 30.017466
64.615 29.875572
64.620 29.498543
64.625 29.285482
64.630 29.116041
64.635 29.142975
64.640 27.837553
64.645 26.829851
64.650 26.273674
64.655 26.111454
64.660 25.991459
64.665 26.003967
64.670 25.134764
64.675 24.096693
64.680 23.243711
64.685 22.980429
64.690 22.513441
64.695 22.320595
64.700 21.851675
64.705 21.860909
64.710 21.908779
64.715 22.498638
64.720 22.774673
64.725 22.17404
64.730 21.65394
64.735 21.290255
64.740 21.095854
64.745 20.693375
64.750 20.516747
64.755 19.974606
64.760 20.137123
64.765 20.12064
64.770 19.573015
64.775 19.255232
64.780 19.284195
64.785 18.607912
64.790 18.660091
64.795 18.140968
64.800 17.753244
64.805 17.916059
64.810 18.010126
64.815 17.294956
64.820 17.464922
64.825 17.560518
64.830 17.584059
64.835 18.105175
64.840 18.452204
64.845 18.72471
64.850 18.920179
64.855 17.969416
64.860 17.682306
64.865 17.214149
64.870 16.682329
64.875 16.031086
64.880 15.643042
64.885 16.298252
64.890 16.908941
64.895 16.84473
64.900 16.92889
64.905 16.955511
64.910 16.991974
64.915 17.334381
64.920 16.965649
64.925 16.55238
64.930 16.833893
64.935 17.067373
64.940 17.94981
64.945 17.990395
64.950 17.365244
64.955 17.298527
64.960 18.120905
64.965 18.738682
64.970 19.701551
64.975 19.368832
64.980 19.742048
64.985 20.296186
64.990 20.745275
64.995 20.514729
65.000 20.434631
65.005 20.263306
65.010 20.417898
65.015 20.289875
65.020 21.273975
65.025 21.906788
65.030 22.535019
65.035 22.452698
65.040 21.895824
65.045 22.209288
65.050 22.658289
65.055 21.439032
65.060 20.634655
65.065 20.115519
65.070 20.009924
65.075 19.981985
65.080 20.135006
65.085 20.37388
65.090 21.376852
65.095 22.017206
65.100 22.091843
65.105 22.454723
65.110 23.158894
65.115 23.647566
65.120 23.837801
65.125 24.671541
65.130 24.992992
65.135 25.430563
65.140 25.762026
65.145 25.576813
65.150 25.461411
65.155 25.121111
65.160 24.373526
65.165 24.723286
65.170 25.029526
65.175 25.136305
65.180 25.321943
65.185 25.450491
65.190 25.980927
65.195 26.553589
65.200 26.805387
65.205 27.439285
65.210 27.879738
65.215 27.922274
65.220 28.155674
65.225 28.673525
65.230 28.827061
65.235 28.665649
65.240 28.401548
65.245 28.282465
65.250 27.705282
65.255 27.24659
65.260 27.776676
65.265 27.666746
65.270 27.484034
65.275 27.498264
65.280 28.465755
65.285 29.413414
65.290 29.288149
65.295 28.956192
65.300 29.277832
65.305 29.759457
65.310 29.805147
65.315 29.690825
65.320 30.07312
65.325 30.241451
65.330 30.145721
65.335 29.689407
65.340 29.624798
65.345 30.243986
65.350 30.443245
65.355 30.148962
65.360 30.596075
65.365 31.148674
65.370 32.013748
65.375 31.810183
65.380 31.77928
65.385 31.335823
65.390 30.897154
65.395 30.925175
65.400 31.050476
65.405 30.663673
65.410 31.01552
65.415 31.193464
65.420 31.79887
65.425 32.651344
65.430 33.17482
65.435 32.757435
65.440 32.705479
65.445 32.264896
65.450 31.604326
65.455 30.978748
65.460 31.245234
65.465 31.070942
65.470 31.170952
65.475 32.015999
65.480 32.558266
65.485 33.146809
65.490 33.473793
65.495 33.346954
65.500 32.863789
65.505 33.420742
65.510 33.366707
65.515 32.341049
65.520 32.233635
65.525 31.759579
65.530 31.389462
65.535 31.477343
65.540 30.983435
65.545 30.948895
65.550 31.127602
65.555 31.028028
65.560 31.306322
65.565 31.150909
65.570 30.97757
65.575 30.697302
65.580 30.33951
65.585 30.400745
65.590 30.168438
65.595 30.131657
65.600 29.875526
65.605 30.111397
65.610 30.341816
65.615 30.294832
65.620 30.712938
65.625 30.495474
65.630 29.584898
65.635 29.328892
65.640 28.826624
65.645 29.090504
65.650 28.996929
65.655 28.45051
65.660 28.172253
65.665 28.364325
65.670 28.352278
65.675 28.000648
65.680 26.773983
65.685 25.99329
65.690 26.226906
65.695 26.0907
65.700 26.239271
65.705 26.193289
65.710 26.439764
65.715 26.87878
65.720 26.906841
65.725 26.528389
65.730 26.353954
65.735 26.007664
65.740 25.665606
65.745 25.412712
65.750 24.542797
65.755 24.30327
65.760 23.816057
65.765 23.228312
65.770 23.324335
65.775 22.639893
65.780 21.685961
65.785 21.237768
65.790 20.678976
65.795 20.113283
65.800 19.930624
65.805 19.569155
65.810 19.829998
65.815 19.835302
65.820 19.475016
65.825 19.445988
65.830 19.976982
65.835 20.302738
65.840 20.410826
65.845 20.167814
65.850 20.919323
65.855 21.480555
65.860 20.778694
65.865 20.071733
65.870 19.972486
65.875 19.716093
65.880 19.997868
65.885 19.344967
65.890 18.88253
65.895 19.15947
65.900 19.393627
65.905 18.99316
65.910 18.818687
65.915 18.434586
65.920 18.610964
65.925 18.589993
65.930 18.876604
65.935 19.34354
65.940 19.270523
65.945 19.068071
65.950 18.901035
65.955 18.441048
65.960 18.017101
65.965 17.615742
65.970 17.381531
65.975 17.213343
65.980 17.230753
65.985 16.882406
65.990 16.755251
65.995 16.509768
66.000 16.310463
66.005 15.569209
66.010 15.480809
66.015 15.543551
66.020 15.901699
66.025 15.982533
66.030 16.141397
66.035 16.545536
66.040 16.402269
66.045 16.356859
66.050 16.10297
66.055 16.038902
66.060 16.03112
66.065 15.833819
66.070 15.62722
66.075 15.860648
66.080 15.75889
66.085 15.561282
66.090 15.589193
66.095 15.209443
66.100 14.675661
66.105 14.13118
66.110 14.15299
66.115 14.327982
66.120 14.737383
66.125 14.764613
66.130 15.481965
66.135 16.146523
66.140 16.563108
66.145 16.647238
66.150 16.587048
66.155 16.658085
66.160 16.34362
66.165 16.005878
66.170 15.357287
66.175 15.191092
66.180 15.111785
66.185 14.898226
66.190 14.514422
66.195 14.769679
66.200 14.443065
66.205 14.090495
66.210 14.50158
66.215 14.393049
66.220 14.476762
66.225 14.517077
66.230 14.31118
66.235 14.463039
66.240 15.229246
66.245 14.805221
66.250 14.99364
66.255 15.30373
66.260 15.185559
66.265 15.384562
66.270 15.447975
66.275 15.148134
66.280 15.1067
66.285 15.167453
66.290 14.982348
66.295 14.701627
66.300 14.846523
66.305 15.393152
66.310 15.280143
66.315 15.189404
66.320 14.784097
66.325 15.201685
66.330 15.703287
66.335 15.417274
66.340 14.742565
66.345 14.863362
66.350 15.281621
66.355 15.430968
66.360 15.146305
66.365 14.788933
66.370 14.460791
66.375 14.439923
66.380 14.05496
66.385 14.053975
66.390 14.040124
66.395 13.767022
66.400 13.95628
66.405 14.312572
66.410 14.469395
66.415 14.250476
66.420 13.962778
66.425 14.247297
66.430 14.563492
66.435 14.577585
66.440 14.26872
66.445 14.012666
66.450 14.298439
66.455 14.005401
66.460 13.772656
66.465 13.381008
66.470 13.43856
66.475 13.826915
66.480 14.303951
66.485 14.402775
66.490 14.6374
66.495 14.689158
66.500 14.953269
66.505 14.71421
66.510 14.51345
66.515 14.729965
66.520 14.578947
66.525 14.542892
66.530 14.269876
66.535 14.463005
66.540 14.730594
66.545 14.738153
66.550 14.607437
66.555 15.018616
66.560 15.039931
66.565 14.886307
66.570 14.447657
66.575 14.034756
66.580 14.079271
66.585 13.966322
66.590 13.631879
66.595 13.69899
66.600 13.663222
66.605 13.722636
66.610 13.764095
66.615 13.88946
66.620 14.123013
66.625 14.729007
66.630 14.283794
66.635 14.624681
66.640 14.878717
66.645 14.871561
66.650 14.663881
66.655 14.381598
66.660 14.210939
66.665 14.617998
66.670 14.356295
66.675 14.120567
66.680 14.228521
66.685 14.446102
66.690 14.24242
66.695 14.112577
66.700 13.943063
66.705 13.991391
66.710 14.548319
66.715 14.438557
66.720 14.264059
66.725 14.511806
66.730 14.854101
66.735 15.147069
66.740 15.184816
66.745 14.870459
66.750 14.983792
66.755 14.868852
66.760 14.651475
66.765 14.350084
66.770 14.344312
66.775 14.127503
66.780 14.087605
66.785 14.196717
66.790 13.925027
66.795 13.663814
66.800 13.154737
66.805 13.283829
66.810 13.438396
66.815 13.625882
66.820 13.56731
66.825 14.095658
66.830 14.269935
66.835 14.729291
66.840 15.052538
66.845 15.436773
66.850 15.157709
66.855 14.586195
66.860 14.495641
66.865 14.68522
66.870 14.218163
66.875 13.709962
66.880 13.066737
66.885 12.714902
66.890 13.106396
66.895 13.194244
66.900 12.966226
66.905 13.414605
66.910 13.735379
66.915 14.471267
66.920 14.867794
66.925 15.062131
66.930 15.915046
66.935 16.136793
66.940 15.67351
66.945 16.016665
66.950 15.797282
66.955 15.560218
66.960 15.230524
66.965 14.47292
66.970 14.54841
66.975 14.201245
66.980 13.893625
66.985 14.089409
66.990 14.037649
66.995 14.151272
67.000 13.980356
67.005 13.983282
67.010 14.229831
67.015 13.611262
67.020 13.708319
67.025 13.765676
67.030 14.055039
67.035 14.263625
67.040 14.463947
67.045 15.028595
67.050 15.365948
67.055 15.166269
67.060 14.847057
67.065 14.546865
67.070 14.690449
67.075 14.640351
67.080 14.390501
67.085 14.097372
67.090 13.792997
67.095 14.068978
67.100 14.474339
67.105 14.373293
67.110 14.241553
67.115 13.875333
67.120 14.023728
67.125 14.31792
67.130 14.506865
67.135 13.778333
67.140 13.799046
67.145 14.43658
67.150 14.712659
67.155 14.756229
67.160 15.108468
67.165 14.729953
67.170 14.835187
67.175 14.742387
67.180 14.184043
67.185 13.702492
67.190 13.266168
67.195 12.665897
67.200 12.641809
67.205 12.917497
67.210 13.135926
67.215 13.311091
67.220 13.912074
67.225 14.442272
67.230 14.579612
67.235 14.603998
67.240 14.503555
67.245 14.315774
67.250 14.469322
67.255 14.730046
67.260 14.919161
67.265 14.909022
67.270 15.022289
67.275 14.785604
67.280 15.291181
67.285 15.275334
67.290 14.843626
67.295 14.431281
67.300 14.525633
67.305 14.52933
67.310 14.431623
67.315 14.566946
67.320 14.46803
67.325 14.22976
67.330 14.334878
67.335 14.360277
67.340 14.211487
67.345 14.113341
67.350 13.695793
67.355 14.09478
67.360 14.359944
67.365 14.19189
67.370 14.106038
67.375 14.25905
67.380 14.600984
67.385 14.401939
67.390 14.461239
67.395 14.587901
67.400 15.331589
67.405 15.873961
67.410 15.970724
67.415 15.978472
67.420 15.911631
67.425 15.633103
67.430 15.653522
67.435 15.006997
67.440 14.910069
67.445 14.695153
67.450 14.410221
67.455 14.24826
67.460 14.682954
67.465 14.49493
67.470 14.491937
67.475 14.078733
67.480 14.360455
67.485 14.421186
67.490 14.586468
67.495 14.537021
67.500 14.622471
67.505 14.912502
67.510 15.35425
67.515 15.791352
67.520 16.416283
67.525 16.715363
67.530 16.408045
67.535 16.647892
67.540 17.075336
67.545 17.217253
67.550 16.865755
67.555 16.410461
67.560 16.285583
67.565 16.716619
67.570 16.303606
67.575 15.845777
67.580 15.44216
67.585 15.116518
67.590 14.940601
67.595 14.780721
67.600 14.712686
67.605 14.644846
67.610 14.402302
67.615 14.268109
67.620 14.752293
67.625 14.871033
67.630 14.627209
67.635 14.482116
67.640 14.65966
67.645 14.700668
67.650 14.83657
67.655 14.902459
67.660 14.822161
67.665 15.030287
67.670 14.788395
67.675 14.921005
67.680 15.069307
67.685 14.822884
67.690 14.677547
67.695 14.528549
67.700 14.32757
67.705 14.936018
67.710 15.446167
67.715 15.632609
67.720 15.806906
67.725 15.232362
67.730 15.119008
67.735 15.453132
67.740 14.892133
67.745 14.383276
67.750 14.381214
67.755 14.023411
67.760 14.636312
67.765 14.912319
67.770 14.745776
67.775 14.814962
67.780 15.067835
67.785 14.606242
67.790 14.742246
67.795 15.200682
67.800 15.181395
67.805 15.101647
67.810 14.723845
67.815 13.825976
67.820 14.28037
67.825 14.050424
67.830 13.693967
67.835 13.629882
67.840 13.479793
67.845 13.725718
67.850 14.266294
67.855 14.133766
67.860 14.670409
67.865 14.882859
67.870 15.31836
67.875 15.987963
67.880 16.144499
67.885 16.430548
67.890 16.644453
67.895 16.287231
67.900 15.921735
67.905 15.763128
67.910 15.695808
67.915 15.546881
67.920 15.238035
67.925 15.081638
67.930 15.39705
67.935 15.67186
67.940 15.115067
67.945 15.353428
67.950 15.795226
67.955 15.636898
67.960 15.716988
67.965 15.574571
67.970 15.602381
67.975 16.560251
67.980 15.82703
67.985 15.790133
67.990 16.316933
67.995 16.112082
68.000 15.655298
68.005 15.217396
68.010 14.989759
68.015 14.79073
68.020 14.762635
68.025 14.47648
68.030 14.711127
68.035 15.342397
68.040 14.907229
68.045 14.495926
68.050 14.985697
68.055 15.195202
68.060 14.782132
68.065 14.173227
68.070 13.616467
68.075 14.103717
68.080 14.751842
68.085 14.507318
68.090 14.443637
68.095 15.126437
68.100 15.245275
68.105 16.146723
68.110 16.436777
68.115 16.168385
68.120 16.256765
68.125 16.522461
68.130 16.589668
68.135 16.684948
68.140 16.003559
68.145 15.655414
68.150 15.577878
68.155 15.523719
68.160 15.467185
68.165 15.696497
68.170 15.868277
68.175 16.970984
68.180 17.053831
68.185 17.764561
68.190 18.47961
68.195 18.42116
68.200 18.851433
68.205 18.66786
68.210 18.064802
68.215 18.597755
68.220 18.534622
68.225 18.043402
68.230 18.121162
68.235 17.985182
68.240 18.299137
68.245 18.016008
68.250 17.2297
68.255 17.17144
68.260 17.435331
68.265 17.84411
68.270 18.315769
68.275 18.686852
68.280 18.707901
68.285 19.227165
68.290 19.516081
68.295 18.860897
68.300 18.224466
68.305 17.878328
68.310 18.039875
68.315 19.204739
68.320 19.292641
68.325 19.599382
68.330 20.698145
68.335 21.11775
68.340 21.536863
68.345 22.462296
68.350 22.754927
68.355 23.410126
68.360 23.122364
68.365 22.482788
68.370 22.821415
68.375 22.403109
68.380 21.972084
68.385 22.689558
68.390 22.313354
68.395 22.486526
68.400 22.522295
68.405 22.369711
68.410 22.454401
68.415 22.772459
68.420 22.330946
68.425 22.928843
68.430 23.881306
68.435 24.197876
68.440 24.784571
68.445 25.204969
68.450 24.897243
68.455 24.950502
68.460 24.440123
68.465 24.201593
68.470 24.508083
68.475 24.50481
68.480 24.582157
68.485 24.625771
68.490 24.972925
68.495 25.474646
68.500 25.504528
68.505 25.337021
68.510 25.368204
68.515 25.378941
68.520 26.30014
68.525 26.664768
68.530 26.915319
68.535 27.127317
68.540 27.691216
68.545 27.205709
68.550 26.297825
68.555 25.950779
68.560 26.151499
68.565 26.219845
68.570 25.670853
68.575 25.223141
68.580 25.92786
68.585 26.603233
68.590 26.362728
68.595 25.506456
68.600 26.170389
68.605 26.953079
68.610 27.640707
68.615 27.657305
68.620 27.558939
68.625 28.134966
68.630 28.647579
68.635 28.311401
68.640 28.219646
68.645 28.31786
68.650 28.26236
68.655 27.923559
68.660 27.73374
68.665 27.404146
68.670 27.236063
68.675 26.798935
68.680 26.819582
68.685 27.903473
68.690 27.979155
68.695 28.509565
68.700 28.648643
68.705 28.57847
68.710 29.412647
68.715 29.572962
68.720 29.048424
68.725 29.169655
68.730 29.046825
68.735 29.191071
68.740 29.493149
68.745 29.16411
68.750 28.917786
68.755 29.519003
68.760 29.834524
68.765 29.589397
68.770 29.592625
68.775 29.000143
68.780 28.297115
68.785 26.868425
68.790 25.951157
68.795 25.990427
68.800 26.101963
68.805 26.424871
68.810 27.271126
68.815 27.85351
68.820 29.138754
68.825 28.930489
68.830 28.085169
68.835 28.506813
68.840 28.776415
68.845 28.677776
68.850 28.280451
68.855 28.275259
68.860 28.644251
68.865 28.237307
68.870 27.547918
68.875 26.900583
68.880 26.705017
68.885 26.684214
68.890 26.933226
68.895 27.109898
68.900 27.371082
68.905 26.687479
68.910 26.956539
68.915 27.414555
68.920 26.543352
68.925 25.821384
68.930 26.219654
68.935 26.329792
68.940 26.571529
68.945 25.740362
68.950 24.931189
68.955 25.822918
68.960 25.059799
68.965 24.103735
68.970 24.205799
68.975 24.373655
68.980 24.096743
68.985 24.262207
68.990 23.939909
68.995 23.88183
69.000 23.904945
69.005 23.82502
69.010 23.794216
69.015 23.584494
69.020 22.854235
69.025 22.614691
69.030 22.406839
69.035 21.739994
69.040 21.125385
69.045 20.626545
69.050 20.863268
69.055 20.950441
69.060 21.103287
69.065 21.55036
69.070 20.938326
69.075 20.04895
69.080 19.825724
69.085 19.291182
69.090 19.322739
69.095 18.967655
69.100 19.316292
69.105 19.415474
69.110 19.815151
69.115 19.866823
69.120 20.226994
69.125 20.928238
69.130 21.097816
69.135 20.988119
69.140 21.519188
69.145 21.396526
69.150 21.546431
69.155 21.148615
69.160 19.563326
69.165 19.011799
69.170 18.718121
69.175 18.496288
69.180 18.044941
69.185 18.197153
69.190 18.846231
69.195 19.463003
69.200 19.520943
69.205 19.514091
69.210 19.22995
69.215 19.036261
69.220 18.57247
69.225 18.310633
69.230 17.868181
69.235 16.990034
69.240 16.174561
69.245 16.160891
69.250 16.246227
69.255 15.69658
69.260 15.491727
69.265 15.334177
69.270 15.757969
69.275 16.088409
69.280 15.67153
69.285 15.659458
69.290 15.740915
69.295 16.014008
69.300 16.553789
69.305 16.471363
69.310 16.536505
69.315 17.02482
69.320 16.722677
69.325 16.371836
69.330 16.27544
69.335 16.296558
69.340 16.804411
69.345 16.469122
69.350 16.10347
69.355 16.120953
69.360 15.938157
69.365 15.498624
69.370 14.927887
69.375 13.998601
69.380 13.907064
69.385 13.923419
69.390 13.848239
69.395 14.149232
69.400 14.679564
69.405 15.014902
69.410 15.687161
69.415 15.968736
69.420 16.663773
69.425 16.700775
69.430 16.659573
69.435 16.600914
69.440 16.923212
69.445 17.348289
69.450 17.428133
69.455 16.858276
69.460 16.694118
69.465 16.287901
69.470 15.974603
69.475 15.52315
69.480 14.904514
69.485 14.143058
69.490 13.613013
69.495 13.733794
69.500 13.619267
69.505 13.536169
69.510 13.574707
69.515 13.841229
69.520 14.443732
69.525 14.684807
69.530 15.035211
69.535 15.434647
69.540 15.76825
69.545 16.157446
69.550 16.746466
69.555 17.115999
69.560 17.007202
69.565 16.628262
69.570 16.395929
69.575 15.713554
69.580 15.131505
69.585 14.387882
69.590 14.264454
69.595 14.459804
69.600 14.313185
69.605 14.442493
69.610 14.634725
69.615 14.78025
69.620 14.891279
69.625 14.875211
69.630 15.252007
69.635 15.46949
69.640 15.573686
69.645 15.619854
69.650 15.865775
69.655 16.051622
69.660 15.388521
69.665 15.48322
69.670 15.512555
69.675 15.4406
69.680 15.704992
69.685 15.603477
69.690 15.050276
69.695 15.377725
69.700 15.239475
69.705 15.048685
69.710 14.59489
69.715 14.252411
69.720 14.752442
69.725 15.608743
69.730 15.553239
69.735 15.479304
69.740 15.952317
69.745 16.075249
69.750 16.205122
69.755 16.026716
69.760 16.065695
69.765 15.870258
69.770 16.57431
69.775 16.930731
69.780 17.336855
69.785 17.547127
69.790 16.952869
69.795 16.50119
69.800 16.456522
69.805 15.479769
69.810 15.523669
69.815 15.498171
69.820 15.424037
69.825 15.298297
69.830 15.301326
69.835 15.571925
69.840 15.229723
69.845 14.773976
69.850 14.294302
69.855 13.917249
69.860 13.809463
69.865 14.202903
69.870 14.495485
69.875 15.085501
69.880 15.173722
69.885 15.151233
69.890 15.867312
69.895 16.88788
69.900 16.914682
69.905 15.940669
69.910 15.623402
69.915 15.690424
69.920 15.644854
69.925 15.270305
69.930 14.524152
69.935 14.190008
69.940 14.768872
69.945 14.619725
69.950 14.611834
69.955 15.122913
69.960 14.934717
69.965 14.711708
69.970 14.521136
69.975 14.360318
69.980 14.824964
69.985 14.69646
69.990 14.491041
69.995 14.93576
70.000 14.968256
70.005 15.032946
70.010 14.941719
70.015 14.764989
70.020 15.070467
70.025 15.136871
70.030 14.944166
70.035 14.976198
70.040 14.973359
70.045 14.386234
70.050 14.049978
70.055 13.766277
70.060 13.320445
70.065 13.131469
70.070 13.294998
70.075 13.323672
70.080 14.048911
70.085 14.035147
70.090 13.629225
70.095 13.868599
70.100 14.376866
70.105 14.502124
70.110 14.839092
70.115 15.157922
70.120 15.688922
70.125 16.129831
70.130 16.205379
70.135 15.444601
70.140 15.392819
70.145 15.231116
70.150 14.479677
70.155 14.061526
70.160 14.220973
70.165 14.832574
70.170 15.557362
70.175 15.593657
70.180 15.790609
70.185 16.081165
70.190 16.374977
70.195 16.334747
70.200 15.822843
70.205 15.448636
70.210 15.723109
70.215 16.06649
70.220 15.676296
70.225 14.940102
70.230 14.673627
70.235 14.818541
70.240 14.519057
70.245 13.726471
70.250 13.580427
70.255 13.871755
70.260 14.005558
70.265 13.952505
70.270 13.849298
70.275 14.284652
70.280 14.798144
70.285 14.636887
70.290 14.316768
70.295 14.182295
70.300 14.308451
70.305 14.634337
70.310 14.623254
70.315 14.332967
70.320 14.558037
70.325 14.767002
70.330 14.962776
70.335 14.690271
70.340 14.351836
70.345 14.316611
70.350 14.428814
70.355 14.628845
70.360 14.48147
70.365 14.47772
70.370 14.015061
70.375 14.437177
70.380 14.16164
70.385 14.050838
70.390 14.31785
70.395 15.261185
70.400 15.977155
70.405 16.209724
70.410 15.657189
70.415 15.539688
70.420 15.475311
70.425 15.022423
70.430 13.986832
70.435 13.747662
70.440 13.701494
70.445 14.109747
70.450 14.256056
70.455 13.635459
70.460 13.623241
70.465 13.47529
70.470 13.236617
70.475 13.169119
70.480 13.3579
70.485 14.048979
70.490 14.093113
70.495 13.949596
70.500 14.009589
70.505 14.414098
70.510 14.620573
70.515 14.26944
70.520 14.040737
70.525 14.555303
70.530 15.081093
70.535 15.209646
70.540 14.75364
70.545 14.393177
70.550 14.421736
70.555 14.005699
70.560 13.913574
70.565 13.821931
70.570 13.860435
70.575 14.377226
70.580 14.830279
70.585 14.64962
70.590 14.827417
70.595 14.739731
70.600 14.757054
70.605 14.94637
70.610 14.884608
70.615 14.947844
70.620 15.155607
70.625 14.77678
70.630 14.542075
70.635 14.409496
70.640 14.178436
70.645 14.126985
70.650 14.147767
70.655 14.036016
70.660 14.556488
70.665 14.546449
70.670 14.504271
70.675 14.537559
70.680 14.088165
70.685 14.138885
70.690 14.584604
70.695 14.377751
70.700 14.106531
70.705 13.981956
70.710 14.157825
70.715 14.548881
70.720 14.825074
70.725 14.471706
70.730 14.865399
70.735 15.279912
70.740 15.148201
70.745 14.794246
70.750 14.545172
70.755 14.336685
70.760 14.483796
70.765 14.211321
70.770 14.033505
70.775 13.583746
70.780 13.737091
70.785 13.29948
70.790 12.644106
70.795 12.529217
70.800 13.093785
70.805 13.689987
70.810 14.003027
70.815 14.018252
70.820 14.925324
70.825 15.133123
70.830 14.985627
70.835 14.379236
70.840 13.915734
70.845 14.211087
70.850 14.357238
70.855 14.312153
70.860 14.496056
70.865 14.601331
70.870 15.033427
70.875 15.35342
70.880 14.952866
70.885 14.905032
70.890 14.338387
70.895 14.495831
70.900 14.858058
70.905 14.56239
70.910 14.189525
70.915 14.078722
70.920 13.750257
70.925 14.045739
70.930 13.484481
70.935 13.434474
70.940 14.007819
70.945 14.130466
70.950 14.284863
70.955 14.862356
70.960 14.968417
70.965 14.528541
70.970 14.196178
70.975 13.91772
70.980 14.10122
70.985 14.244146
70.990 13.98657
70.995 14.29026
71.000 14.690595
71.005 14.768151
71.010 14.776073
71.015 14.761615
71.020 14.847274
71.025 14.702235
71.030 14.735254
71.035 15.244184
71.040 15.471853
71.045 15.556841
71.050 15.352815
71.055 15.075755
71.060 15.180337
71.065 14.549625
71.070 14.395807
71.075 13.869338
71.080 13.751084
71.085 14.220345
71.090 14.247557
71.095 14.406992
71.100 14.449992
71.105 13.938951
71.110 14.034028
71.115 14.354647
71.120 14.09937
71.125 13.885162
71.130 14.214862
71.135 14.62277
71.140 14.892452
71.145 14.86154
71.150 14.934117
71.155 14.933716
71.160 14.640977
71.165 14.281528
71.170 13.899578
71.175 14.122292
71.180 13.824901
71.185 13.693949
71.190 13.911726
71.195 14.461715
71.200 14.827494
71.205 15.047321
71.210 15.018608
71.215 15.038156
71.220 14.685174
71.225 14.237164
71.230 13.633612
71.235 13.679255
71.240 13.621531
71.245 13.697124
71.250 14.261077
71.255 14.868438
71.260 15.429847
71.265 15.820964
71.270 15.587759
71.275 15.058175
71.280 14.949613
71.285 14.734197
71.290 14.199977
71.295 13.598839
71.300 13.268218
71.305 13.917384
71.310 14.293651
71.315 14.488122
71.320 14.858884
71.325 15.752934
71.330 16.402426
71.335 16.151367
71.340 15.805888
71.345 16.169336
71.350 15.937576
71.355 15.227264
71.360 14.933508
71.365 14.256636
71.370 14.640812
71.375 14.761786
71.380 14.423425
71.385 14.365823
71.390 14.336498
71.395 14.728877
71.400 15.222495
71.405 15.172548
71.410 14.996227
71.415 14.934204
71.420 15.17207
71.425 15.094461
71.430 14.503981
71.435 14.165987
71.440 13.999776
71.445 14.011889
71.450 14.353139
71.455 14.239338
71.460 14.274588
71.465 14.331819
71.470 14.155515
71.475 13.931112
71.480 13.968447
71.485 13.590364
71.490 13.514565
71.495 13.769237
71.500 13.778962
71.505 13.720106
71.510 13.769813
71.515 13.934664
71.520 14.131891
71.525 14.09739
71.530 13.608483
71.535 13.66193
71.540 14.531508
71.545 14.969324
71.550 14.878233
71.555 15.036357
71.560 15.46345
71.565 15.762402
71.570 15.381166
71.575 14.838607
71.580 14.729795
71.585 14.995006
71.590 14.724997
71.595 14.343165
71.600 14.371243
71.605 14.164258
71.610 13.792363
71.615 13.428411
71.620 13.218206
71.625 12.949861
71.630 12.97374
71.635 13.383773
71.640 13.795618
71.645 14.062869
71.650 14.004649
71.655 14.001307
71.660 13.806369
71.665 13.784996
71.670 14.208512
71.675 14.450846
71.680 14.157681
71.685 14.438523
71.690 14.73555
71.695 15.277946
71.700 15.170402
71.705 14.582487
71.710 14.584064
71.715 14.44653
71.720 14.240548
71.725 14.522095
71.730 14.582142
71.735 14.831003
71.740 14.946353
71.745 15.083079
71.750 15.508293
71.755 14.908993
71.760 14.838396
71.765 15.201172
71.770 15.060366
71.775 15.1727
71.780 15.592223
71.785 15.564066
71.790 15.991364
71.795 15.625822
71.800 15.636666
71.805 15.445971
71.810 15.150002
71.815 14.59013
71.820 14.669204
71.825 14.602472
71.830 14.517135
71.835 14.315017
71.840 14.31653
71.845 14.426771
71.850 14.546701
71.855 14.546535
71.860 14.380588
71.865 14.948584
71.870 15.401265
71.875 16.030781
71.880 16.47336
71.885 16.397352
71.890 16.034971
71.895 15.686992
71.900 15.128491
71.905 14.668159
71.910 13.865301
71.915 13.868861
71.920 13.991344
71.925 14.293932
71.930 14.243546
71.935 13.969782
71.940 14.447532
71.945 14.287564
71.950 14.333693
71.955 14.718043
71.960 14.900972
71.965 15.092317
71.970 15.099323
71.975 15.020442
71.980 15.552025
71.985 15.295971
71.990 15.046633
71.995 14.881892
72.000 15.192677
72.005 15.12807
72.010 14.509587
72.015 14.06439
72.020 13.741396
72.025 13.265676
72.030 13.117955
72.035 13.098484
72.040 13.162079
72.045 14.037661
72.050 14.065315
72.055 14.333962
72.060 14.87516
72.065 15.107571
72.070 15.07031
72.075 14.794434
72.080 13.967438
72.085 13.834119
72.090 13.837761
72.095 13.608421
72.100 13.601232
72.105 13.485347
72.110 13.839786
72.115 14.016835
72.120 13.721197
72.125 13.384406
72.130 12.76275
72.135 12.810712
72.140 12.903532
72.145 12.901484
72.150 13.043139
72.155 13.455672
72.160 14.087541
72.165 14.293769
72.170 14.28572
72.175 14.128361
72.180 14.213433
72.185 14.33546
72.190 14.251669
72.195 14.628777
72.200 14.706042
72.205 14.783123
72.210 14.53398
72.215 14.808888
72.220 15.349158
72.225 14.948966
72.230 14.44608
72.235 14.320816
72.240 14.448384
72.245 14.461065
72.250 14.300245
72.255 14.232866
72.260 14.487942
72.265 14.416049
72.270 14.619205
72.275 15.242846
72.280 15.308763
72.285 14.677785
72.290 14.744549
72.295 15.321442
72.300 15.346868
72.305 14.994807
72.310 14.419186
72.315 14.936077
72.320 15.761254
72.325 15.488339
72.330 15.466475
72.335 15.669927
72.340 15.958003
72.345 15.88029
72.350 14.981651
72.355 14.424372
72.360 14.26081
72.365 13.956931
72.370 13.897839
72.375 13.738011
72.380 13.372103
72.385 13.271981
72.390 13.263796
72.395 13.185036
72.400 13.366138
72.405 13.018311
72.410 13.487152
72.415 14.257594
72.420 14.175614
72.425 14.245049
72.430 14.540285
72.435 14.883348
72.440 15.289765
72.445 14.937005
72.450 14.947895
72.455 15.188538
72.460 15.349145
72.465 15.492809
72.470 15.511077
72.475 15.303298
72.480 15.797441
72.485 15.950195
72.490 15.851737
72.495 15.742572
72.500 14.826922
72.505 14.501729
72.510 14.585285
72.515 14.547172
72.520 14.306965
72.525 14.209235
72.530 13.981115
72.535 14.151125
72.540 14.206382
72.545 13.782319
72.550 13.774592
72.555 14.030287
72.560 14.317035
72.565 14.490132
72.570 14.382539
72.575 14.77134
72.580 15.124349
72.585 15.391098
72.590 15.315816
72.595 15.43358
72.600 15.57743
72.605 15.698422
72.610 15.826299
72.615 15.851421
72.620 15.559656
72.625 15.594418
72.630 15.704371
72.635 15.680091
72.640 15.177787
72.645 14.42822
72.650 14.104805
72.655 14.373766
72.660 14.1729
72.665 14.150082
72.670 14.398355
72.675 14.511668
72.680 14.688182
72.685 14.936166
72.690 14.552389
72.695 13.868875
72.700 13.155852
72.705 12.87746
72.710 13.343704
72.715 13.419123
72.720 13.237961
72.725 13.162009
72.730 13.504154
72.735 13.543654
72.740 13.63602
72.745 13.350258
72.750 13.568903
72.755 13.781284
72.760 14.304069
72.765 14.587773
72.770 14.735644
72.775 14.937195
72.780 14.213176
72.785 13.647117
72.790 13.76626
72.795 13.461632
72.800 13.731785
72.805 13.637341
72.810 13.445029
72.815 14.14467
72.820 14.362565
72.825 14.773936
72.830 14.322657
72.835 14.179547
72.840 14.213902
72.845 14.022589
72.850 14.24778
72.855 14.301239
72.860 14.147067
72.865 14.14607
72.870 13.853144
72.875 14.083143
72.880 13.647659
72.885 13.21492
72.890 12.782152
72.895 12.937761
72.900 13.295399
72.905 13.411597
72.910 13.228732
72.915 13.257086
72.920 13.502756
72.925 13.632583
72.930 13.962267
72.935 14.133851
72.940 14.67964
72.945 15.174511
72.950 15.463593
72.955 15.200974
72.960 14.964265
72.965 14.536328
72.970 14.248576
72.975 13.892344
72.980 14.074706
72.985 14.0454
72.990 14.223433
72.995 14.950532
73.000 14.835567
