!@!!GADDS PLOTSO FILE: Chi integration type
!@!!Title/SampleName: map-14
!@!!Comment: ?
!@!!User: Bruker Instrument Administrator
!@!!Site: University of Illinois Chicago
!@!!Frame: map-14_01_000.gfrm
!@!!Wavelengths    1.54184   1.54056   1.54439
!@!!Frame angles: 2Theta: 63.000 Omega: 50.000 Phi: 0.000 Chi: 90.000
!@!!Integration range: 2Theta: 53.000 to 73.000  Gamma: -105.000 to -75.000
!@!!Integration method: bin normalized
!@!N
!@!SS
!@!M
!@!L 0.0 0.0 0.0 0.0
!@!XDegrees
!@!YCounts
53.000 8.081956
53.005 8.042944
53.010 7.930573
53.015 7.710263
53.020 7.669767
53.025 8.125252
53.030 7.730296
53.035 8.029763
53.040 7.980268
53.045 8.20354
53.050 8.469383
53.055 8.33673
53.060 8.540676
53.065 8.694485
53.070 8.611772
53.075 8.959594
53.080 9.227224
53.085 9.12781
53.090 9.251346
53.095 8.823516
53.100 8.448199
53.105 8.207475
53.110 7.832843
53.115 8.094625
53.120 8.007559
53.125 7.754634
53.130 7.995705
53.135 8.359764
53.140 8.893699
53.145 9.118573
53.150 8.739467
53.155 8.795878
53.160 8.67979
53.165 8.382769
53.170 8.028872
53.175 7.563965
53.180 7.551458
53.185 7.452264
53.190 7.792933
53.195 7.975864
53.200 8.37678
53.205 8.319087
53.210 8.082643
53.215 7.855327
53.220 7.902958
53.225 7.853504
53.230 7.508404
53.235 7.425382
53.240 7.592823
53.245 7.501546
53.250 7.301345
53.255 7.015377
53.260 7.274994
53.265 7.502425
53.270 7.615868
53.275 7.782165
53.280 8.066372
53.285 8.647373
53.290 8.969637
53.295 8.895843
53.300 9.023316
53.305 9.313276
53.310 9.213736
53.315 9.258927
53.320 8.920708
53.325 8.764806
53.330 8.640855
53.335 8.096008
53.340 8.0602
53.345 8.260693
53.350 8.405472
53.355 8.567842
53.360 8.381333
53.365 8.257263
53.370 8.267554
53.375 8.266578
53.380 8.406371
53.385 8.223917
53.390 8.08397
53.395 8.522143
53.400 9.02422
53.405 9.250216
53.410 9.223427
53.415 9.523829
53.420 9.838964
53.425 10.011463
53.430 9.644355
53.435 9.336937
53.440 9.518074
53.445 9.064307
53.450 8.316692
53.455 8.289388
53.460 8.239222
53.465 8.086261
53.470 7.785807
53.475 7.601838
53.480 7.95085
53.485 8.284534
53.490 7.954721
53.495 8.251054
53.500 8.591644
53.505 8.767535
53.510 9.057599
53.515 9.037954
53.520 9.198196
53.525 9.493393
53.530 9.768992
53.535 9.68097
53.540 9.47006
53.545 8.728408
53.550 8.83672
53.555 8.503864
53.560 8.390266
53.565 8.256253
53.570 8.515189
53.575 8.906495
53.580 9.443291
53.585 9.547836
53.590 10.011688
53.595 9.671895
53.600 9.631841
53.605 9.659001
53.610 9.324212
53.615 9.42209
53.620 9.516275
53.625 9.38101
53.630 9.500307
53.635 9.09733
53.640 8.767485
53.645 8.612357
53.650 8.024899
53.655 7.8625
53.660 8.021885
53.665 8.141662
53.670 8.519616
53.675 8.471963
53.680 8.627395
53.685 8.759659
53.690 8.938953
53.695 9.074385
53.700 9.118959
53.705 9.241961
53.710 9.261172
53.715 9.102142
53.720 9.304985
53.725 9.092083
53.730 8.725114
53.735 8.192718
53.740 7.906396
53.745 7.777377
53.750 7.93889
53.755 7.994882
53.760 8.281554
53.765 8.390314
53.770 8.761087
53.775 9.21642
53.780 9.486679
53.785 9.254856
53.790 9.006507
53.795 9.286121
53.800 9.264686
53.805 9.2162
53.810 9.097146
53.815 9.075218
53.820 9.424542
53.825 9.270171
53.830 8.434612
53.835 8.313446
53.840 8.719119
53.845 8.903649
53.850 8.761505
53.855 8.5958
53.860 8.646316
53.865 9.061967
53.870 9.181899
53.875 8.94798
53.880 9.198833
53.885 9.102032
53.890 9.257152
53.895 9.521933
53.900 9.370848
53.905 9.131062
53.910 8.83475
53.915 8.976151
53.920 9.180943
53.925 9.171263
53.930 9.488014
53.935 9.294
53.940 9.182516
53.945 8.926342
53.950 8.942657
53.955 8.824074
53.960 8.564859
53.965 8.591272
53.970 8.955524
53.975 9.341418
53.980 9.745759
53.985 9.164583
53.990 8.929444
53.995 8.668565
54.000 8.24812
54.005 8.040643
54.010 7.782611
54.015 7.434599
54.020 8.22214
54.025 8.755331
54.030 9.244963
54.035 9.207174
54.040 9.470507
54.045 10.10602
54.050 10.232965
54.055 9.955289
54.060 9.780359
54.065 9.400935
54.070 9.7447
54.075 9.400057
54.080 8.841962
54.085 8.445863
54.090 8.049081
54.095 8.320977
54.100 8.397777
54.105 8.56376
54.110 8.840308
54.115 9.522408
54.120 9.848174
54.125 10.291769
54.130 10.021722
54.135 10.165186
54.140 10.360133
54.145 10.36694
54.150 9.775252
54.155 9.720744
54.160 9.381021
54.165 9.461911
54.170 9.284998
54.175 9.083827
54.180 8.992622
54.185 9.1097
54.190 8.956863
54.195 8.689517
54.200 9.055629
54.205 8.457069
54.210 8.475774
54.215 8.834212
54.220 9.184061
54.225 9.287247
54.230 9.162985
54.235 9.490677
54.240 9.786773
54.245 9.663408
54.250 9.642595
54.255 9.636593
54.260 10.322948
54.265 10.374017
54.270 9.998907
54.275 9.952066
54.280 9.914091
54.285 10.058203
54.290 9.844092
54.295 9.709518
54.300 10.086446
54.305 10.179037
54.310 10.631524
54.315 10.567552
54.320 10.43625
54.325 10.294105
54.330 10.110376
54.335 9.385365
54.340 9.143161
54.345 9.091212
54.350 8.957392
54.355 8.879447
54.360 8.987094
54.365 9.423159
54.370 10.481502
54.375 10.303819
54.380 10.197755
54.385 10.241483
54.390 10.465503
54.395 10.492751
54.400 10.251898
54.405 10.062195
54.410 9.995804
54.415 9.912036
54.420 9.856601
54.425 9.02745
54.430 8.787822
54.435 8.453574
54.440 8.104719
54.445 8.184861
54.450 8.269415
54.455 8.816693
54.460 9.328925
54.465 9.6898
54.470 9.979401
54.475 9.858907
54.480 9.730053
54.485 9.520678
54.490 9.287559
54.495 9.335348
54.500 9.107061
54.505 8.676596
54.510 8.943544
54.515 9.019625
54.520 9.570757
54.525 9.634413
54.530 9.245299
54.535 9.432603
54.540 9.773594
54.545 9.994311
54.550 10.024134
54.555 9.683784
54.560 9.514617
54.565 9.456557
54.570 9.350493
54.575 9.358419
54.580 9.151564
54.585 8.74228
54.590 8.797553
54.595 9.379683
54.600 9.360307
54.605 9.265772
54.610 9.048957
54.615 8.989227
54.620 9.18055
54.625 8.837818
54.630 8.57958
54.635 8.567833
54.640 8.753952
54.645 9.338663
54.650 9.564064
54.655 9.814718
54.660 9.829885
54.665 9.671334
54.670 9.893414
54.675 10.314282
54.680 9.948762
54.685 9.892093
54.690 10.100911
54.695 10.606806
54.700 11.227897
54.705 11.031352
54.710 10.291966
54.715 10.522705
54.720 10.638549
54.725 10.643181
54.730 10.464025
54.735 10.584396
54.740 10.827746
54.745 11.097881
54.750 10.858869
54.755 10.815421
54.760 10.796204
54.765 10.929704
54.770 10.645693
54.775 10.580751
54.780 10.810314
54.785 10.694037
54.790 10.521276
54.795 10.365336
54.800 10.288135
54.805 10.195492
54.810 9.716685
54.815 9.54202
54.820 9.3355
54.825 9.040696
54.830 8.786526
54.835 8.53177
54.840 8.760863
54.845 9.098967
54.850 9.112032
54.855 9.329332
54.860 9.70502
54.865 9.958063
54.870 10.167687
54.875 10.21452
54.880 9.586024
54.885 9.440116
54.890 9.917736
54.895 10.09142
54.900 9.983694
54.905 9.732643
54.910 9.854923
54.915 10.794004
54.920 10.77942
54.925 10.512879
54.930 10.583879
54.935 10.732714
54.940 10.794538
54.945 10.700774
54.950 10.463539
54.955 10.560827
54.960 10.178345
54.965 10.09218
54.970 10.343788
54.975 10.336403
54.980 10.621572
54.985 10.388069
54.990 10.453141
54.995 10.389709
55.000 10.433197
55.005 10.289629
55.010 10.488518
55.015 10.223205
55.020 10.018676
55.025 10.277203
55.030 10.635453
55.035 10.300978
55.040 10.061937
55.045 9.694173
55.050 9.862267
55.055 10.183713
55.060 10.405769
55.065 10.64911
55.070 10.990256
55.075 11.292877
55.080 11.725695
55.085 12.428764
55.090 12.464941
55.095 11.999451
55.100 11.695635
55.105 11.163108
55.110 10.871289
55.115 10.370082
55.120 9.784551
55.125 9.707502
55.130 9.560229
55.135 9.699368
55.140 10.271778
55.145 10.286237
55.150 10.17722
55.155 10.25128
55.160 10.437333
55.165 9.945123
55.170 10.060906
55.175 9.982886
55.180 10.350746
55.185 10.830434
55.190 10.738797
55.195 10.350899
55.200 10.693602
55.205 10.264754
55.210 10.410394
55.215 10.285181
55.220 9.910437
55.225 10.351487
55.230 10.343333
55.235 10.200013
55.240 10.298021
55.245 10.201425
55.250 10.165977
55.255 10.250669
55.260 10.119184
55.265 10.620811
55.270 11.262723
55.275 11.065296
55.280 10.940578
55.285 10.641461
55.290 10.524359
55.295 10.70576
55.300 10.410707
55.305 10.200267
55.310 10.464959
55.315 10.439311
55.320 10.44539
55.325 9.800943
55.330 9.445575
55.335 9.492082
55.340 9.293561
55.345 9.196099
55.350 9.269316
55.355 9.747058
55.360 10.475628
55.365 10.452093
55.370 10.632582
55.375 10.580414
55.380 10.452251
55.385 10.461381
55.390 10.671464
55.395 10.833567
55.400 10.560235
55.405 10.683519
55.410 10.821978
55.415 10.86694
55.420 11.184534
55.425 10.752381
55.430 10.775724
55.435 10.938148
55.440 10.671846
55.445 10.803398
55.450 10.568874
55.455 10.14008
55.460 9.856286
55.465 9.443116
55.470 9.377555
55.475 9.746784
55.480 10.22019
55.485 10.495138
55.490 10.366896
55.495 10.436039
55.500 10.613247
55.505 10.873512
55.510 10.870005
55.515 10.488182
55.520 10.825853
55.525 10.69588
55.530 10.439425
55.535 10.287249
55.540 9.719059
55.545 9.743124
55.550 9.672377
55.555 9.624803
55.560 9.939994
55.565 10.760455
55.570 10.668807
55.575 10.395579
55.580 10.49974
55.585 10.387174
55.590 10.384274
55.595 10.650135
55.600 10.705648
55.605 10.888778
55.610 11.364704
55.615 11.12129
55.620 11.391315
55.625 11.423079
55.630 11.367714
55.635 11.083692
55.640 10.954123
55.645 11.075009
55.650 11.166245
55.655 11.450624
55.660 11.756577
55.665 11.70936
55.670 11.977217
55.675 11.969822
55.680 11.457104
55.685 11.420979
55.690 11.589146
55.695 11.377356
55.700 11.402174
55.705 11.442659
55.710 11.827271
55.715 12.086501
55.720 11.686682
55.725 11.420087
55.730 12.038877
55.735 11.959139
55.740 11.495743
55.745 11.338432
55.750 11.50044
55.755 11.476321
55.760 10.92522
55.765 10.223528
55.770 10.31071
55.775 10.200555
55.780 10.129479
55.785 9.926724
55.790 10.249942
55.795 10.539862
55.800 10.891324
55.805 11.37295
55.810 12.157935
55.815 12.306502
55.820 12.158783
55.825 11.880627
55.830 12.05778
55.835 12.074768
55.840 11.963764
55.845 11.689001
55.850 11.927667
55.855 12.001282
55.860 11.885098
55.865 11.264801
55.870 10.587559
55.875 10.625972
55.880 10.036718
55.885 9.60881
55.890 9.931516
55.895 9.820019
55.900 10.217128
55.905 10.584517
55.910 10.537322
55.915 11.086303
55.920 11.751334
55.925 11.84151
55.930 12.139841
55.935 12.043191
55.940 11.942689
55.945 11.973008
55.950 11.617957
55.955 11.143723
55.960 11.188697
55.965 11.185641
55.970 11.277457
55.975 10.871518
55.980 10.999712
55.985 10.943756
55.990 10.762573
55.995 10.685701
56.000 10.874967
56.005 10.6605
56.010 11.124714
56.015 11.206303
56.020 11.58374
56.025 11.289345
56.030 10.810719
56.035 10.697167
56.040 10.94544
56.045 11.433786
56.050 11.744766
56.055 11.630169
56.060 12.056808
56.065 12.465012
56.070 12.296515
56.075 11.8349
56.080 10.713362
56.085 10.685265
56.090 10.587248
56.095 10.142397
56.100 9.968678
56.105 10.024018
56.110 10.049421
56.115 9.715029
56.120 9.729098
56.125 10.398226
56.130 10.960851
56.135 11.068677
56.140 11.448622
56.145 11.986036
56.150 12.4726
56.155 12.751821
56.160 12.539248
56.165 12.905449
56.170 13.338408
56.175 13.158443
56.180 12.838871
56.185 12.999049
56.190 12.668474
56.195 12.671886
56.200 12.365528
56.205 12.299508
56.210 12.006773
56.215 11.957192
56.220 12.110975
56.225 12.336405
56.230 12.162886
56.235 11.985235
56.240 11.942557
56.245 12.305535
56.250 12.597096
56.255 12.073399
56.260 11.562468
56.265 11.115719
56.270 10.801398
56.275 10.594047
56.280 10.262574
56.285 9.929416
56.290 10.682708
56.295 11.411845
56.300 11.871044
56.305 11.991469
56.310 11.844101
56.315 12.06354
56.320 11.808433
56.325 11.533319
56.330 11.41587
56.335 11.438075
56.340 11.671359
56.345 12.167118
56.350 12.504246
56.355 12.150293
56.360 12.218206
56.365 12.125522
56.370 11.924243
56.375 11.939312
56.380 11.617259
56.385 11.464107
56.390 11.696836
56.395 11.570897
56.400 11.259338
56.405 11.319568
56.410 11.455476
56.415 11.479937
56.420 11.827947
56.425 12.184815
56.430 12.356358
56.435 12.15472
56.440 12.311364
56.445 12.582218
56.450 12.596395
56.455 12.272416
56.460 12.493724
56.465 12.554694
56.470 12.732885
56.475 12.246628
56.480 12.097724
56.485 12.564638
56.490 12.967839
56.495 12.428794
56.500 12.38864
56.505 12.802619
56.510 13.235043
56.515 12.825339
56.520 12.494997
56.525 12.16291
56.530 12.131547
56.535 12.13573
56.540 11.899904
56.545 11.394947
56.550 11.714527
56.555 12.064229
56.560 12.510409
56.565 12.7225
56.570 13.049428
56.575 13.324711
56.580 13.833
56.585 13.633982
56.590 13.047313
56.595 12.781861
56.600 12.63607
56.605 12.112783
56.610 11.597253
56.615 11.941372
56.620 12.393255
56.625 12.583836
56.630 12.425364
56.635 12.584149
56.640 12.905996
56.645 12.93993
56.650 12.335447
56.655 12.623788
56.660 12.872684
56.665 12.577049
56.670 11.597712
56.675 11.347767
56.680 11.658564
56.685 11.820092
56.690 11.259905
56.695 11.300821
56.700 11.738895
56.705 12.309976
56.710 12.589824
56.715 12.410679
56.720 12.083456
56.725 12.238355
56.730 12.289446
56.735 13.047209
56.740 13.669877
56.745 13.650312
56.750 14.324564
56.755 14.759867
56.760 14.841681
56.765 14.582955
56.770 13.816432
56.775 12.794744
56.780 12.274272
56.785 11.838785
56.790 11.896232
56.795 11.783558
56.800 11.460773
56.805 11.447586
56.810 11.896566
56.815 12.229687
56.820 11.811438
56.825 11.596869
56.830 11.427834
56.835 11.733973
56.840 12.352706
56.845 12.763205
56.850 12.839789
56.855 13.126962
56.860 13.023891
56.865 12.974948
56.870 12.834106
56.875 12.296051
56.880 12.026838
56.885 11.818618
56.890 11.317878
56.895 11.092373
56.900 11.341749
56.905 11.716359
56.910 12.191689
56.915 12.247936
56.920 12.314314
56.925 12.742134
56.930 13.163848
56.935 13.03958
56.940 12.536983
56.945 12.48446
56.950 12.690516
56.955 12.843408
56.960 13.187512
56.965 13.087767
56.970 12.333819
56.975 12.778994
56.980 12.587057
56.985 12.802845
56.990 12.842236
56.995 12.652045
57.000 13.020692
57.005 14.022554
57.010 13.921259
57.015 13.504275
57.020 13.103371
57.025 13.163827
57.030 12.86978
57.035 12.566631
57.040 12.058053
57.045 11.946948
57.050 12.185161
57.055 12.324451
57.060 11.942067
57.065 12.106402
57.070 12.230169
57.075 12.644102
57.080 12.850255
57.085 12.266995
57.090 11.830225
57.095 11.976311
57.100 11.917998
57.105 11.947177
57.110 11.772732
57.115 12.327976
57.120 12.719705
57.125 13.156188
57.130 13.392056
57.135 13.106841
57.140 13.17693
57.145 13.074561
57.150 12.551294
57.155 12.575312
57.160 12.329532
57.165 12.459268
57.170 12.58511
57.175 12.322831
57.180 12.399901
57.185 12.400157
57.190 12.265007
57.195 12.265159
57.200 12.647068
57.205 13.02171
57.210 13.075205
57.215 12.926523
57.220 13.059095
57.225 13.270821
57.230 12.658051
57.235 12.097463
57.240 11.766968
57.245 11.561002
57.250 11.113806
57.255 10.749621
57.260 10.383304
57.265 11.011433
57.270 11.334945
57.275 11.096523
57.280 11.556862
57.285 12.137541
57.290 12.710154
57.295 13.005067
57.300 12.776955
57.305 12.325168
57.310 13.063935
57.315 13.067148
57.320 13.172632
57.325 13.169529
57.330 13.495236
57.335 14.160146
57.340 14.337249
57.345 13.860367
57.350 14.476411
57.355 14.455737
57.360 14.65827
57.365 14.813142
57.370 14.53472
57.375 15.062201
57.380 15.327772
57.385 14.918129
57.390 15.270205
57.395 15.233624
57.400 15.115518
57.405 15.271025
57.410 15.047638
57.415 15.089208
57.420 14.76066
57.425 14.460185
57.430 14.059368
57.435 13.610738
57.440 13.236141
57.445 13.005983
57.450 12.87022
57.455 12.418728
57.460 12.074727
57.465 12.150805
57.470 12.091069
57.475 11.876138
57.480 11.976201
57.485 12.522735
57.490 13.121559
57.495 13.647885
57.500 14.197307
57.505 14.42252
57.510 14.790276
57.515 14.704483
57.520 14.222363
57.525 13.86985
57.530 13.505114
57.535 13.664686
57.540 13.988017
57.545 13.76087
57.550 13.784466
57.555 13.761828
57.560 13.690861
57.565 13.47707
57.570 12.962857
57.575 13.129923
57.580 13.367177
57.585 13.301708
57.590 13.320183
57.595 13.768305
57.600 14.26411
57.605 14.4989
57.610 14.265858
57.615 14.136409
57.620 14.121114
57.625 14.154142
57.630 14.196128
57.635 13.891725
57.640 13.397029
57.645 13.594476
57.650 14.132534
57.655 14.574781
57.660 14.843343
57.665 14.658568
57.670 14.746764
57.675 14.837695
57.680 14.168365
57.685 13.968578
57.690 13.840776
57.695 13.435205
57.700 13.081523
57.705 12.722528
57.710 12.793184
57.715 12.87431
57.720 12.814924
57.725 12.793974
57.730 13.249581
57.735 13.357615
57.740 13.607598
57.745 13.847446
57.750 14.564203
57.755 14.227083
57.760 14.173328
57.765 13.986162
57.770 14.029733
57.775 14.485261
57.780 13.975896
57.785 13.809752
57.790 14.303987
57.795 14.144324
57.800 14.556762
57.805 14.863404
57.810 14.900569
57.815 15.206923
57.820 14.867848
57.825 14.563684
57.830 14.638354
57.835 14.368875
57.840 14.155874
57.845 14.115273
57.850 14.116849
57.855 13.790755
57.860 13.885027
57.865 14.071369
57.870 13.835948
57.875 13.633471
57.880 13.307628
57.885 13.269187
57.890 13.364241
57.895 12.989315
57.900 12.719681
57.905 12.990449
57.910 13.207153
57.915 13.395604
57.920 13.36606
57.925 13.449269
57.930 14.047657
57.935 14.329502
57.940 14.229771
57.945 13.825579
57.950 13.32052
57.955 13.140033
57.960 12.905658
57.965 12.720997
57.970 12.017691
57.975 11.715161
57.980 12.033689
57.985 12.192925
57.990 12.566031
57.995 12.857705
58.000 12.55805
58.005 13.026443
58.010 13.264346
58.015 13.631274
58.020 13.804346
58.025 13.719318
58.030 13.841031
58.035 14.299273
58.040 14.817822
58.045 14.235277
58.050 13.747663
58.055 13.96391
58.060 13.99216
58.065 13.628409
58.070 13.313311
58.075 12.936337
58.080 13.485834
58.085 13.797011
58.090 13.714862
58.095 13.698204
58.100 14.10448
58.105 14.289743
58.110 14.240061
58.115 13.712297
58.120 13.708992
58.125 14.796971
58.130 15.409419
58.135 15.512343
58.140 15.83304
58.145 16.135817
58.150 16.634041
58.155 16.296415
58.160 15.14139
58.165 14.949342
58.170 14.806291
58.175 14.214475
58.180 13.998695
58.185 13.981846
58.190 13.51904
58.195 13.183855
58.200 12.945903
58.205 12.722485
58.210 13.232738
58.215 13.545997
58.220 13.66208
58.225 14.251998
58.230 14.850733
58.235 15.383178
58.240 15.350685
58.245 15.144353
58.250 14.798038
58.255 14.383558
58.260 14.158651
58.265 13.691298
58.270 13.562863
58.275 13.51276
58.280 13.46686
58.285 13.86946
58.290 14.027364
58.295 14.058345
58.300 14.087796
58.305 14.031248
58.310 14.278885
58.315 14.154154
58.320 13.662212
58.325 14.067031
58.330 14.349783
58.335 14.553576
58.340 14.731765
58.345 14.235783
58.350 14.38929
58.355 14.870973
58.360 14.243889
58.365 14.125148
58.370 14.192305
58.375 14.351868
58.380 15.022485
58.385 15.165431
58.390 14.861206
58.395 15.44414
58.400 15.759757
58.405 15.506725
58.410 15.553014
58.415 15.55736
58.420 15.39998
58.425 15.896622
58.430 15.615391
58.435 15.228652
58.440 15.245834
58.445 15.275859
58.450 15.677581
58.455 15.694741
58.460 14.891212
58.465 14.780376
58.470 14.509559
58.475 13.620954
58.480 13.069545
58.485 12.634063
58.490 13.056154
58.495 13.629203
58.500 14.036876
58.505 14.227233
58.510 14.715313
58.515 15.090036
58.520 14.736709
58.525 14.791382
58.530 14.744102
58.535 14.531928
58.540 14.967921
58.545 15.307682
58.550 15.766415
58.555 15.993032
58.560 16.040699
58.565 16.016665
58.570 15.515996
58.575 15.506598
58.580 15.51831
58.585 15.2358
58.590 14.911814
58.595 14.495488
58.600 14.565087
58.605 14.728465
58.610 14.18867
58.615 13.494534
58.620 13.432371
58.625 13.546615
58.630 13.452299
58.635 13.528666
58.640 13.891496
58.645 14.44781
58.650 14.99857
58.655 15.468997
58.660 15.384146
58.665 15.117661
58.670 14.820432
58.675 14.320713
58.680 13.403318
58.685 12.8198
58.690 12.661298
58.695 13.284049
58.700 13.051859
58.705 13.257711
58.710 13.401575
58.715 13.750335
58.720 13.440813
58.725 12.775756
58.730 12.271593
58.735 12.512548
58.740 12.752872
58.745 13.327569
58.750 13.758842
58.755 14.209013
58.760 14.355326
58.765 14.349756
58.770 14.393426
58.775 14.361164
58.780 14.463562
58.785 14.228895
58.790 14.314021
58.795 14.956846
58.800 15.379523
58.805 16.067955
58.810 15.829852
58.815 15.378542
58.820 14.87963
58.825 15.015073
58.830 15.269413
58.835 15.088757
58.840 14.446789
58.845 14.498565
58.850 14.540257
58.855 15.013144
58.860 14.71626
58.865 14.538554
58.870 14.738544
58.875 14.861749
58.880 15.028127
58.885 14.948762
58.890 14.785265
58.895 14.568847
58.900 14.051541
58.905 13.568263
58.910 13.303229
58.915 13.812762
58.920 14.131669
58.925 14.352347
58.930 14.520877
58.935 14.376222
58.940 15.057613
58.945 15.763154
58.950 15.383116
58.955 15.748161
58.960 16.328365
58.965 17.084955
58.970 17.946112
58.975 17.371712
58.980 17.02149
58.985 16.966261
58.990 16.497799
58.995 15.875021
59.000 15.123051
59.005 14.901617
59.010 15.278033
59.015 15.39198
59.020 15.368281
59.025 15.43481
59.030 15.296315
59.035 15.610061
59.040 15.91363
59.045 16.570835
59.050 16.878479
59.055 16.704716
59.060 16.596542
59.065 16.608431
59.070 16.274872
59.075 15.263885
59.080 14.608024
59.085 14.35642
59.090 14.507548
59.095 14.71937
59.100 14.352347
59.105 14.179593
59.110 15.170467
59.115 15.418545
59.120 15.627358
59.125 15.566826
59.130 15.909558
59.135 16.20759
59.140 16.472113
59.145 15.726658
59.150 15.23101
59.155 14.932126
59.160 14.47827
59.165 14.829103
59.170 14.682553
59.175 14.957988
59.180 14.91258
59.185 14.622132
59.190 14.529733
59.195 14.706649
59.200 14.60315
59.205 14.861864
59.210 15.082502
59.215 15.269773
59.220 15.690454
59.225 15.557765
59.230 15.942497
59.235 16.080193
59.240 16.183922
59.245 15.909237
59.250 16.032494
59.255 16.621786
59.260 16.738184
59.265 16.584805
59.270 16.641199
59.275 16.817156
59.280 17.199068
59.285 17.155041
59.290 16.614513
59.295 16.678867
59.300 16.626684
59.305 16.146421
59.310 15.942599
59.315 15.081255
59.320 14.717737
59.325 15.11145
59.330 15.241596
59.335 15.266533
59.340 15.161291
59.345 15.110621
59.350 15.958432
59.355 16.672375
59.360 16.728859
59.365 16.717754
59.370 16.986162
59.375 16.835613
59.380 16.807011
59.385 16.688416
59.390 16.890442
59.395 17.47011
59.400 17.28443
59.405 16.948107
59.410 17.117805
59.415 16.917706
59.420 16.459463
59.425 16.10651
59.430 15.967616
59.435 16.276672
59.440 16.802914
59.445 17.421154
59.450 17.803986
59.455 18.194046
59.460 17.653782
59.465 16.951712
59.470 16.818726
59.475 16.548611
59.480 16.425091
59.485 16.002327
59.490 16.283882
59.495 16.965256
59.500 17.623941
59.505 17.815306
59.510 17.711763
59.515 17.708927
59.520 17.663897
59.525 17.19772
59.530 16.623728
59.535 16.027939
59.540 15.943723
59.545 16.206032
59.550 15.951415
59.555 15.97287
59.560 15.580573
59.565 15.216778
59.570 15.276979
59.575 14.899467
59.580 15.029961
59.585 15.763367
59.590 16.108572
59.595 16.206406
59.600 17.185169
59.605 17.362728
59.610 17.644638
59.615 16.59133
59.620 16.294632
59.625 16.608433
59.630 16.883493
59.635 15.976357
59.640 15.38484
59.645 15.647386
59.650 16.28451
59.655 15.973306
59.660 15.924961
59.665 16.096834
59.670 16.206522
59.675 16.677711
59.680 16.685787
59.685 16.858675
59.690 16.721783
59.695 16.643948
59.700 16.989359
59.705 17.266495
59.710 17.215862
59.715 16.441101
59.720 16.012909
59.725 16.954882
59.730 17.085793
59.735 17.010191
59.740 17.577801
59.745 18.098906
59.750 19.612314
59.755 20.147839
59.760 19.726902
59.765 19.639503
59.770 19.798544
59.775 20.109299
59.780 20.081419
59.785 19.576475
59.790 18.828709
59.795 18.730457
59.800 19.052233
59.805 19.03583
59.810 18.558504
59.815 18.201231
59.820 17.886818
59.825 18.00563
59.830 17.830059
59.835 17.441568
59.840 17.324152
59.845 17.079056
59.850 17.118191
59.855 17.30612
59.860 17.103453
59.865 17.283827
59.870 16.945089
59.875 16.609318
59.880 17.41317
59.885 17.112591
59.890 17.082796
59.895 17.728201
59.900 18.216406
59.905 19.017056
59.910 19.06217
59.915 18.3866
59.920 18.4648
59.925 18.728661
59.930 18.475367
59.935 18.411522
59.940 18.200609
59.945 18.638107
59.950 18.843935
59.955 18.734098
59.960 18.764645
59.965 18.645145
59.970 18.024048
59.975 18.204594
59.980 18.278181
59.985 18.467585
59.990 18.450506
59.995 18.256868
60.000 18.763414
60.005 19.519377
60.010 18.926331
60.015 18.245981
60.020 17.821482
60.025 18.258453
60.030 18.389688
60.035 18.217234
60.040 18.039255
60.045 18.492947
60.050 19.090231
60.055 19.992304
60.060 20.569126
60.065 20.826469
60.070 20.576071
60.075 20.595152
60.080 20.206326
60.085 19.895563
60.090 19.639589
60.095 18.881767
60.100 19.044355
60.105 19.637745
60.110 19.146687
60.115 19.227716
60.120 19.750887
60.125 20.12871
60.130 20.149956
60.135 19.607584
60.140 19.815996
60.145 20.721079
60.150 21.239969
60.155 20.556112
60.160 20.077879
60.165 20.403858
60.170 20.723238
60.175 19.839085
60.180 19.007637
60.185 18.930849
60.190 19.244902
60.195 19.749212
60.200 19.66596
60.205 19.778265
60.210 20.753485
60.215 21.640295
60.220 21.86228
60.225 22.346943
60.230 22.332355
60.235 22.549604
60.240 22.372545
60.245 22.112146
60.250 21.551123
60.255 21.336294
60.260 20.992205
60.265 20.633787
60.270 20.595627
60.275 20.773697
60.280 20.746769
60.285 20.826103
60.290 21.099306
60.295 21.260567
60.300 20.817278
60.305 20.391079
60.310 19.99979
60.315 20.127855
60.320 19.943851
60.325 19.655848
60.330 20.539137
60.335 21.251537
60.340 21.125229
60.345 21.293722
60.350 21.526649
60.355 22.18605
60.360 22.296558
60.365 21.760681
60.370 21.588112
60.375 21.678183
60.380 22.042677
60.385 21.911577
60.390 21.836319
60.395 21.480621
60.400 21.487865
60.405 21.429272
60.410 21.913065
60.415 21.657673
60.420 21.663988
60.425 21.11581
60.430 21.078268
60.435 20.300362
60.440 20.388288
60.445 19.345856
60.450 18.663147
60.455 18.482689
60.460 19.235594
60.465 19.671734
60.470 20.0467
60.475 20.2796
60.480 20.989985
60.485 21.530132
60.490 21.507923
60.495 21.273067
60.500 21.038715
60.505 21.098715
60.510 21.266417
60.515 21.304157
60.520 20.905802
60.525 20.785536
60.530 20.317984
60.535 19.908604
60.540 19.876623
60.545 19.546566
60.550 19.292784
60.555 19.345329
60.560 19.214239
60.565 19.094828
60.570 19.244942
60.575 19.629999
60.580 19.584818
60.585 20.461857
60.590 20.852392
60.595 21.169813
60.600 21.508333
60.605 21.531223
60.610 21.53496
60.615 21.248749
60.620 21.103029
60.625 20.571192
60.630 20.200855
60.635 19.445999
60.640 18.899479
60.645 18.206053
60.650 17.672628
60.655 17.351521
60.660 17.920572
60.665 18.404285
60.670 18.681488
60.675 18.985025
60.680 19.151886
60.685 19.330872
60.690 18.451555
60.695 17.726728
60.700 17.584824
60.705 17.961864
60.710 17.846518
60.715 17.919874
60.720 18.263372
60.725 18.614775
60.730 18.629597
60.735 18.558699
60.740 18.18891
60.745 18.428442
60.750 18.416714
60.755 17.689617
60.760 17.965694
60.765 18.192993
60.770 17.930307
60.775 18.023218
60.780 18.300938
60.785 19.00201
60.790 19.59918
60.795 19.604635
60.800 19.705536
60.805 20.348778
60.810 20.314495
60.815 19.924696
60.820 19.772175
60.825 19.809963
60.830 19.864929
60.835 19.376999
60.840 18.996927
60.845 19.164968
60.850 18.539103
60.855 18.850367
60.860 18.67964
60.865 18.596697
60.870 18.967051
60.875 18.916906
60.880 19.071596
60.885 19.196548
60.890 18.932215
60.895 19.717022
60.900 19.608162
60.905 19.087385
60.910 18.71703
60.915 18.298964
60.920 18.079794
60.925 17.227299
60.930 16.447153
60.935 16.442354
60.940 16.649973
60.945 16.590204
60.950 15.564973
60.955 15.167253
60.960 15.104102
60.965 14.916528
60.970 14.871367
60.975 14.901238
60.980 15.425035
60.985 16.211802
60.990 16.951014
60.995 17.308149
61.000 17.040239
61.005 16.388536
61.010 15.94416
61.015 15.562265
61.020 15.063729
61.025 14.496149
61.030 15.173461
61.035 15.784233
61.040 17.022938
61.045 17.6003
61.050 17.7665
61.055 18.080517
61.060 18.023493
61.065 16.987061
61.070 16.804708
61.075 16.36739
61.080 16.301142
61.085 16.600401
61.090 16.5438
61.095 16.739494
61.100 16.998047
61.105 17.067591
61.110 16.647337
61.115 16.32357
61.120 15.652032
61.125 15.743569
61.130 15.941236
61.135 16.131783
61.140 15.927888
61.145 15.88025
61.150 15.968034
61.155 16.367647
61.160 16.319426
61.165 16.118681
61.170 15.681926
61.175 15.350305
61.180 15.228165
61.185 15.065464
61.190 15.213076
61.195 15.40662
61.200 15.801968
61.205 16.194357
61.210 16.954765
61.215 17.167704
61.220 17.595026
61.225 17.579657
61.230 17.715065
61.235 17.565247
61.240 17.436869
61.245 17.292633
61.250 17.242983
61.255 17.042603
61.260 17.60697
61.265 18.143476
61.270 18.489666
61.275 19.059771
61.280 19.115925
61.285 19.050812
61.290 19.423065
61.295 18.841005
61.300 18.103262
61.305 17.331924
61.310 16.784859
61.315 16.595839
61.320 16.753054
61.325 16.352676
61.330 15.945165
61.335 16.533211
61.340 17.202452
61.345 17.31995
61.350 17.50453
61.355 17.467476
61.360 17.60507
61.365 18.036222
61.370 17.739052
61.375 17.175724
61.380 17.078859
61.385 16.727488
61.390 16.601295
61.395 16.350233
61.400 15.614214
61.405 15.173787
61.410 15.19105
61.415 14.800265
61.420 14.867023
61.425 15.223899
61.430 15.347698
61.435 15.661314
61.440 15.745013
61.445 16.115486
61.450 16.816717
61.455 17.138786
61.460 16.776627
61.465 16.64863
61.470 16.772844
61.475 16.978891
61.480 17.15617
61.485 16.770256
61.490 16.473301
61.495 16.442019
61.500 16.440161
61.505 16.130371
61.510 16.219591
61.515 16.176239
61.520 16.552589
61.525 16.853483
61.530 17.152075
61.535 17.008375
61.540 17.131828
61.545 16.969236
61.550 16.856619
61.555 16.981956
61.560 17.260637
61.565 17.449568
61.570 18.255617
61.575 18.214298
61.580 18.232153
61.585 18.091541
61.590 17.484261
61.595 17.472305
61.600 16.996885
61.605 16.076042
61.610 15.508994
61.615 15.055178
61.620 14.727217
61.625 14.87313
61.630 14.598192
61.635 14.408777
61.640 14.628675
61.645 15.522468
61.650 16.261372
61.655 16.907009
61.660 17.115555
61.665 17.419064
61.670 17.815355
61.675 17.925789
61.680 17.558985
61.685 17.327526
61.690 17.225557
61.695 17.390993
61.700 17.320665
61.705 17.472897
61.710 17.612009
61.715 17.922911
61.720 17.723652
61.725 17.31806
61.730 16.959595
61.735 17.095495
61.740 16.757835
61.745 16.732361
61.750 16.341908
61.755 16.404631
61.760 16.402029
61.765 16.403177
61.770 15.982349
61.775 16.295713
61.780 16.104185
61.785 15.706464
61.790 15.86193
61.795 16.3778
61.800 16.488596
61.805 16.843409
61.810 16.95956
61.815 16.556667
61.820 16.24873
61.825 16.263956
61.830 16.198044
61.835 16.123209
61.840 16.26329
61.845 16.238256
61.850 16.827681
61.855 17.794701
61.860 17.967287
61.865 18.014904
61.870 17.827749
61.875 17.71703
61.880 17.61232
61.885 17.414169
61.890 17.81708
61.895 17.898539
61.900 18.085159
61.905 18.609922
61.910 19.168934
61.915 19.430222
61.920 19.313547
61.925 18.733887
61.930 18.409649
61.935 18.178711
61.940 17.330597
61.945 16.637352
61.950 16.427359
61.955 16.201805
61.960 15.421368
61.965 14.910309
61.970 14.954497
61.975 15.3339
61.980 15.450332
61.985 16.123888
61.990 16.681768
61.995 16.688164
62.000 16.637352
62.005 16.856836
62.010 16.887432
62.015 16.782459
62.020 16.27059
62.025 16.809906
62.030 17.199215
62.035 17.059669
62.040 16.831734
62.045 16.916285
62.050 16.644903
62.055 16.46217
62.060 15.682037
62.065 15.036874
62.070 15.314539
62.075 15.016271
62.080 14.807663
62.085 15.184302
62.090 15.079764
62.095 15.38815
62.100 15.903457
62.105 15.731771
62.110 15.892189
62.115 16.199678
62.120 16.681532
62.125 17.012306
62.130 17.26268
62.135 17.817635
62.140 18.018162
62.145 18.050406
62.150 17.730309
62.155 16.84403
62.160 16.905134
62.165 16.653259
62.170 16.587574
62.175 17.334852
62.180 17.192396
62.185 17.191786
62.190 17.488018
62.195 17.758228
62.200 18.107721
62.205 17.524628
62.210 17.291769
62.215 17.199678
62.220 17.254173
62.225 17.170172
62.230 16.252785
62.235 16.583147
62.240 17.176964
62.245 17.408077
62.250 17.803467
62.255 17.383785
62.260 17.04504
62.265 17.20686
62.270 16.939747
62.275 16.194408
62.280 15.486303
62.285 15.268994
62.290 15.92062
62.295 16.712362
62.300 16.75448
62.305 16.96015
62.310 17.657551
62.315 17.867897
62.320 17.403479
62.325 16.770048
62.330 16.614239
62.335 17.109596
62.340 16.750853
62.345 15.914776
62.350 15.655177
62.355 15.917986
62.360 16.251034
62.365 16.274122
62.370 16.190662
62.375 16.089325
62.380 16.143673
62.385 16.250439
62.390 16.973545
62.395 17.143549
62.400 17.091202
62.405 17.182327
62.410 17.407892
62.415 17.826368
62.420 17.630047
62.425 17.196569
62.430 16.960651
62.435 16.735611
62.440 16.338394
62.445 16.553629
62.450 16.051926
62.455 16.535267
62.460 16.546688
62.465 16.925819
62.470 17.230013
62.475 16.790199
62.480 16.358612
62.485 16.586588
62.490 16.296852
62.495 15.886887
62.500 15.685709
62.505 15.137378
62.510 15.600678
62.515 16.330978
62.520 16.248709
62.525 16.068531
62.530 16.050598
62.535 15.974951
62.540 16.634949
62.545 16.83988
62.550 16.745365
62.555 17.769266
62.560 18.116783
62.565 17.747509
62.570 17.904505
62.575 17.690403
62.580 17.604958
62.585 16.510469
62.590 15.136262
62.595 14.882512
62.600 15.534074
62.605 15.729678
62.610 15.996289
62.615 15.637198
62.620 15.928932
62.625 16.17976
62.630 16.274155
62.635 16.124361
62.640 15.562752
62.645 15.363336
62.650 15.487788
62.655 15.974971
62.660 16.804062
62.665 16.754353
62.670 16.766064
62.675 17.484751
62.680 17.78805
62.685 17.978735
62.690 18.46855
62.695 18.223391
62.700 18.061598
62.705 18.023453
62.710 17.535648
62.715 17.168245
62.720 16.834446
62.725 16.309313
62.730 16.631552
62.735 17.055691
62.740 17.039528
62.745 17.241804
62.750 17.396826
62.755 18.002964
62.760 17.39867
62.765 17.191874
62.770 17.018469
62.775 17.451872
62.780 17.425819
62.785 17.578386
62.790 17.630817
62.795 17.75099
62.800 17.324583
62.805 17.625576
62.810 17.215424
62.815 17.260616
62.820 17.208902
62.825 17.099846
62.830 17.067801
62.835 17.075937
62.840 17.041885
62.845 16.706348
62.850 15.997689
62.855 15.882808
62.860 15.885665
62.865 16.012087
62.870 16.348063
62.875 15.981009
62.880 16.036783
62.885 15.91602
62.890 16.02574
62.895 16.316833
62.900 16.75313
62.905 16.942427
62.910 17.115932
62.915 17.281534
62.920 17.423197
62.925 17.411169
62.930 17.05838
62.935 16.706614
62.940 15.936769
62.945 15.796514
62.950 15.250687
62.955 15.135601
62.960 14.526703
62.965 14.309477
62.970 14.509521
62.975 14.947353
62.980 15.022546
62.985 15.576935
62.990 16.39315
62.995 16.805393
63.000 17.233234
63.005 17.255356
63.010 17.173624
63.015 17.119898
63.020 17.211948
63.025 17.040154
63.030 17.411314
63.035 17.070202
63.040 16.883776
63.045 17.134951
63.050 17.316746
63.055 17.053715
63.060 17.12701
63.065 17.209784
63.070 17.600517
63.075 17.666313
63.080 17.449398
63.085 17.694168
63.090 18.126083
63.095 18.263178
63.100 17.984705
63.105 17.619102
63.110 17.435057
63.115 17.88236
63.120 18.01841
63.125 17.641941
63.130 17.508755
63.135 17.202991
63.140 17.28738
63.145 17.403868
63.150 16.654158
63.155 16.577278
63.160 17.061813
63.165 17.790834
63.170 17.734856
63.175 17.88209
63.180 18.308296
63.185 18.453369
63.190 18.64333
63.195 17.951372
63.200 17.251705
63.205 17.592846
63.210 17.73382
63.215 17.47699
63.220 17.248547
63.225 16.814989
63.230 16.916021
63.235 16.710003
63.240 16.659698
63.245 16.290115
63.250 16.014261
63.255 16.465836
63.260 16.628448
63.265 16.305187
63.270 16.267641
63.275 16.355005
63.280 16.59123
63.285 17.253162
63.290 17.051596
63.295 17.422962
63.300 17.868198
63.305 18.127516
63.310 18.068262
63.315 18.392178
63.320 18.061163
63.325 18.046761
63.330 17.834358
63.335 17.934725
63.340 17.887949
63.345 17.600386
63.350 17.437286
63.355 17.551529
63.360 18.0445
63.365 18.028872
63.370 17.727201
63.375 17.964611
63.380 18.291414
63.385 18.408684
63.390 18.303572
63.395 17.40176
63.400 17.27132
63.405 17.225126
63.410 16.991728
63.415 17.130041
63.420 16.739279
63.425 16.493553
63.430 17.158712
63.435 17.629223
63.440 18.211998
63.445 18.28091
63.450 17.879875
63.455 17.902514
63.460 18.089636
63.465 17.999229
63.470 17.613766
63.475 17.48377
63.480 17.268
63.485 17.339003
63.490 17.383223
63.495 17.033514
63.500 17.139311
63.505 17.442532
63.510 17.198227
63.515 17.105476
63.520 16.737705
63.525 16.283825
63.530 16.627476
63.535 16.471182
63.540 16.57093
63.545 16.659
63.550 17.543324
63.555 18.600666
63.560 19.350353
63.565 19.740559
63.570 19.469841
63.575 19.168505
63.580 19.200623
63.585 18.950012
63.590 18.801136
63.595 18.532763
63.600 18.370356
63.605 18.844608
63.610 18.714411
63.615 18.197544
63.620 17.773476
63.625 17.631777
63.630 17.002321
63.635 16.97201
63.640 16.653086
63.645 16.553034
63.650 16.882963
63.655 17.028028
63.660 17.61335
63.665 18.134003
63.670 17.455809
63.675 17.306864
63.680 16.695793
63.685 16.534082
63.690 16.399002
63.695 16.290474
63.700 16.148647
63.705 16.857979
63.710 17.200525
63.715 17.844229
63.720 18.239594
63.725 17.663555
63.730 17.445591
63.735 18.161924
63.740 17.550747
63.745 17.522951
63.750 17.307781
63.755 17.002085
63.760 17.2188
63.765 16.845716
63.770 16.40214
63.775 16.347597
63.780 17.326187
63.785 17.477386
63.790 17.563248
63.795 17.591572
63.800 17.915331
63.805 17.796005
63.810 17.949209
63.815 17.579483
63.820 17.366949
63.825 17.789494
63.830 17.242128
63.835 17.271486
63.840 16.787718
63.845 16.513296
63.850 16.496767
63.855 16.401884
63.860 16.400236
63.865 16.914478
63.870 16.555439
63.875 16.8722
63.880 17.012362
63.885 16.921206
63.890 16.808523
63.895 16.529955
63.900 16.498289
63.905 17.168249
63.910 17.716948
63.915 17.629974
63.920 17.544914
63.925 17.893778
63.930 17.885107
63.935 17.826235
63.940 17.576063
63.945 17.012495
63.950 16.946281
63.955 17.061579
63.960 17.14629
63.965 17.451069
63.970 17.876839
63.975 18.049726
63.980 18.155699
63.985 18.774549
63.990 18.867903
63.995 19.062262
64.000 18.996664
64.005 18.802473
64.010 19.035635
64.015 19.423811
64.020 19.655359
64.025 19.779518
64.030 19.781258
64.035 19.719425
64.040 19.177498
64.045 18.949236
64.050 19.402664
64.055 18.873121
64.060 18.720219
64.065 19.000795
64.070 19.066803
64.075 19.546116
64.080 19.597612
64.085 18.981087
64.090 18.955999
64.095 19.106569
64.100 19.355692
64.105 19.392727
64.110 18.910053
64.115 18.78813
64.120 18.973177
64.125 18.967155
64.130 18.481026
64.135 18.052372
64.140 17.935061
64.145 17.993063
64.150 18.31332
64.155 17.794481
64.160 17.823183
64.165 17.746691
64.170 17.896681
64.175 18.255816
64.180 18.205353
64.185 18.443247
64.190 19.277395
64.195 19.624218
64.200 20.030069
64.205 19.476532
64.210 18.869814
64.215 18.969536
64.220 18.390015
64.225 18.158651
64.230 17.99193
64.235 17.530247
64.240 17.7411
64.245 17.983833
64.250 17.585468
64.255 17.504686
64.260 16.990318
64.265 16.917332
64.270 17.127213
64.275 17.213129
64.280 17.277098
64.285 17.470552
64.290 18.144257
64.295 18.366127
64.300 18.665718
64.305 18.690388
64.310 18.334862
64.315 18.122614
64.320 18.129776
64.325 17.747717
64.330 18.013542
64.335 18.305096
64.340 18.064554
64.345 18.213028
64.350 18.551365
64.355 18.724405
64.360 18.612347
64.365 17.9011
64.370 16.834381
64.375 17.166489
64.380 17.403944
64.385 17.259396
64.390 17.351053
64.395 17.316607
64.400 17.506672
64.405 18.23914
64.410 18.429914
64.415 18.374945
64.420 18.658911
64.425 18.635086
64.430 18.533182
64.435 18.534788
64.440 18.758837
64.445 18.540623
64.450 18.689384
64.455 18.839399
64.460 19.172279
64.465 19.660955
64.470 19.891853
64.475 19.770773
64.480 19.791702
64.485 19.794491
64.490 19.546595
64.495 19.312168
64.500 18.63022
64.505 18.241383
64.510 18.201384
64.515 18.249899
64.520 18.015297
64.525 17.943329
64.530 17.678642
64.535 18.585108
64.540 19.430706
64.545 19.983465
64.550 20.023182
64.555 20.443892
64.560 20.680592
64.565 21.085262
64.570 20.700075
64.575 19.969677
64.580 19.390135
64.585 19.647354
64.590 19.618299
64.595 19.404079
64.600 19.341232
64.605 18.607058
64.610 18.647978
64.615 18.393724
64.620 18.336863
64.625 18.295389
64.630 18.49711
64.635 19.194603
64.640 20.55093
64.645 20.336035
64.650 20.204435
64.655 19.77499
64.660 19.519535
64.665 19.234137
64.670 19.069851
64.675 18.767321
64.680 19.288673
64.685 19.6115
64.690 19.600937
64.695 19.636551
64.700 19.885311
64.705 19.506107
64.710 19.025957
64.715 18.652416
64.720 19.005466
64.725 19.179497
64.730 18.863344
64.735 18.761362
64.740 18.281479
64.745 18.117626
64.750 18.417416
64.755 17.954056
64.760 18.151728
64.765 18.411882
64.770 18.299856
64.775 18.336563
64.780 18.353611
64.785 18.16408
64.790 17.814484
64.795 17.539314
64.800 17.713064
64.805 17.402651
64.810 17.570616
64.815 17.445517
64.820 17.526421
64.825 18.058878
64.830 18.026035
64.835 17.8862
64.840 18.351715
64.845 19.046936
64.850 19.490816
64.855 19.219845
64.860 18.996174
64.865 19.183077
64.870 19.152405
64.875 18.973549
64.880 18.517654
64.885 18.000839
64.890 17.915077
64.895 18.500874
64.900 18.924915
64.905 19.325012
64.910 19.936054
64.915 19.723202
64.920 20.114491
64.925 20.084135
64.930 19.254173
64.935 19.060242
64.940 18.853428
64.945 18.531021
64.950 19.284336
64.955 18.790867
64.960 18.633507
64.965 18.620815
64.970 18.135202
64.975 17.808285
64.980 17.863605
64.985 18.183796
64.990 19.15943
64.995 19.578953
65.000 19.814283
65.005 20.004995
65.010 20.223814
65.015 20.380022
65.020 20.481739
65.025 20.941406
65.030 21.709606
65.035 21.702902
65.040 22.15831
65.045 22.425993
65.050 22.164295
65.055 21.768221
65.060 21.584194
65.065 21.398899
65.070 22.120369
65.075 23.010384
65.080 23.153378
65.085 23.334871
65.090 22.969774
65.095 22.882093
65.100 23.209635
65.105 23.03672
65.110 22.420242
65.115 22.186712
65.120 21.926722
65.125 21.907703
65.130 21.583139
65.135 21.351055
65.140 21.541323
65.145 21.529589
65.150 21.582558
65.155 21.850971
65.160 21.899317
65.165 22.214319
65.170 22.320526
65.175 21.965748
65.180 21.711187
65.185 21.733456
65.190 22.120441
65.195 22.418264
65.200 22.81167
65.205 22.618633
65.210 22.336445
65.215 22.567972
65.220 22.828463
65.225 22.758135
65.230 22.12768
65.235 21.271067
65.240 21.26338
65.245 21.060175
65.250 20.924053
65.255 20.612627
65.260 20.325304
65.265 20.275986
65.270 20.888647
65.275 21.566786
65.280 22.088314
65.285 21.742599
65.290 22.35713
65.295 22.667835
65.300 23.581833
65.305 22.756891
65.310 22.195618
65.315 22.242016
65.320 22.77536
65.325 22.506962
65.330 22.476431
65.335 21.769033
65.340 22.576405
65.345 22.484329
65.350 22.280344
65.355 21.766914
65.360 21.392906
65.365 21.399721
65.370 21.956951
65.375 21.604702
65.380 21.898506
65.385 22.323935
65.390 22.215824
65.395 22.049599
65.400 22.254601
65.405 22.011276
65.410 21.96064
65.415 21.877676
65.420 21.715342
65.425 22.037018
65.430 22.365379
65.435 22.134077
65.440 22.104048
65.445 22.309818
65.450 22.339663
65.455 22.735456
65.460 23.14394
65.465 22.73868
65.470 22.779406
65.475 22.940151
65.480 22.9044
65.485 23.054167
65.490 23.116503
65.495 23.045555
65.500 23.452265
65.505 23.428379
65.510 23.363289
65.515 23.63345
65.520 23.679169
65.525 23.327229
65.530 23.389921
65.535 24.039337
65.540 24.986506
65.545 26.041393
65.550 26.219604
65.555 26.070173
65.560 26.343031
65.565 26.248068
65.570 25.731592
65.575 25.386742
65.580 25.380047
65.585 25.292015
65.590 25.56316
65.595 26.227062
65.600 27.029993
65.605 27.82671
65.610 29.11079
65.615 29.396309
65.620 30.259169
65.625 30.322424
65.630 30.238279
65.635 29.893492
65.640 29.496689
65.645 29.494867
65.650 29.67885
65.655 29.968239
65.660 29.927692
65.665 29.918798
65.670 30.203897
65.675 30.772333
65.680 30.545866
65.685 30.485334
65.690 29.954443
65.695 30.703062
65.700 31.410715
65.705 32.125031
65.710 32.693005
65.715 32.695961
65.720 33.333073
65.725 33.994576
65.730 34.252125
65.735 34.544621
65.740 34.051479
65.745 33.51825
65.750 33.69878
65.755 33.506317
65.760 34.017399
65.765 34.068573
65.770 33.694984
65.775 33.869732
65.780 33.402882
65.785 33.314129
65.790 32.978001
65.795 32.054981
65.800 32.039772
65.805 32.655113
65.810 33.621044
65.815 34.190414
65.820 34.376236
65.825 35.21619
65.830 36.287445
65.835 36.98703
65.840 37.163921
65.845 37.261848
65.850 38.131439
65.855 38.580601
65.860 38.381477
65.865 38.020332
65.870 37.568806
65.875 37.367859
65.880 37.080967
65.885 37.368858
65.890 37.13699
65.895 36.479202
65.900 36.263527
65.905 36.483147
65.910 36.702415
65.915 36.422089
65.920 35.735149
65.925 36.156216
65.930 36.965435
65.935 37.448162
65.940 37.652737
65.945 37.768982
65.950 38.436478
65.955 38.565353
65.960 38.056759
65.965 38.025238
65.970 37.571114
65.975 37.365219
65.980 37.262009
65.985 36.729855
65.990 36.897217
65.995 36.906876
66.000 37.02541
66.005 36.68914
66.010 37.024143
66.015 37.408176
66.020 36.952663
66.025 37.418159
66.030 38.011097
66.035 38.244686
66.040 38.522755
66.045 38.019547
66.050 37.593979
66.055 37.999405
66.060 37.50362
66.065 37.769051
66.070 37.085136
66.075 37.018192
66.080 37.388985
66.085 37.576889
66.090 38.275211
66.095 38.308651
66.100 37.920322
66.105 38.225071
66.110 37.819
66.115 36.966496
66.120 36.71537
66.125 36.132504
66.130 35.87236
66.135 35.645111
66.140 35.600986
66.145 35.918556
66.150 36.162716
66.155 35.414974
66.160 34.981197
66.165 35.06012
66.170 35.599159
66.175 35.617939
66.180 35.374977
66.185 35.898006
66.190 36.322231
66.195 36.064537
66.200 36.182339
66.205 36.046799
66.210 35.312584
66.215 35.057262
66.220 34.213768
66.225 34.157688
66.230 34.548012
66.235 34.431511
66.240 34.228306
66.245 34.37825
66.250 34.413692
66.255 34.49659
66.260 33.963669
66.265 33.938457
66.270 33.133228
66.275 33.005516
66.280 32.977905
66.285 32.481915
66.290 32.470615
66.295 32.233459
66.300 31.700806
66.305 31.594669
66.310 31.179861
66.315 30.451275
66.320 30.485195
66.325 30.661228
66.330 31.264906
66.335 31.086292
66.340 31.051764
66.345 31.209049
66.350 31.192301
66.355 30.275517
66.360 29.468872
66.365 29.001873
66.370 28.772007
66.375 28.065908
66.380 27.855715
66.385 28.416101
66.390 28.747965
66.395 28.905912
66.400 28.831263
66.405 29.288588
66.410 29.210072
66.415 28.629889
66.420 28.849873
66.425 28.806349
66.430 28.69047
66.435 28.949997
66.440 28.338945
66.445 28.346418
66.450 28.634405
66.455 27.649401
66.460 27.566759
66.465 27.892206
66.470 27.37322
66.475 27.241222
66.480 27.206148
66.485 27.222486
66.490 27.827539
66.495 27.828239
66.500 27.705784
66.505 28.232887
66.510 28.798685
66.515 29.115414
66.520 29.217623
66.525 29.308226
66.530 29.098848
66.535 28.968161
66.540 28.20244
66.545 27.761986
66.550 28.089624
66.555 28.374374
66.560 28.095057
66.565 28.204987
66.570 28.072159
66.575 28.091444
66.580 27.977695
66.585 27.388828
66.590 26.716103
66.595 26.974779
66.600 26.813841
66.605 26.801506
66.610 26.96213
66.615 27.024466
66.620 27.472685
66.625 27.351807
66.630 27.025129
66.635 27.008142
66.640 27.255686
66.645 27.686405
66.650 27.280874
66.655 27.303391
66.660 26.79911
66.665 26.66757
66.670 26.464273
66.675 25.845093
66.680 25.190445
66.685 25.123646
66.690 25.305153
66.695 25.417383
66.700 25.523424
66.705 24.952036
66.710 24.93259
66.715 25.07164
66.720 24.267954
66.725 23.875519
66.730 23.546614
66.735 23.711653
66.740 24.438845
66.745 24.466223
66.750 24.567612
66.755 24.777546
66.760 25.172274
66.765 25.777468
66.770 25.893591
66.775 25.799038
66.780 25.676165
66.785 25.972818
66.790 25.46553
66.795 24.731497
66.800 24.577293
66.805 24.681156
66.810 24.414989
66.815 23.510447
66.820 22.73105
66.825 23.213217
66.830 22.916567
66.835 22.633173
66.840 21.612165
66.845 21.200529
66.850 21.209269
66.855 21.371984
66.860 20.962444
66.865 21.642361
66.870 21.797659
66.875 22.784046
66.880 23.668974
66.885 24.396778
66.890 24.788382
66.895 24.407389
66.900 23.884541
66.905 23.707895
66.910 23.097979
66.915 22.789572
66.920 22.36964
66.925 22.326702
66.930 22.279421
66.935 21.732901
66.940 21.229069
66.945 21.28005
66.950 21.14999
66.955 21.112017
66.960 21.178425
66.965 21.783295
66.970 22.582312
66.975 22.416533
66.980 22.34057
66.985 22.537205
66.990 21.962833
66.995 21.156094
67.000 20.593363
67.005 20.70402
67.010 21.474066
67.015 21.772522
67.020 21.915569
67.025 22.89043
67.030 23.4079
67.035 23.595051
67.040 23.268353
67.045 23.134268
67.050 22.903994
67.055 22.711554
67.060 22.494431
67.065 22.676514
67.070 22.568884
67.075 22.715031
67.080 22.417707
67.085 22.774122
67.090 23.1341
67.095 23.555155
67.100 23.612535
67.105 23.617968
67.110 23.682495
67.115 24.075911
67.120 23.593777
67.125 23.125883
67.130 22.41567
67.135 21.835272
67.140 20.79594
67.145 20.347334
67.150 20.613054
67.155 20.70755
67.160 21.092159
67.165 21.865271
67.170 22.762396
67.175 23.252676
67.180 23.446663
67.185 23.029398
67.190 23.402534
67.195 23.125059
67.200 22.373161
67.205 21.946167
67.210 22.793974
67.215 22.444191
67.220 22.581591
67.225 22.674236
67.230 22.767136
67.235 23.358799
67.240 23.755779
67.245 23.576273
67.250 23.620565
67.255 23.235275
67.260 22.570553
67.265 22.795908
67.270 22.596865
67.275 21.820719
67.280 20.905867
67.285 20.743334
67.290 20.521759
67.295 20.350206
67.300 19.309244
67.305 19.068558
67.310 18.854013
67.315 18.916786
67.320 18.668596
67.325 18.815239
67.330 19.372046
67.335 19.97394
67.340 20.088762
67.345 20.660967
67.350 20.660315
67.355 20.771919
67.360 20.567774
67.365 20.46133
67.370 21.022152
67.375 21.419168
67.380 21.888098
67.385 22.331457
67.390 22.496279
67.395 22.686951
67.400 22.676208
67.405 21.827635
67.410 21.476797
67.415 21.0819
67.420 20.700426
67.425 20.669367
67.430 20.998093
67.435 21.07196
67.440 21.487162
67.445 21.615417
67.450 22.003096
67.455 22.500389
67.460 23.032587
67.465 22.889763
67.470 22.818274
67.475 22.72212
67.480 22.601105
67.485 22.230028
67.490 21.555698
67.495 20.962389
67.500 20.248291
67.505 19.951935
67.510 20.293592
67.515 20.575607
67.520 21.201235
67.525 21.50522
67.530 21.237253
67.535 21.090006
67.540 20.984201
67.545 20.507982
67.550 20.479078
67.555 19.849211
67.560 20.06946
67.565 20.465321
67.570 20.861094
67.575 21.166122
67.580 20.96381
67.585 20.604933
67.590 20.978655
67.595 21.383965
67.600 21.527687
67.605 21.448254
67.610 21.656303
67.615 21.598213
67.620 21.345919
67.625 21.127861
67.630 20.826975
67.635 21.036242
67.640 21.203941
67.645 20.566652
67.650 20.376392
67.655 21.030365
67.660 21.598791
67.665 21.279583
67.670 21.006903
67.675 21.331861
67.680 21.959301
67.685 22.363331
67.690 21.850134
67.695 21.739555
67.700 21.88541
67.705 21.662169
67.710 21.683592
67.715 21.550165
67.720 21.637709
67.725 21.154915
67.730 20.499552
67.735 20.29328
67.740 20.351482
67.745 20.41328
67.750 20.700836
67.755 20.480593
67.760 20.527964
67.765 20.762436
67.770 20.819998
67.775 20.779654
67.780 20.1717
67.785 19.88586
67.790 20.037577
67.795 20.189432
67.800 20.28945
67.805 20.239893
67.810 20.52043
67.815 21.123158
67.820 21.486233
67.825 21.291002
67.830 21.48929
67.835 21.851389
67.840 21.934671
67.845 21.744328
67.850 21.429043
67.855 21.543535
67.860 21.99098
67.865 21.794815
67.870 21.855391
67.875 22.261381
67.880 21.860954
67.885 21.508293
67.890 21.056503
67.895 21.325705
67.900 20.855276
67.905 20.42712
67.910 20.447834
67.915 21.034838
67.920 21.330503
67.925 21.130901
67.930 21.03894
67.935 22.137329
67.940 22.510832
67.945 22.640514
67.950 22.33033
67.955 22.588572
67.960 22.651941
67.965 22.210192
67.970 21.240267
67.975 21.03569
67.980 20.966599
67.985 20.86861
67.990 21.011351
67.995 21.149534
68.000 21.212332
68.005 21.635019
68.010 21.559954
68.015 21.334642
68.020 21.420568
68.025 21.182573
68.030 21.852209
68.035 21.891104
68.040 21.54533
68.045 21.284159
68.050 20.989309
68.055 20.942656
68.060 20.542801
68.065 20.043276
68.070 20.220438
68.075 20.333126
68.080 20.602924
68.085 20.723909
68.090 20.282782
68.095 20.83452
68.100 20.879034
68.105 21.573954
68.110 22.022419
68.115 22.373028
68.120 22.82295
68.125 23.317232
68.130 23.722519
68.135 24.145187
68.140 22.789351
68.145 22.613228
68.150 21.987312
68.155 21.500179
68.160 21.493753
68.165 20.686905
68.170 20.008318
68.175 19.894674
68.180 19.231218
68.185 19.475447
68.190 19.926041
68.195 20.362829
68.200 20.211021
68.205 20.564732
68.210 20.921066
68.215 21.422173
68.220 21.130001
68.225 20.596035
68.230 19.874928
68.235 19.379187
68.240 19.901733
68.245 20.040989
68.250 20.087606
68.255 21.172895
68.260 21.531786
68.265 21.902554
68.270 22.150417
68.275 22.094822
68.280 22.354517
68.285 22.174391
68.290 21.304468
68.295 21.135149
68.300 21.254017
68.305 21.661152
68.310 21.4984
68.315 21.118877
68.320 20.829216
68.325 21.149431
68.330 20.898283
68.335 21.16618
68.340 20.919027
68.345 21.104795
68.350 21.817295
68.355 22.436899
68.360 22.467756
68.365 22.758196
68.370 22.10623
68.375 21.810228
68.380 21.676685
68.385 21.556232
68.390 21.585642
68.395 21.08
68.400 21.012527
68.405 21.162369
68.410 21.129078
68.415 21.183834
68.420 21.054653
68.425 20.566771
68.430 20.621588
68.435 20.558086
68.440 20.543659
68.445 20.841894
68.450 20.889059
68.455 20.89481
68.460 20.840696
68.465 21.145962
68.470 21.129957
68.475 21.385248
68.480 21.292862
68.485 21.200235
68.490 21.57086
68.495 22.067732
68.500 21.74625
68.505 22.25205
68.510 22.688862
68.515 23.423439
68.520 23.829224
68.525 23.443197
68.530 23.747272
68.535 24.39782
68.540 24.308474
68.545 24.301857
68.550 23.656399
68.555 22.641663
68.560 22.882046
68.565 23.173731
68.570 23.032431
68.575 22.75173
68.580 22.201771
68.585 22.700911
68.590 22.632366
68.595 22.343559
68.600 21.702337
68.605 21.137089
68.610 21.187799
68.615 21.088715
68.620 20.914011
68.625 21.145098
68.630 20.886005
68.635 20.791224
68.640 20.990602
68.645 21.107113
68.650 20.667055
68.655 20.947844
68.660 21.431887
68.665 21.331276
68.670 21.337435
68.675 21.344193
68.680 21.223228
68.685 21.324341
68.690 22.213997
68.695 22.472414
68.700 22.808508
68.705 23.09358
68.710 22.750193
68.715 22.641344
68.720 22.547087
68.725 20.902615
68.730 20.532455
68.735 20.482386
68.740 20.739237
68.745 21.107752
68.750 21.906443
68.755 22.00358
68.760 22.762634
68.765 22.967905
68.770 23.12694
68.775 23.236774
68.780 22.5975
68.785 21.878784
68.790 21.681593
68.795 20.97053
68.800 21.195133
68.805 20.951395
68.810 20.440245
68.815 20.875046
68.820 21.20866
68.825 21.502485
68.830 21.607866
68.835 21.725883
68.840 21.825773
68.845 22.405294
68.850 22.663719
68.855 22.573084
68.860 22.240181
68.865 22.211451
68.870 22.049255
68.875 22.326071
68.880 21.589502
68.885 21.410297
68.890 21.330486
68.895 21.626514
68.900 21.495014
68.905 20.750196
68.910 20.457146
68.915 20.239151
68.920 20.118532
68.925 20.787622
68.930 20.847914
68.935 21.422289
68.940 22.484423
68.945 23.277443
68.950 23.614187
68.955 23.856829
68.960 23.674192
68.965 23.331638
68.970 22.966543
68.975 22.261494
68.980 21.763176
68.985 21.999807
68.990 22.202507
68.995 21.881313
69.000 22.260839
69.005 23.271511
69.010 23.459801
69.015 23.495699
69.020 23.517712
69.025 23.806229
69.030 24.262266
69.035 24.47089
69.040 24.427687
69.045 25.190788
69.050 25.82044
69.055 25.716043
69.060 25.859936
69.065 25.492722
69.070 24.770058
69.075 24.643166
69.080 24.73576
69.085 24.775848
69.090 24.704763
69.095 24.538506
69.100 25.25754
69.105 25.776947
69.110 25.650005
69.115 24.985352
69.120 24.765833
69.125 24.750269
69.130 24.682459
69.135 24.487803
69.140 24.489714
69.145 24.155436
69.150 24.429543
69.155 24.722853
69.160 25.083698
69.165 25.352848
69.170 25.759794
69.175 25.927519
69.180 26.579977
69.185 26.316383
69.190 25.766203
69.195 25.994312
69.200 26.121418
69.205 25.679449
69.210 25.891008
69.215 25.623299
69.220 26.04306
69.225 26.559114
69.230 25.881489
69.235 25.095425
69.240 25.667856
69.245 25.659176
69.250 25.780577
69.255 25.476389
69.260 25.710613
69.265 26.196417
69.270 26.386503
69.275 26.770241
69.280 26.559015
69.285 26.701654
69.290 26.891937
69.295 26.231993
69.300 26.225655
69.305 26.440941
69.310 26.089369
69.315 26.230469
69.320 26.150841
69.325 26.327871
69.330 26.60331
69.335 26.979727
69.340 26.83407
69.345 26.890526
69.350 27.383839
69.355 27.488468
69.360 27.091095
69.365 27.511856
69.370 27.422354
69.375 27.6712
69.380 28.186897
69.385 28.002445
69.390 28.006372
69.395 28.366037
69.400 28.540068
69.405 28.520128
69.410 28.36524
69.415 28.708462
69.420 29.589254
69.425 29.682158
69.430 29.702276
69.435 29.692606
69.440 29.14646
69.445 29.182854
69.450 29.150434
69.455 28.854937
69.460 28.890129
69.465 28.561188
69.470 28.256788
69.475 28.811127
69.480 28.686478
69.485 28.581684
69.490 28.545454
69.495 28.789204
69.500 28.772558
69.505 29.135786
69.510 29.490814
69.515 29.574993
69.520 28.359957
69.525 28.115849
69.530 27.55134
69.535 27.998627
69.540 27.892391
69.545 27.7638
69.550 27.821594
69.555 28.480614
69.560 29.010595
69.565 29.851299
69.570 30.151861
69.575 30.730921
69.580 30.122602
69.585 29.852875
69.590 30.141949
69.595 29.554235
69.600 28.775007
69.605 27.918001
69.610 27.711933
69.615 27.88851
69.620 27.286306
69.625 26.86286
69.630 26.76437
69.635 26.529469
69.640 26.392269
69.645 26.39957
69.650 26.429214
69.655 27.241562
69.660 28.018435
69.665 28.282312
69.670 28.497082
69.675 28.472109
69.680 28.643852
69.685 28.945583
69.690 28.340073
69.695 28.56575
69.700 29.305435
69.705 29.915932
69.710 29.846739
69.715 28.967688
69.720 28.7605
69.725 28.021713
69.730 27.262987
69.735 26.975462
69.740 26.515949
69.745 26.526045
69.750 27.012255
69.755 26.762625
69.760 27.190817
69.765 26.669718
69.770 26.350021
69.775 25.931314
69.780 25.033443
69.785 24.935863
69.790 25.249361
69.795 24.625132
69.800 24.454861
69.805 24.150778
69.810 24.195856
69.815 24.792337
69.820 24.726057
69.825 24.706839
69.830 24.839226
69.835 24.708662
69.840 24.704554
69.845 24.892723
69.850 24.210855
69.855 24.232779
69.860 24.375175
69.865 25.067823
69.870 25.146933
69.875 25.58362
69.880 25.473837
69.885 25.783659
69.890 25.042168
69.895 24.876898
69.900 24.491619
69.905 24.313992
69.910 23.707207
69.915 23.469948
69.920 23.330599
69.925 23.189743
69.930 22.562578
69.935 23.132076
69.940 23.452091
69.945 23.532452
69.950 23.747679
69.955 23.410379
69.960 23.385492
69.965 23.400305
69.970 23.04476
69.975 22.961304
69.980 23.064486
69.985 22.930393
69.990 22.779564
69.995 23.123489
70.000 22.684372
70.005 22.091908
70.010 21.880312
70.015 22.05929
70.020 22.308529
70.025 22.655241
70.030 22.84737
70.035 22.828033
70.040 22.542318
70.045 22.001644
70.050 22.132957
70.055 22.036243
70.060 21.303356
70.065 20.682339
70.070 20.440706
70.075 20.498837
70.080 20.802643
70.085 20.645346
70.090 20.916254
70.095 21.051191
70.100 21.046515
70.105 21.081432
70.110 20.835604
70.115 20.515762
70.120 19.798183
70.125 19.044607
70.130 19.252857
70.135 19.138655
70.140 19.259069
70.145 19.370268
70.150 19.523527
70.155 20.217104
70.160 20.321476
70.165 20.142492
70.170 19.797483
70.175 19.212044
70.180 19.043015
70.185 18.699259
70.190 18.682547
70.195 18.719244
70.200 18.859053
70.205 19.298248
70.210 19.658873
70.215 20.15678
70.220 20.50704
70.225 20.490183
70.230 20.228607
70.235 20.138905
70.240 20.476501
70.245 20.391878
70.250 20.448936
70.255 20.565716
70.260 20.912525
70.265 21.35161
70.270 21.523682
70.275 21.54859
70.280 21.368629
70.285 21.295437
70.290 20.783556
70.295 20.995045
70.300 21.072372
70.305 21.146311
70.310 21.135855
70.315 21.638494
70.320 21.116657
70.325 21.182913
70.330 20.874865
70.335 21.014256
70.340 20.894264
70.345 20.767612
70.350 20.11301
70.355 19.990952
70.360 19.783272
70.365 19.10743
70.370 18.499168
70.375 18.566851
70.380 18.996468
70.385 18.668055
70.390 18.74621
70.395 19.7001
70.400 20.496555
70.405 21.145861
70.410 20.804699
70.415 20.131447
70.420 20.633768
70.425 20.683958
70.430 20.09215
70.435 20.039078
70.440 19.60281
70.445 19.76829
70.450 20.209141
70.455 20.025131
70.460 20.179174
70.465 19.520603
70.470 19.1056
70.475 19.061831
70.480 19.292261
70.485 19.460754
70.490 19.924002
70.495 20.170282
70.500 20.621485
70.505 20.834431
70.510 20.139997
70.515 19.400415
70.520 18.773825
70.525 18.389902
70.530 18.051495
70.535 18.26199
70.540 18.659655
70.545 19.025446
70.550 19.107912
70.555 19.452864
70.560 19.540024
70.565 19.836105
70.570 19.635332
70.575 19.313602
70.580 19.77709
70.585 19.560215
70.590 19.898348
70.595 19.376249
70.600 19.323889
70.605 19.200911
70.610 18.710354
70.615 18.648111
70.620 19.133247
70.625 18.872599
70.630 19.274685
70.635 19.232807
70.640 19.58309
70.645 19.827065
70.650 20.159513
70.655 20.086807
70.660 20.074074
70.665 19.317347
70.670 18.732124
70.675 18.649595
70.680 18.89476
70.685 18.747355
70.690 18.599491
70.695 18.771936
70.700 19.287245
70.705 19.879473
70.710 19.84753
70.715 20.027683
70.720 19.913927
70.725 20.49477
70.730 20.532597
70.735 20.476494
70.740 20.451426
70.745 20.488491
70.750 20.350611
70.755 20.181923
70.760 19.792175
70.765 20.248995
70.770 19.748156
70.775 19.605217
70.780 19.490566
70.785 19.404142
70.790 19.180641
70.795 18.773888
70.800 18.331808
70.805 18.558031
70.810 18.49608
70.815 18.152025
70.820 18.676119
70.825 18.889708
70.830 18.774971
70.835 19.169292
70.840 18.791239
70.845 18.868395
70.850 19.58139
70.855 19.008003
70.860 19.304335
70.865 19.681717
70.870 19.548779
70.875 20.046541
70.880 19.795872
70.885 19.994543
70.890 20.57572
70.895 20.11445
70.900 19.539118
70.905 19.389425
70.910 19.214884
70.915 19.241657
70.920 18.319637
70.925 17.973166
70.930 18.089874
70.935 17.964226
70.940 18.0271
70.945 17.801535
70.950 17.329605
70.955 16.846146
70.960 16.983379
70.965 17.061497
70.970 17.373802
70.975 18.26964
70.980 18.676826
70.985 18.84766
70.990 19.14572
70.995 19.133263
71.000 19.456436
71.005 19.362261
71.010 18.885881
71.015 19.06753
71.020 19.581377
71.025 19.751743
71.030 19.821398
71.035 19.910063
71.040 19.743265
71.045 19.937103
71.050 19.958805
71.055 19.653311
71.060 19.981216
71.065 19.958397
71.070 19.761068
71.075 19.486132
71.080 19.22699
71.085 19.227327
71.090 19.310453
71.095 18.629101
71.100 18.70936
71.105 18.860634
71.110 18.761604
71.115 18.898161
71.120 18.81933
71.125 18.653591
71.130 19.115881
71.135 18.997934
71.140 18.927547
71.145 18.872965
71.150 18.700348
71.155 18.635262
71.160 18.63032
71.165 18.42593
71.170 18.626499
71.175 18.878098
71.180 19.292555
71.185 19.511362
71.190 19.495575
71.195 19.285759
71.200 19.657242
71.205 19.919222
71.210 19.804586
71.215 19.186388
71.220 19.071257
71.225 18.664295
71.230 18.152538
71.235 17.853821
71.240 17.506737
71.245 17.284523
71.250 17.285393
71.255 17.60902
71.260 18.148752
71.265 19.05666
71.270 19.224749
71.275 19.368038
71.280 19.253572
71.285 19.192493
71.290 18.724083
71.295 18.574345
71.300 18.480579
71.305 18.966665
71.310 19.663641
71.315 20.234772
71.320 20.599113
71.325 20.937613
71.330 20.773077
71.335 20.352659
71.340 19.255276
71.345 18.595776
71.350 18.52301
71.355 18.750021
71.360 18.869667
71.365 19.33021
71.370 19.327023
71.375 19.807913
71.380 19.353891
71.385 18.789219
71.390 18.708954
71.395 18.565926
71.400 18.4837
71.405 18.73348
71.410 19.320236
71.415 19.548096
71.420 19.538048
71.425 20.043785
71.430 20.719069
71.435 21.456898
71.440 20.883945
71.445 20.988245
71.450 22.0173
71.455 22.258917
71.460 21.052994
71.465 19.664259
71.470 19.080658
71.475 19.245197
71.480 19.571012
71.485 18.806007
71.490 18.707088
71.495 19.283134
71.500 19.481535
71.505 19.352629
71.510 19.098518
71.515 18.541344
71.520 18.736824
71.525 19.203678
71.530 19.394819
71.535 19.736349
71.540 19.707193
71.545 19.333994
71.550 19.600508
71.555 19.552347
71.560 18.960888
71.565 18.739426
71.570 18.580769
71.575 18.255938
71.580 18.120689
71.585 17.68878
71.590 17.654978
71.595 17.839933
71.600 18.21298
71.605 18.400135
71.610 18.07724
71.615 18.137802
71.620 18.103476
71.625 18.361185
71.630 17.926619
71.635 17.299784
71.640 17.676634
71.645 18.460812
71.650 18.894846
71.655 19.010496
71.660 18.443428
71.665 18.788811
71.670 18.782408
71.675 18.709438
71.680 18.735046
71.685 18.583988
71.690 18.835001
71.695 18.759995
71.700 18.86581
71.705 19.01614
71.710 18.415382
71.715 18.255703
71.720 18.445478
71.725 18.497679
71.730 18.798742
71.735 19.28541
71.740 19.682001
71.745 20.547823
71.750 20.865511
71.755 20.345869
71.760 19.974829
71.765 19.59763
71.770 18.991955
71.775 18.923616
71.780 18.152552
71.785 17.438307
71.790 17.152151
71.795 17.776577
71.800 18.308168
71.805 18.773338
71.810 18.978216
71.815 19.264957
71.820 19.616184
71.825 19.994604
71.830 19.886032
71.835 19.648111
71.840 19.878016
71.845 19.661385
71.850 19.833578
71.855 20.325548
71.860 20.209225
71.865 19.683994
71.870 19.244949
71.875 19.258972
71.880 18.986681
71.885 18.645365
71.890 18.099041
71.895 18.315178
71.900 19.137815
71.905 19.340275
71.910 19.302114
71.915 19.844095
71.920 20.183994
71.925 21.229462
71.930 20.92964
71.935 20.638786
71.940 20.211954
71.945 20.453365
71.950 19.609997
71.955 18.686659
71.960 18.530453
71.965 18.506794
71.970 18.181263
71.975 18.050207
71.980 18.291702
71.985 19.061569
71.990 18.941334
71.995 18.284271
72.000 18.404457
72.005 18.495537
72.010 18.489197
72.015 17.67378
72.020 18.367485
72.025 18.720455
72.030 18.58523
72.035 18.540176
72.040 17.981674
72.045 18.406897
72.050 18.435772
72.055 18.167221
72.060 18.317015
72.065 18.847673
72.070 19.03697
72.075 18.963196
72.080 18.437773
72.085 18.609766
72.090 18.406292
72.095 18.141619
72.100 18.06571
72.105 18.150236
72.110 17.885378
72.115 17.493076
72.120 18.021841
72.125 18.252487
72.130 18.210842
72.135 17.691898
72.140 17.802298
72.145 18.246603
72.150 18.323303
72.155 17.556774
72.160 17.279985
72.165 17.526098
72.170 18.098995
72.175 18.053625
72.180 18.018463
72.185 17.624062
72.190 17.830795
72.195 17.85713
72.200 17.689373
72.205 17.423496
72.210 17.864491
72.215 18.235016
72.220 18.422792
72.225 18.694395
72.230 19.236902
72.235 19.630348
72.240 19.784164
72.245 19.157137
72.250 18.293108
72.255 18.414742
72.260 17.33054
72.265 17.272749
72.270 16.441233
72.275 16.318819
72.280 16.683113
72.285 17.014795
72.290 17.636238
72.295 17.918758
72.300 18.212652
72.305 18.919756
72.310 18.748484
72.315 18.933071
72.320 18.780174
72.325 18.881769
72.330 18.959595
72.335 19.266577
72.340 19.10825
72.345 18.724104
72.350 19.061321
72.355 19.134745
72.360 18.947937
72.365 19.01021
72.370 18.817226
72.375 19.260576
72.380 19.605795
72.385 19.651436
72.390 19.399101
72.395 19.053541
72.400 18.449371
72.405 18.230051
72.410 18.598892
72.415 18.706499
72.420 18.24297
72.425 17.895996
72.430 17.82258
72.435 17.660208
72.440 17.34944
72.445 17.397905
72.450 17.564423
72.455 17.73564
72.460 18.125278
72.465 18.3841
72.470 18.98587
72.475 18.881216
72.480 18.513924
72.485 18.140478
72.490 17.578138
72.495 16.849804
72.500 16.08651
72.505 15.61018
72.510 15.828517
72.515 16.126968
72.520 16.897079
72.525 17.214918
72.530 17.603018
72.535 18.013502
72.540 18.220808
72.545 17.613449
72.550 17.529554
72.555 17.337906
72.560 17.67918
72.565 17.7113
72.570 17.5128
72.575 17.325115
72.580 17.651604
72.585 17.648397
72.590 17.485451
72.595 16.918806
72.600 17.105558
72.605 17.178959
72.610 17.450527
72.615 16.935474
72.620 17.047453
72.625 17.791697
72.630 18.133411
72.635 17.972002
72.640 18.126059
72.645 18.321373
72.650 18.406931
72.655 18.46767
72.660 18.165125
72.665 18.175497
72.670 17.928596
72.675 17.668137
72.680 17.349686
72.685 17.250172
72.690 16.954721
72.695 17.350941
72.700 17.060699
72.705 17.477671
72.710 17.91428
72.715 18.357983
72.720 18.91584
72.725 19.295204
72.730 19.241024
72.735 19.052649
72.740 18.326891
72.745 18.053589
72.750 17.401966
72.755 16.523697
72.760 16.580614
72.765 16.436327
72.770 17.076954
72.775 17.085024
72.780 16.393055
72.785 16.868105
72.790 17.038937
72.795 16.737036
72.800 16.618786
72.805 16.335279
72.810 16.614283
72.815 16.595423
72.820 16.605259
72.825 16.373407
72.830 15.938238
72.835 15.986959
72.840 16.035448
72.845 15.847679
72.850 15.821677
72.855 15.096215
72.860 15.20719
72.865 15.523543
72.870 15.154565
72.875 15.212065
72.880 15.649506
72.885 15.776136
72.890 16.643343
72.895 17.241497
72.900 17.89872
72.905 18.693966
72.910 18.867193
72.915 18.629663
72.920 19.03673
72.925 19.114746
72.930 19.237051
72.935 19.058355
72.940 18.84152
72.945 18.988724
72.950 18.715378
72.955 18.663912
72.960 18.363581
72.965 17.712612
72.970 17.315105
72.975 17.614994
72.980 18.36652
72.985 18.797417
72.990 18.714272
72.995 18.597422
73.000 18.620615
