!@!!GADDS PLOTSO FILE: Chi integration type
!@!!Title/SampleName: map-7c
!@!!Comment: ?
!@!!User: Bruker Instrument Administrator
!@!!Site: University of Illinois Chicago
!@!!Frame: map-7c_01_000.gfrm
!@!!Wavelengths    1.54184   1.54056   1.54439
!@!!Frame angles: 2Theta: 63.000 Omega: 50.000 Phi: 0.000 Chi: 90.000
!@!!Integration range: 2Theta: 53.000 to 73.000  Gamma: -105.000 to -75.000
!@!!Integration method: bin normalized
!@!N
!@!SS
!@!M
!@!L 0.0 0.0 0.0 0.0
!@!XDegrees
!@!YCounts
53.000 6.592046
53.005 6.458546
53.010 6.463324
53.015 6.72127
53.020 6.833677
53.025 6.811575
53.030 7.183158
53.035 7.511111
53.040 7.495191
53.045 7.255543
53.050 7.204408
53.055 7.048239
53.060 7.265362
53.065 7.494038
53.070 7.766169
53.075 7.823005
53.080 7.71514
53.085 7.719016
53.090 8.021225
53.095 7.699812
53.100 7.427227
53.105 7.054444
53.110 7.636625
53.115 7.947754
53.120 7.535792
53.125 7.012574
53.130 6.822464
53.135 6.616529
53.140 6.584701
53.145 6.061158
53.150 5.885192
53.155 6.00165
53.160 6.650187
53.165 6.912727
53.170 7.170132
53.175 7.724752
53.180 8.03573
53.185 8.096849
53.190 8.517129
53.195 8.435149
53.200 8.407845
53.205 8.085374
53.210 7.405591
53.215 7.196885
53.220 7.190197
53.225 6.874732
53.230 6.862174
53.235 7.076312
53.240 7.349136
53.245 7.586815
53.250 7.825007
53.255 7.76784
53.260 7.299145
53.265 7.088829
53.270 6.719307
53.275 6.429379
53.280 6.194314
53.285 6.173824
53.290 6.55354
53.295 6.848799
53.300 7.076404
53.305 7.439612
53.310 7.583829
53.315 7.806689
53.320 7.890849
53.325 7.986722
53.330 7.871798
53.335 7.646597
53.340 7.441487
53.345 7.362095
53.350 7.158479
53.355 6.946551
53.360 6.983806
53.365 7.167327
53.370 7.504138
53.375 7.66106
53.380 7.888093
53.385 8.340393
53.390 8.580446
53.395 8.302462
53.400 8.360112
53.405 8.316546
53.410 8.541493
53.415 8.43646
53.420 8.299794
53.425 8.421214
53.430 8.727355
53.435 8.69466
53.440 8.538177
53.445 8.553742
53.450 8.838792
53.455 8.660209
53.460 8.501149
53.465 8.413199
53.470 8.626595
53.475 8.636103
53.480 8.482477
53.485 8.475694
53.490 8.593572
53.495 8.49169
53.500 8.380698
53.505 8.166132
53.510 7.786631
53.515 7.677172
53.520 7.262397
53.525 7.024248
53.530 6.618141
53.535 6.445223
53.540 6.682326
53.545 7.146658
53.550 7.238078
53.555 7.270773
53.560 7.46634
53.565 7.474387
53.570 7.467186
53.575 7.300751
53.580 7.114705
53.585 7.044189
53.590 6.810286
53.595 6.745743
53.600 6.853058
53.605 6.49513
53.610 6.135268
53.615 5.962924
53.620 5.975795
53.625 6.457347
53.630 6.664368
53.635 6.894147
53.640 6.976103
53.645 7.179187
53.650 7.485513
53.655 7.47663
53.660 7.26736
53.665 7.328265
53.670 7.876303
53.675 8.173625
53.680 8.060484
53.685 7.485198
53.690 7.397429
53.695 8.004433
53.700 7.864511
53.705 7.62718
53.710 7.905379
53.715 8.304758
53.720 8.584529
53.725 8.604002
53.730 8.467546
53.735 8.64223
53.740 8.365151
53.745 7.942128
53.750 8.19195
53.755 8.51194
53.760 8.492261
53.765 8.25246
53.770 8.515198
53.775 8.481795
53.780 8.532942
53.785 8.55715
53.790 8.514952
53.795 8.401527
53.800 8.571503
53.805 8.573684
53.810 8.41855
53.815 8.057551
53.820 8.049138
53.825 8.34866
53.830 8.389748
53.835 7.987635
53.840 7.706805
53.845 7.828397
53.850 7.810224
53.855 7.330845
53.860 7.138287
53.865 7.341043
53.870 7.674757
53.875 7.825659
53.880 8.104724
53.885 8.042556
53.890 7.844203
53.895 7.785564
53.900 7.330923
53.905 7.157192
53.910 6.957768
53.915 6.943407
53.920 7.37539
53.925 7.665607
53.930 8.11545
53.935 8.009255
53.940 8.114571
53.945 8.336287
53.950 8.241556
53.955 8.031837
53.960 8.006306
53.965 7.764708
53.970 8.309241
53.975 8.866655
53.980 9.122799
53.985 9.539948
53.990 9.340542
53.995 9.283197
54.000 9.211529
54.005 8.746066
54.010 8.169904
54.015 7.906804
54.020 8.008434
54.025 8.322234
54.030 8.162625
54.035 8.148149
54.040 8.295998
54.045 8.183323
54.050 7.848366
54.055 7.72306
54.060 7.76106
54.065 7.738258
54.070 7.757559
54.075 8.098221
54.080 8.591149
54.085 8.338888
54.090 8.19949
54.095 7.814266
54.100 7.76947
54.105 7.634172
54.110 7.364551
54.115 7.552664
54.120 7.718898
54.125 7.600423
54.130 7.999304
54.135 8.058108
54.140 7.956792
54.145 7.718997
54.150 7.55129
54.155 7.882209
54.160 7.917739
54.165 7.932489
54.170 8.249427
54.175 8.478315
54.180 8.584288
54.185 8.393335
54.190 8.437202
54.195 8.275924
54.200 8.185914
54.205 8.225883
54.210 8.384123
54.215 8.288564
54.220 8.023601
54.225 8.033114
54.230 8.097163
54.235 8.223811
54.240 8.256752
54.245 8.644278
54.250 9.098187
54.255 9.23803
54.260 9.100117
54.265 9.201342
54.270 9.503468
54.275 9.101227
54.280 8.528591
54.285 8.535417
54.290 8.967098
54.295 9.224656
54.300 9.153483
54.305 9.005467
54.310 9.233977
54.315 9.436692
54.320 8.788701
54.325 9.167181
54.330 9.355161
54.335 9.367467
54.340 9.333349
54.345 9.197716
54.350 9.180687
54.355 8.927191
54.360 8.171248
54.365 7.988831
54.370 7.90556
54.375 7.627787
54.380 7.357146
54.385 7.526826
54.390 7.560374
54.395 7.577599
54.400 7.221016
54.405 7.029003
54.410 7.502022
54.415 7.770512
54.420 7.842398
54.425 8.014534
54.430 7.879875
54.435 8.087709
54.440 7.971604
54.445 7.92301
54.450 8.131122
54.455 8.250818
54.460 8.395759
54.465 8.579973
54.470 8.653924
54.475 8.722732
54.480 8.922362
54.485 8.791353
54.490 8.905421
54.495 8.908488
54.500 8.910873
54.505 8.681518
54.510 8.48583
54.515 8.566225
54.520 8.604319
54.525 8.380463
54.530 8.387467
54.535 8.06268
54.540 8.362997
54.545 8.698403
54.550 8.433065
54.555 8.651711
54.560 8.756268
54.565 8.750805
54.570 9.253558
54.575 9.21343
54.580 8.526833
54.585 8.180113
54.590 7.892067
54.595 8.193611
54.600 8.229523
54.605 8.064137
54.610 7.859133
54.615 8.368004
54.620 8.816113
54.625 8.82717
54.630 9.011392
54.635 9.096854
54.640 9.370789
54.645 9.906149
54.650 10.021576
54.655 10.235394
54.660 10.393402
54.665 10.013585
54.670 9.95767
54.675 9.921638
54.680 9.888169
54.685 9.404947
54.690 9.241507
54.695 8.724528
54.700 8.566175
54.705 8.276015
54.710 8.312439
54.715 8.016526
54.720 8.137528
54.725 8.575025
54.730 9.095262
54.735 9.164289
54.740 9.247533
54.745 9.047801
54.750 9.261498
54.755 8.883846
54.760 8.480419
54.765 8.233844
54.770 8.513388
54.775 8.748033
54.780 8.919586
54.785 9.156011
54.790 9.458176
54.795 9.579151
54.800 9.885077
54.805 9.603501
54.810 9.334674
54.815 9.071319
54.820 8.850966
54.825 9.128111
54.830 9.022546
54.835 8.942563
54.840 8.809937
54.845 8.910752
54.850 8.889048
54.855 8.755643
54.860 8.583292
54.865 8.724821
54.870 8.738584
54.875 8.395649
54.880 7.893638
54.885 8.03747
54.890 7.914707
54.895 7.651804
54.900 7.606967
54.905 7.637267
54.910 8.424885
54.915 8.887239
54.920 8.669546
54.925 9.003585
54.930 9.053984
54.935 9.388783
54.940 9.565132
54.945 9.301888
54.950 9.432194
54.955 9.998963
54.960 10.202266
54.965 10.017085
54.970 9.382273
54.975 9.332477
54.980 9.549075
54.985 9.923455
54.990 9.382568
54.995 8.857073
55.000 9.526628
55.005 10.143126
55.010 10.311898
55.015 10.106666
55.020 9.921305
55.025 9.745425
55.030 9.870296
55.035 9.610643
55.040 9.409786
55.045 9.620841
55.050 9.575436
55.055 9.56779
55.060 9.84656
55.065 9.703795
55.070 9.877091
55.075 9.364697
55.080 8.969846
55.085 9.113457
55.090 9.340302
55.095 9.363792
55.100 9.405478
55.105 9.467949
55.110 10.35859
55.115 10.844667
55.120 11.104323
55.125 11.099021
55.130 10.948614
55.135 10.946446
55.140 10.820589
55.145 10.440724
55.150 9.731317
55.155 9.523271
55.160 9.079959
55.165 8.895273
55.170 8.837336
55.175 8.701961
55.180 8.585528
55.185 9.09026
55.190 9.280129
55.195 9.975379
55.200 10.307895
55.205 10.305291
55.210 10.23842
55.215 9.888815
55.220 9.187484
55.225 9.010166
55.230 8.431787
55.235 8.176442
55.240 8.068043
55.245 8.27962
55.250 8.651653
55.255 8.702668
55.260 8.611962
55.265 8.912427
55.270 9.098179
55.275 9.119747
55.280 8.911854
55.285 9.15057
55.290 9.062234
55.295 8.969465
55.300 8.941756
55.305 9.040461
55.310 9.139945
55.315 9.032494
55.320 8.81943
55.325 8.996415
55.330 9.25629
55.335 9.935431
55.340 9.749118
55.345 9.644979
55.350 9.730878
55.355 9.759268
55.360 9.682401
55.365 9.016087
55.370 8.378024
55.375 8.272235
55.380 8.540517
55.385 8.703657
55.390 8.934642
55.395 9.889427
55.400 10.368729
55.405 10.464859
55.410 10.465894
55.415 10.309559
55.420 10.10428
55.425 9.790811
55.430 8.953447
55.435 8.711401
55.440 8.86095
55.445 9.297358
55.450 9.527953
55.455 9.739445
55.460 9.824616
55.465 10.108382
55.470 10.096087
55.475 9.812036
55.480 9.438815
55.485 9.078688
55.490 9.020741
55.495 9.357153
55.500 9.551556
55.505 10.064396
55.510 10.359074
55.515 10.641317
55.520 10.779712
55.525 10.483861
55.530 10.327711
55.535 10.346702
55.540 10.003101
55.545 9.963875
55.550 9.831735
55.555 9.945254
55.560 10.317235
55.565 10.286745
55.570 9.557461
55.575 9.818703
55.580 10.420289
55.585 10.417102
55.590 10.417006
55.595 10.377898
55.600 10.39066
55.605 10.70333
55.610 10.274618
55.615 9.783474
55.620 10.30644
55.625 10.588531
55.630 10.474298
55.635 10.847647
55.640 10.844168
55.645 10.781655
55.650 10.926035
55.655 10.693436
55.660 10.406242
55.665 9.853154
55.670 9.299352
55.675 9.118965
55.680 9.207436
55.685 9.424449
55.690 9.535806
55.695 10.212266
55.700 10.998667
55.705 10.926454
55.710 11.138467
55.715 11.138205
55.720 10.585462
55.725 10.136621
55.730 9.389675
55.735 9.346516
55.740 9.826338
55.745 9.758514
55.750 9.933018
55.755 9.965961
55.760 10.610532
55.765 10.474981
55.770 10.493108
55.775 10.530282
55.780 10.857802
55.785 11.002017
55.790 10.580681
55.795 10.039589
55.800 10.204055
55.805 10.223557
55.810 10.027637
55.815 10.008719
55.820 10.279482
55.825 10.521712
55.830 10.791694
55.835 10.940619
55.840 11.154585
55.845 11.589257
55.850 11.332755
55.855 11.396297
55.860 11.615996
55.865 11.466075
55.870 11.021282
55.875 10.680829
55.880 10.359496
55.885 10.051614
55.890 9.362702
55.895 9.164905
55.900 9.376179
55.905 9.513496
55.910 9.914384
55.915 10.006021
55.920 9.986699
55.925 10.310279
55.930 10.367357
55.935 10.394828
55.940 10.207082
55.945 10.54428
55.950 10.786172
55.955 11.199368
55.960 11.106761
55.965 10.842303
55.970 11.053972
55.975 10.692952
55.980 9.84927
55.985 9.597786
55.990 9.365997
55.995 9.571878
56.000 9.629734
56.005 9.730059
56.010 10.282602
56.015 10.375695
56.020 10.412543
56.025 10.541345
56.030 11.013434
56.035 10.992546
56.040 10.769438
56.045 11.052318
56.050 11.082075
56.055 11.106185
56.060 10.916043
56.065 10.491474
56.070 10.550471
56.075 10.395463
56.080 10.375463
56.085 10.481056
56.090 10.335543
56.095 10.311479
56.100 10.059588
56.105 10.160179
56.110 10.087962
56.115 10.009485
56.120 10.042381
56.125 10.4916
56.130 10.72645
56.135 10.70186
56.140 10.91312
56.145 10.84115
56.150 10.727629
56.155 10.963897
56.160 11.03427
56.165 11.439569
56.170 11.319481
56.175 10.983502
56.180 11.346119
56.185 11.513179
56.190 10.835008
56.195 10.034363
56.200 9.904117
56.205 9.898737
56.210 9.813655
56.215 9.702648
56.220 9.858721
56.225 10.828557
56.230 11.514655
56.235 11.593394
56.240 11.754324
56.245 12.153556
56.250 12.13693
56.255 11.700178
56.260 11.531813
56.265 11.439329
56.270 11.294937
56.275 11.472281
56.280 11.421988
56.285 11.92963
56.290 12.146702
56.295 12.191108
56.300 11.787252
56.305 11.9572
56.310 12.082337
56.315 12.049626
56.320 12.050627
56.325 11.861905
56.330 11.789902
56.335 12.281585
56.340 12.031347
56.345 11.903185
56.350 11.531417
56.355 11.398522
56.360 11.353342
56.365 11.262764
56.370 11.425461
56.375 11.283906
56.380 11.06761
56.385 10.826343
56.390 10.155526
56.395 9.951173
56.400 9.892299
56.405 9.511165
56.410 9.60123
56.415 9.882624
56.420 10.123836
56.425 10.585363
56.430 10.682866
56.435 10.468353
56.440 10.408492
56.445 10.271463
56.450 10.169272
56.455 10.076199
56.460 10.276365
56.465 10.288246
56.470 10.496432
56.475 10.752272
56.480 11.114316
56.485 11.227227
56.490 11.727712
56.495 11.583544
56.500 12.157453
56.505 12.280647
56.510 11.999641
56.515 11.447002
56.520 11.532183
56.525 12.258788
56.530 12.384571
56.535 12.082248
56.540 12.149967
56.545 12.44537
56.550 12.771456
56.555 12.31087
56.560 11.285635
56.565 11.04956
56.570 10.953113
56.575 10.525606
56.580 10.527869
56.585 10.398383
56.590 10.370609
56.595 11.062567
56.600 11.353536
56.605 11.434262
56.610 11.436155
56.615 11.273677
56.620 11.477892
56.625 11.299991
56.630 10.920407
56.635 10.918447
56.640 11.130735
56.645 11.381808
56.650 11.320042
56.655 11.060316
56.660 11.076639
56.665 10.797578
56.670 10.865881
56.675 11.034188
56.680 11.382442
56.685 11.789453
56.690 11.849356
56.695 11.749923
56.700 11.714544
56.705 12.178166
56.710 12.18989
56.715 11.930364
56.720 12.105515
56.725 12.38955
56.730 12.697373
56.735 12.709865
56.740 12.010818
56.745 12.394483
56.750 12.352621
56.755 12.474753
56.760 12.624424
56.765 12.674375
56.770 12.7259
56.775 12.771739
56.780 12.649096
56.785 13.170364
56.790 12.724409
56.795 12.331075
56.800 11.792778
56.805 11.828119
56.810 11.767776
56.815 11.238363
56.820 10.619477
56.825 10.625185
56.830 10.904922
56.835 11.414061
56.840 11.847924
56.845 11.804699
56.850 12.123187
56.855 12.394342
56.860 12.75561
56.865 12.827551
56.870 12.688425
56.875 11.653568
56.880 11.23453
56.885 11.00693
56.890 11.205688
56.895 11.138425
56.900 11.346462
56.905 11.244962
56.910 11.431457
56.915 12.118249
56.920 12.66093
56.925 12.565915
56.930 12.256909
56.935 11.815444
56.940 11.460051
56.945 11.755755
56.950 11.362423
56.955 10.90029
56.960 10.789128
56.965 11.369172
56.970 11.756043
56.975 12.428463
56.980 12.072859
56.985 12.160135
56.990 12.438152
56.995 12.485042
57.000 12.141125
57.005 12.049863
57.010 11.889987
57.015 12.264409
57.020 12.478037
57.025 12.344056
57.030 11.800806
57.035 11.76709
57.040 11.623404
57.045 11.482788
57.050 11.288004
57.055 11.009774
57.060 10.968577
57.065 11.767526
57.070 12.140745
57.075 12.790461
57.080 13.180402
57.085 13.291795
57.090 13.424117
57.095 13.427033
57.100 13.194103
57.105 12.97675
57.110 12.470721
57.115 12.739694
57.120 12.79388
57.125 12.524287
57.130 12.200837
57.135 12.129592
57.140 12.390593
57.145 12.562994
57.150 12.594685
57.155 12.291785
57.160 12.343631
57.165 12.401948
57.170 12.031137
57.175 11.454058
57.180 10.973174
57.185 10.448957
57.190 10.520123
57.195 10.813838
57.200 10.882807
57.205 10.728452
57.210 11.122707
57.215 11.924884
57.220 12.623986
57.225 12.639177
57.230 12.397976
57.235 12.875099
57.240 13.394007
57.245 13.584043
57.250 13.246644
57.255 12.926751
57.260 13.247873
57.265 13.505092
57.270 13.366393
57.275 12.591685
57.280 12.382173
57.285 12.164019
57.290 12.417792
57.295 12.187812
57.300 11.995797
57.305 12.215766
57.310 12.544892
57.315 12.196403
57.320 12.193521
57.325 11.967505
57.330 12.181924
57.335 12.29861
57.340 12.300337
57.345 12.320841
57.350 12.239089
57.355 12.424787
57.360 12.767096
57.365 12.48101
57.370 12.179355
57.375 11.815871
57.380 12.016423
57.385 11.835193
57.390 11.533308
57.395 11.000948
57.400 10.625922
57.405 10.806179
57.410 11.16158
57.415 11.034711
57.420 11.431314
57.425 12.105283
57.430 12.926305
57.435 13.369211
57.440 13.588606
57.445 13.081894
57.450 13.094882
57.455 12.967966
57.460 12.292501
57.465 12.232002
57.470 12.052389
57.475 11.849954
57.480 12.429699
57.485 12.289115
57.490 12.283827
57.495 12.23633
57.500 12.117858
57.505 12.035336
57.510 11.580978
57.515 11.24275
57.520 11.07985
57.525 10.705173
57.530 10.925772
57.535 11.212154
57.540 11.51002
57.545 11.808484
57.550 11.631755
57.555 12.225705
57.560 12.565318
57.565 12.698296
57.570 12.460498
57.575 12.616797
57.580 12.649674
57.585 12.982153
57.590 12.743702
57.595 12.679015
57.600 12.364136
57.605 12.538426
57.610 12.477289
57.615 12.509283
57.620 12.724245
57.625 12.948688
57.630 13.52915
57.635 13.203108
57.640 12.910823
57.645 13.190256
57.650 13.132443
57.655 13.263125
57.660 12.794003
57.665 12.482982
57.670 12.729486
57.675 13.008446
57.680 12.741585
57.685 12.560533
57.690 12.146644
57.695 12.454283
57.700 12.207646
57.705 12.665846
57.710 12.583305
57.715 13.215844
57.720 13.380184
57.725 13.526724
57.730 13.237332
57.735 12.960577
57.740 12.640855
57.745 12.7337
57.750 12.579404
57.755 12.849348
57.760 12.981082
57.765 13.199041
57.770 13.206539
57.775 13.47769
57.780 13.096173
57.785 12.804835
57.790 12.780605
57.795 12.545606
57.800 12.984559
57.805 13.291505
57.810 13.004022
57.815 12.830297
57.820 12.488824
57.825 12.567069
57.830 12.669924
57.835 12.267068
57.840 12.060643
57.845 11.899771
57.850 11.85017
57.855 12.184171
57.860 12.471303
57.865 12.37777
57.870 12.42489
57.875 12.268069
57.880 12.793534
57.885 13.347038
57.890 12.766904
57.895 12.587464
57.900 12.366241
57.905 12.379137
57.910 13.108603
57.915 13.580666
57.920 13.959741
57.925 14.137072
57.930 14.115574
57.935 15.021675
57.940 14.678192
57.945 13.857987
57.950 13.305365
57.955 12.554975
57.960 12.783703
57.965 13.421552
57.970 12.943952
57.975 13.134138
57.980 13.832281
57.985 13.753388
57.990 13.835848
57.995 12.963515
58.000 12.486785
58.005 12.899387
58.010 13.071395
58.015 12.288983
58.020 12.518211
58.025 12.642406
58.030 13.311754
58.035 13.057728
58.040 12.526315
58.045 12.625835
58.050 13.101526
58.055 13.368139
58.060 13.191695
58.065 12.699232
58.070 12.704343
58.075 13.478208
58.080 13.568955
58.085 12.991108
58.090 12.430195
58.095 12.375941
58.100 12.523928
58.105 12.574832
58.110 12.300165
58.115 12.409572
58.120 12.958509
58.125 13.057757
58.130 13.575337
58.135 13.782866
58.140 13.636011
58.145 13.075571
58.150 12.782179
58.155 13.24044
58.160 13.405128
58.165 13.084556
58.170 13.32298
58.175 13.684099
58.180 13.557904
58.185 13.67102
58.190 13.477345
58.195 13.685111
58.200 13.467255
58.205 12.924197
58.210 12.741755
58.215 13.065929
58.220 13.016915
58.225 12.418265
58.230 12.135899
58.235 12.57712
58.240 12.715823
58.245 12.552901
58.250 12.554298
58.255 12.310555
58.260 12.566715
58.265 12.796409
58.270 12.721876
58.275 12.978803
58.280 13.014123
58.285 13.088585
58.290 13.294
58.295 13.510886
58.300 13.579633
58.305 13.257701
58.310 13.248235
58.315 13.800886
58.320 14.163973
58.325 14.063705
58.330 13.84215
58.335 13.844455
58.340 14.322179
58.345 14.252565
58.350 14.013306
58.355 12.911738
58.360 12.897641
58.365 12.810164
58.370 12.976949
58.375 12.871362
58.380 12.29057
58.385 11.78159
58.390 12.255032
58.395 12.332454
58.400 12.590193
58.405 12.45829
58.410 12.38657
58.415 13.073311
58.420 13.925715
58.425 14.170726
58.430 14.361689
58.435 14.567638
58.440 14.47964
58.445 14.426593
58.450 14.556082
58.455 13.819529
58.460 13.802628
58.465 13.320964
58.470 13.008957
58.475 13.509287
58.480 13.501421
58.485 13.166789
58.490 13.270922
58.495 13.354806
58.500 13.917578
58.505 14.01158
58.510 13.407601
58.515 12.963779
58.520 12.866795
58.525 13.20803
58.530 13.173776
58.535 12.784154
58.540 12.561219
58.545 12.589826
58.550 12.836575
58.555 12.645539
58.560 12.087038
58.565 11.599132
58.570 11.915313
58.575 12.340447
58.580 12.671618
58.585 12.612164
58.590 12.880727
58.595 13.499638
58.600 14.364523
58.605 14.519703
58.610 14.64205
58.615 14.670897
58.620 14.832086
58.625 15.383355
58.630 15.297199
58.635 14.69507
58.640 14.428611
58.645 13.80154
58.650 14.049932
58.655 14.220578
58.660 14.270249
58.665 14.897006
58.670 14.87025
58.675 15.139387
58.680 15.687363
58.685 15.57305
58.690 15.346989
58.695 14.613831
58.700 14.162475
58.705 13.949881
58.710 14.045982
58.715 14.11994
58.720 14.204779
58.725 14.372936
58.730 14.134006
58.735 14.094534
58.740 14.142266
58.745 13.293962
58.750 12.962811
58.755 12.886394
58.760 12.699708
58.765 12.996832
58.770 12.89601
58.775 12.856416
58.780 13.272496
58.785 13.045092
58.790 13.171638
58.795 13.535824
58.800 13.161952
58.805 13.186432
58.810 13.928358
58.815 14.094773
58.820 14.222611
58.825 14.369514
58.830 14.228896
58.835 14.086166
58.840 13.780811
58.845 13.396347
58.850 13.33166
58.855 13.898415
58.860 13.844169
58.865 13.702481
58.870 14.139969
58.875 14.349969
58.880 14.088712
58.885 13.981091
58.890 13.701002
58.895 13.92126
58.900 13.884282
58.905 13.989997
58.910 13.958698
58.915 14.342887
58.920 14.175578
58.925 13.749885
58.930 13.819426
58.935 14.177698
58.940 14.075371
58.945 14.670078
58.950 14.17455
58.955 14.284221
58.960 14.023232
58.965 13.655127
58.970 14.173775
58.975 14.004192
58.980 13.643381
58.985 13.957417
58.990 14.385764
58.995 15.123836
59.000 15.630299
59.005 15.232111
59.010 15.518553
59.015 15.784156
59.020 15.715582
59.025 15.282209
59.030 14.87963
59.035 14.685964
59.040 14.840882
59.045 14.379625
59.050 14.285053
59.055 13.991911
59.060 13.745076
59.065 14.005154
59.070 14.183805
59.075 14.292858
59.080 15.180465
59.085 15.151891
59.090 15.346423
59.095 15.802674
59.100 15.628354
59.105 15.300936
59.110 15.070124
59.115 14.798182
59.120 15.037945
59.125 15.085278
59.130 15.00529
59.135 15.005141
59.140 14.869676
59.145 14.314605
59.150 14.475896
59.155 14.784881
59.160 14.4091
59.165 13.938725
59.170 14.213474
59.175 14.7024
59.180 15.797132
59.185 15.241521
59.190 14.906384
59.195 15.422032
59.200 16.26622
59.205 16.253422
59.210 16.218168
59.215 15.218427
59.220 15.288048
59.225 15.668972
59.230 15.016965
59.235 14.101115
59.240 13.598048
59.245 13.68311
59.250 13.917435
59.255 13.911046
59.260 13.814113
59.265 14.302256
59.270 14.38072
59.275 14.31061
59.280 13.930949
59.285 13.891162
59.290 13.715018
59.295 13.911445
59.300 14.482388
59.305 14.6784
59.310 14.863925
59.315 14.821157
59.320 15.403936
59.325 15.828152
59.330 15.819581
59.335 15.719144
59.340 15.37027
59.345 15.457235
59.350 15.707965
59.355 15.723353
59.360 15.601651
59.365 15.755218
59.370 15.450353
59.375 15.739276
59.380 15.687111
59.385 15.524439
59.390 15.72428
59.395 15.651751
59.400 15.3313
59.405 15.505694
59.410 15.4322
59.415 15.97505
59.420 15.68538
59.425 14.914399
59.430 15.455253
59.435 15.146835
59.440 15.629471
59.445 15.926165
59.450 15.326043
59.455 15.363467
59.460 14.880153
59.465 14.0956
59.470 14.2166
59.475 14.090251
59.480 14.028146
59.485 14.095144
59.490 14.496654
59.495 15.206351
59.500 15.780417
59.505 15.848327
59.510 15.257688
59.515 14.849577
59.520 15.327821
59.525 15.632016
59.530 15.475741
59.535 15.378036
59.540 15.536657
59.545 16.069662
59.550 16.526911
59.555 16.313131
59.560 16.278675
59.565 16.319927
59.570 16.476664
59.575 16.16625
59.580 16.23254
59.585 16.166691
59.590 16.577793
59.595 16.764402
59.600 16.450798
59.605 15.677665
59.610 16.188837
59.615 16.479019
59.620 16.636692
59.625 15.693174
59.630 15.222153
59.635 15.45109
59.640 16.325294
59.645 16.101751
59.650 15.446852
59.655 14.959423
59.660 15.576145
59.665 15.728324
59.670 16.092972
59.675 15.642049
59.680 15.028061
59.685 15.563341
59.690 15.872165
59.695 15.761073
59.700 16.574581
59.705 16.609091
59.710 17.102737
59.715 17.197161
59.720 16.852993
59.725 16.939171
59.730 16.697182
59.735 16.30961
59.740 16.099621
59.745 16.243151
59.750 16.675985
59.755 17.186504
59.760 17.035709
59.765 17.121204
59.770 17.133799
59.775 17.416382
59.780 17.988031
59.785 18.125496
59.790 18.252321
59.795 18.95162
59.800 19.297298
59.805 18.977764
59.810 18.66555
59.815 18.055569
59.820 17.72743
59.825 17.296484
59.830 16.547785
59.835 16.754501
59.840 17.50737
59.845 18.048132
59.850 18.053768
59.855 17.523378
59.860 17.505468
59.865 17.351784
59.870 16.637774
59.875 16.587652
59.880 16.186995
59.885 16.151079
59.890 16.80335
59.895 17.26907
59.900 17.84618
59.905 17.999453
59.910 17.769669
59.915 17.751949
59.920 18.171383
59.925 18.831295
59.930 18.944216
59.935 19.247398
59.940 19.664234
59.945 19.558554
59.950 19.679007
59.955 19.549326
59.960 18.912783
59.965 18.564999
59.970 18.308397
59.975 18.083496
59.980 17.737284
59.985 17.713379
59.990 17.966805
59.995 17.951916
60.000 17.85643
60.005 18.123907
60.010 18.287323
60.015 18.806034
60.020 18.343781
60.025 17.708858
60.030 17.861202
60.035 18.105579
60.040 17.421518
60.045 17.404783
60.050 17.774513
60.055 17.938332
60.060 18.166014
60.065 18.087551
60.070 18.314594
60.075 18.867414
60.080 18.76383
60.085 18.648445
60.090 18.91983
60.095 19.214117
60.100 19.538866
60.105 19.698841
60.110 19.678288
60.115 19.414261
60.120 19.590528
60.125 19.292412
60.130 19.042274
60.135 19.549601
60.140 19.007364
60.145 19.02883
60.150 18.967075
60.155 18.764336
60.160 19.036573
60.165 18.856173
60.170 18.31263
60.175 18.530033
60.180 18.534378
60.185 18.710672
60.190 19.063522
60.195 19.363596
60.200 19.787403
60.205 19.632751
60.210 19.822783
60.215 20.295118
60.220 20.224461
60.225 19.254404
60.230 18.680061
60.235 18.453558
60.240 18.705231
60.245 18.833973
60.250 18.501467
60.255 19.201056
60.260 20.186577
60.265 20.827787
60.270 20.25374
60.275 20.049208
60.280 19.957108
60.285 19.754128
60.290 19.439043
60.295 18.703594
60.300 18.55509
60.305 19.547781
60.310 19.833336
60.315 20.212023
60.320 20.766165
60.325 20.792168
60.330 21.546356
60.335 21.467068
60.340 20.417801
60.345 19.895744
60.350 19.683867
60.355 19.751221
60.360 19.81356
60.365 19.089901
60.370 19.199522
60.375 19.245657
60.380 19.685869
60.385 19.68811
60.390 19.438406
60.395 19.509731
60.400 19.818296
60.405 19.277372
60.410 19.385429
60.415 18.457998
60.420 17.500704
60.425 17.342436
60.430 17.359547
60.435 17.77779
60.440 18.012325
60.445 18.206354
60.450 18.231321
60.455 18.513544
60.460 18.199917
60.465 17.582249
60.470 18.081402
60.475 18.366314
60.480 18.78661
60.485 19.083048
60.490 19.241005
60.495 19.583082
60.500 19.547304
60.505 19.313967
60.510 19.156652
60.515 18.856066
60.520 18.936489
60.525 19.106607
60.530 19.351307
60.535 19.256102
60.540 18.588879
60.545 18.497124
60.550 18.203156
60.555 18.308514
60.560 18.449484
60.565 18.246897
60.570 18.319998
60.575 18.519388
60.580 18.39657
60.585 18.474943
60.590 18.353119
60.595 18.489578
60.600 18.967033
60.605 19.529902
60.610 20.049877
60.615 20.238192
60.620 20.33206
60.625 20.221458
60.630 19.673149
60.635 19.454617
60.640 18.929239
60.645 18.795681
60.650 19.123289
60.655 18.56233
60.660 18.549322
60.665 18.878531
60.670 19.157312
60.675 19.409147
60.680 18.89156
60.685 18.096968
60.690 18.335815
60.695 19.130789
60.700 18.566772
60.705 18.139757
60.710 18.140293
60.715 18.149618
60.720 18.472464
60.725 18.291763
60.730 17.658205
60.735 17.709137
60.740 17.465082
60.745 16.941059
60.750 17.059862
60.755 17.618074
60.760 17.628531
60.765 17.464609
60.770 17.207979
60.775 17.364275
60.780 17.411877
60.785 17.395185
60.790 16.822886
60.795 16.789925
60.800 17.359955
60.805 17.642521
60.810 17.897158
60.815 18.083431
60.820 17.762993
60.825 17.809998
60.830 17.986967
60.835 17.993168
60.840 18.191652
60.845 18.288721
60.850 18.684381
60.855 19.624058
60.860 19.72607
60.865 18.947744
60.870 18.543358
60.875 18.860668
60.880 18.550484
60.885 18.189623
60.890 18.09688
60.895 18.035231
60.900 18.085579
60.905 18.186724
60.910 17.778372
60.915 18.101171
60.920 17.220592
60.925 16.70038
60.930 16.932987
60.935 17.129847
60.940 16.547422
60.945 16.322163
60.950 16.37373
60.955 16.937784
60.960 17.320452
60.965 17.161398
60.970 17.188463
60.975 17.635336
60.980 17.502748
60.985 17.450073
60.990 17.406527
60.995 16.800968
61.000 16.543558
61.005 16.65991
61.010 16.617821
61.015 16.54356
61.020 15.869674
61.025 15.91343
61.030 16.194721
61.035 16.281849
61.040 16.024755
61.045 15.915295
61.050 16.157869
61.055 16.336714
61.060 15.966678
61.065 15.096711
61.070 14.531558
61.075 14.543178
61.080 14.313164
61.085 13.89146
61.090 13.490355
61.095 13.540731
61.100 13.888718
61.105 14.324206
61.110 14.475039
61.115 15.02907
61.120 15.504027
61.125 15.556503
61.130 15.670307
61.135 16.224134
61.140 16.653851
61.145 17.14798
61.150 16.839476
61.155 16.718437
61.160 17.27146
61.165 17.534933
61.170 17.478029
61.175 17.421581
61.180 17.391941
61.185 17.233625
61.190 17.013092
61.195 17.691292
61.200 17.857944
61.205 18.236526
61.210 18.414499
61.215 18.513668
61.220 18.958254
61.225 18.873516
61.230 18.166391
61.235 17.7027
61.240 16.928261
61.245 16.023666
61.250 15.215318
61.255 14.693355
61.260 14.640583
61.265 14.868302
61.270 15.355843
61.275 15.5594
61.280 16.371046
61.285 17.002474
61.290 17.476757
61.295 17.671213
61.300 17.731684
61.305 17.991385
61.310 18.219648
61.315 17.963884
61.320 17.536638
61.325 17.485592
61.330 17.714273
61.335 17.080872
61.340 16.883047
61.345 16.762001
61.350 16.626156
61.355 16.451241
61.360 16.160633
61.365 16.023985
61.370 16.221836
61.375 15.637075
61.380 16.14399
61.385 16.05352
61.390 16.215984
61.395 16.069828
61.400 15.558947
61.405 15.024027
61.410 15.267474
61.415 14.565968
61.420 14.55299
61.425 14.582776
61.430 14.598519
61.435 14.961081
61.440 14.904848
61.445 14.41284
61.450 14.804145
61.455 14.707335
61.460 14.348272
61.465 14.347394
61.470 14.634152
61.475 14.963852
61.480 15.620778
61.485 15.710423
61.490 16.076475
61.495 16.211843
61.500 16.23555
61.505 16.129261
61.510 16.189177
61.515 16.157721
61.520 16.293427
61.525 15.930099
61.530 16.410091
61.535 16.227438
61.540 15.857007
61.545 16.256302
61.550 16.231251
61.555 15.803499
61.560 15.756212
61.565 15.747952
61.570 15.864274
61.575 16.508827
61.580 16.470833
61.585 16.044884
61.590 15.924353
61.595 16.151115
61.600 16.332537
61.605 16.553328
61.610 16.495617
61.615 16.255644
61.620 16.549845
61.625 17.032875
61.630 17.072987
61.635 16.724745
61.640 16.59317
61.645 16.048243
61.650 16.618078
61.655 16.846653
61.660 16.5378
61.665 16.085417
61.670 16.123259
61.675 15.926347
61.680 15.622293
61.685 14.656157
61.690 14.615429
61.695 14.994005
61.700 15.088163
61.705 14.916555
61.710 15.241274
61.715 15.188881
61.720 15.142261
61.725 15.031517
61.730 15.033891
61.735 15.232779
61.740 15.404962
61.745 15.534121
61.750 15.717317
61.755 16.023516
61.760 15.679655
61.765 15.496012
61.770 15.758406
61.775 15.988274
61.780 15.8526
61.785 16.461456
61.790 16.755005
61.795 17.115873
61.800 17.307201
61.805 16.819927
61.810 16.574888
61.815 16.852282
61.820 17.108669
61.825 17.010691
61.830 17.194016
61.835 17.090153
61.840 17.084805
61.845 16.908493
61.850 16.833132
61.855 16.652197
61.860 17.190865
61.865 16.699411
61.870 16.602095
61.875 16.76746
61.880 17.22422
61.885 17.064465
61.890 16.733416
61.895 16.331116
61.900 16.74753
61.905 17.109821
61.910 17.155123
61.915 16.65056
61.920 16.460638
61.925 16.764013
61.930 16.800909
61.935 16.928421
61.940 16.329353
61.945 16.18549
61.950 16.464813
61.955 16.521959
61.960 16.259741
61.965 15.819862
61.970 15.620183
61.975 16.214884
61.980 16.654974
61.985 16.82609
61.990 16.866636
61.995 16.696753
62.000 16.481291
62.005 15.912292
62.010 15.389183
62.015 14.677671
62.020 14.768332
62.025 14.590555
62.030 14.725401
62.035 14.814542
62.040 14.955461
62.045 15.176032
62.050 15.449483
62.055 15.240891
62.060 15.102409
62.065 14.851159
62.070 14.657118
62.075 14.71086
62.080 14.449842
62.085 14.413001
62.090 14.449388
62.095 14.926551
62.100 15.234755
62.105 15.698045
62.110 15.527812
62.115 15.816924
62.120 15.325264
62.125 15.222542
62.130 14.835952
62.135 15.53936
62.140 16.058392
62.145 16.56941
62.150 16.49979
62.155 17.08246
62.160 17.477388
62.165 17.854115
62.170 17.820377
62.175 17.630306
62.180 17.844393
62.185 18.081196
62.190 17.670502
62.195 17.227037
62.200 16.867737
62.205 16.189486
62.210 16.277689
62.215 16.041174
62.220 16.212036
62.225 16.239191
62.230 16.494411
62.235 16.766684
62.240 16.497297
62.245 15.982288
62.250 15.51952
62.255 15.375866
62.260 15.623075
62.265 15.30818
62.270 15.495275
62.275 15.416736
62.280 15.991657
62.285 15.952395
62.290 15.991192
62.295 16.218985
62.300 16.072361
62.305 15.478159
62.310 15.680505
62.315 15.012857
62.320 15.928126
62.325 15.895435
62.330 15.458007
62.335 15.833534
62.340 16.184717
62.345 16.115126
62.350 16.459129
62.355 15.989161
62.360 16.295618
62.365 16.58238
62.370 16.460104
62.375 16.629768
62.380 17.060429
62.385 17.473923
62.390 16.902401
62.395 16.492004
62.400 16.429625
62.405 16.180834
62.410 15.83236
62.415 15.925323
62.420 15.54584
62.425 16.091148
62.430 16.055479
62.435 16.254564
62.440 16.754152
62.445 16.677267
62.450 16.689417
62.455 17.145437
62.460 16.951246
62.465 17.145351
62.470 16.916908
62.475 16.56628
62.480 16.514132
62.485 15.727505
62.490 15.713406
62.495 16.367329
62.500 16.811207
62.505 16.672203
62.510 16.522804
62.515 17.310966
62.520 18.023802
62.525 17.700483
62.530 17.173737
62.535 16.365774
62.540 16.393263
62.545 16.531404
62.550 16.039574
62.555 15.867351
62.560 15.490029
62.565 15.370675
62.570 15.821263
62.575 15.926681
62.580 15.638743
62.585 15.71406
62.590 15.180735
62.595 15.622846
62.600 16.48418
62.605 16.571348
62.610 15.773088
62.615 15.189217
62.620 14.788016
62.625 15.108849
62.630 14.539316
62.635 13.770929
62.640 13.62393
62.645 14.711949
62.650 15.263863
62.655 15.385749
62.660 15.337962
62.665 15.819439
62.670 16.020191
62.675 16.344692
62.680 16.53693
62.685 16.384033
62.690 16.650196
62.695 16.988483
62.700 16.83791
62.705 16.189341
62.710 15.892908
62.715 15.706285
62.720 16.059072
62.725 16.048574
62.730 15.979497
62.735 16.490763
62.740 16.841501
62.745 16.900078
62.750 17.157089
62.755 17.018415
62.760 17.102615
62.765 17.213423
62.770 16.738066
62.775 16.829557
62.780 16.953176
62.785 16.622166
62.790 16.336285
62.795 15.833636
62.800 16.032
62.805 16.207674
62.810 16.158899
62.815 16.076807
62.820 16.63364
62.825 17.07173
62.830 17.401365
62.835 16.506121
62.840 16.589769
62.845 16.24412
62.850 15.728642
62.855 14.870889
62.860 14.408938
62.865 14.30022
62.870 14.876463
62.875 14.723507
62.880 15.094511
62.885 15.038091
62.890 14.916416
62.895 15.246717
62.900 15.437422
62.905 15.590493
62.910 15.490891
62.915 15.266716
62.920 15.469794
62.925 16.094902
62.930 16.404343
62.935 16.329901
62.940 15.88376
62.945 16.086044
62.950 16.466002
62.955 16.80703
62.960 16.315603
62.965 15.898913
62.970 15.822351
62.975 16.582241
62.980 16.041977
62.985 15.994737
62.990 16.113752
62.995 16.325342
63.000 16.114162
63.005 16.01437
63.010 15.551857
63.015 15.169703
63.020 14.23951
63.025 13.973528
63.030 14.033994
63.035 14.457377
63.040 14.46353
63.045 14.685011
63.050 15.628631
63.055 16.361776
63.060 16.226753
63.065 16.126028
63.070 15.987821
63.075 16.377687
63.080 16.175144
63.085 15.646326
63.090 15.777841
63.095 15.860862
63.100 15.462193
63.105 15.475831
63.110 15.170686
63.115 15.069887
63.120 15.333965
63.125 15.357468
63.130 15.233555
63.135 15.456428
63.140 15.438339
63.145 15.73542
63.150 16.359995
63.155 16.858299
63.160 17.146957
63.165 17.679264
63.170 17.508997
63.175 17.427507
63.180 17.25956
63.185 16.742373
63.190 16.27766
63.195 16.253767
63.200 16.382282
63.205 16.599485
63.210 16.462683
63.215 16.41498
63.220 16.337877
63.225 16.210821
63.230 15.759152
63.235 15.546217
63.240 15.853633
63.245 15.457653
63.250 15.478389
63.255 15.818
63.260 16.265827
63.265 16.935434
63.270 16.900311
63.275 16.79162
63.280 17.092274
63.285 17.148039
63.290 16.888178
63.295 16.366016
63.300 15.988093
63.305 16.053333
63.310 16.332697
63.315 16.885906
63.320 17.386074
63.325 17.911472
63.330 17.681231
63.335 17.379992
63.340 17.060751
63.345 16.856789
63.350 16.467674
63.355 16.133369
63.360 15.533996
63.365 15.424771
63.370 15.447261
63.375 15.651981
63.380 16.036196
63.385 16.438126
63.390 15.926791
63.395 16.193016
63.400 16.493816
63.405 16.482698
63.410 16.234539
63.415 15.79344
63.420 15.533006
63.425 16.150517
63.430 16.358124
63.435 16.070955
63.440 15.881327
63.445 16.075533
63.450 15.732006
63.455 15.182427
63.460 14.979614
63.465 15.158478
63.470 15.725978
63.475 15.834552
63.480 16.193794
63.485 17.155348
63.490 18.151182
63.495 18.531059
63.500 18.203072
63.505 17.993824
63.510 17.875841
63.515 17.614162
63.520 17.35117
63.525 16.747604
63.530 16.089716
63.535 16.516006
63.540 17.210724
63.545 17.628378
63.550 17.877811
63.555 17.262081
63.560 17.479483
63.565 17.837175
63.570 17.395096
63.575 16.89447
63.580 16.346125
63.585 16.124447
63.590 16.073013
63.595 15.707591
63.600 15.416615
63.605 15.395788
63.610 15.44785
63.615 15.576629
63.620 15.597866
63.625 15.82901
63.630 16.657013
63.635 17.746994
63.640 18.062862
63.645 18.495687
63.650 18.173458
63.655 18.269585
63.660 18.540815
63.665 17.9813
63.670 17.453688
63.675 17.416294
63.680 17.068142
63.685 17.250051
63.690 17.42095
63.695 17.327824
63.700 17.232443
63.705 17.194527
63.710 16.952429
63.715 17.176046
63.720 17.427229
63.725 17.126541
63.730 17.040491
63.735 17.185802
63.740 17.259186
63.745 17.606876
63.750 17.778177
63.755 17.94829
63.760 18.108105
63.765 17.741858
63.770 16.945288
63.775 16.344889
63.780 16.14703
63.785 16.15811
63.790 16.187115
63.795 16.405214
63.800 16.995754
63.805 17.654686
63.810 17.929583
63.815 17.784891
63.820 17.413961
63.825 17.26428
63.830 16.8521
63.835 16.261753
63.840 15.933923
63.845 15.793176
63.850 15.729519
63.855 15.782895
63.860 15.545691
63.865 15.9168
63.870 15.846288
63.875 16.215969
63.880 16.628691
63.885 16.857552
63.890 16.844339
63.895 17.226919
63.900 17.416901
63.905 17.957596
63.910 18.313971
63.915 18.37797
63.920 18.440119
63.925 18.823479
63.930 19.066483
63.935 19.191965
63.940 19.499271
63.945 19.504751
63.950 19.428011
63.955 19.369566
63.960 19.181952
63.965 18.890358
63.970 18.848507
63.975 18.805574
63.980 18.602551
63.985 18.69713
63.990 18.763927
63.995 18.648609
64.000 18.688076
64.005 18.603601
64.010 18.274078
64.015 17.881186
64.020 17.6968
64.025 17.643568
64.030 17.549173
64.035 17.058907
64.040 16.938839
64.045 16.662439
64.050 16.557367
64.055 16.254183
64.060 15.909994
64.065 15.976727
64.070 16.248268
64.075 15.940332
64.080 15.881951
64.085 16.416185
64.090 16.789234
64.095 16.977444
64.100 17.561872
64.105 17.450075
64.110 17.501926
64.115 18.016529
64.120 17.8274
64.125 17.708187
64.130 17.886269
64.135 17.612553
64.140 17.504274
64.145 17.766163
64.150 17.301704
64.155 17.017679
64.160 17.10552
64.165 16.736553
64.170 16.921255
64.175 16.809526
64.180 16.056065
64.185 16.244551
64.190 17.068703
64.195 17.398033
64.200 17.731241
64.205 17.342598
64.210 17.479933
64.215 17.938162
64.220 17.47323
64.225 16.839083
64.230 16.81999
64.235 16.732338
64.240 16.248486
64.245 16.276213
64.250 16.606718
64.255 17.635685
64.260 17.535988
64.265 17.397104
64.270 17.626699
64.275 18.12628
64.280 18.931273
64.285 18.727932
64.290 18.076746
64.295 17.628458
64.300 17.453039
64.305 17.223356
64.310 16.951818
64.315 16.30896
64.320 16.532991
64.325 16.922224
64.330 17.094461
64.335 16.873344
64.340 16.860846
64.345 17.376966
64.350 17.535364
64.355 16.905439
64.360 17.202805
64.365 17.649004
64.370 17.762312
64.375 18.037262
64.380 17.997408
64.385 17.813929
64.390 18.286266
64.395 18.429859
64.400 18.657539
64.405 19.015221
64.410 18.619827
64.415 18.099146
64.420 18.547962
64.425 18.700935
64.430 18.171062
64.435 17.498507
64.440 17.71427
64.445 17.805782
64.450 17.91328
64.455 17.629082
64.460 17.377932
64.465 17.197182
64.470 17.565212
64.475 17.26166
64.480 16.965506
64.485 17.134344
64.490 17.366722
64.495 17.652603
64.500 18.072609
64.505 18.061914
64.510 17.715982
64.515 17.766317
64.520 18.197657
64.525 18.312534
64.530 18.363523
64.535 17.666145
64.540 17.416553
64.545 17.94342
64.550 18.707798
64.555 18.484339
64.560 18.319864
64.565 18.389832
64.570 19.350447
64.575 19.584177
64.580 19.419912
64.585 19.277622
64.590 19.293304
64.595 19.021038
64.600 18.913416
64.605 18.343462
64.610 18.726862
64.615 18.688885
64.620 18.091242
64.625 18.113529
64.630 18.196484
64.635 18.134451
64.640 18.11768
64.645 17.892756
64.650 18.16061
64.655 18.58305
64.660 18.176443
64.665 18.416174
64.670 18.692595
64.675 18.81509
64.680 19.166786
64.685 18.969915
64.690 18.682619
64.695 18.404247
64.700 17.844849
64.705 17.581659
64.710 17.971844
64.715 17.766659
64.720 17.511028
64.725 17.56757
64.730 18.293224
64.735 18.796934
64.740 18.740465
64.745 18.64798
64.750 17.981121
64.755 18.247149
64.760 18.447004
64.765 17.925797
64.770 17.811504
64.775 17.715017
64.780 17.851704
64.785 18.39257
64.790 18.645527
64.795 19.082497
64.800 19.403746
64.805 19.585945
64.810 19.454819
64.815 19.724165
64.820 19.92852
64.825 19.417028
64.830 18.677437
64.835 18.66288
64.840 18.716095
64.845 19.277023
64.850 18.721663
64.855 18.327164
64.860 18.567789
64.865 18.891157
64.870 18.767353
64.875 18.436611
64.880 18.204468
64.885 18.565573
64.890 18.413038
64.895 18.413031
64.900 19.094229
64.905 19.425388
64.910 19.46534
64.915 20.060463
64.920 20.4557
64.925 20.747398
64.930 20.695353
64.935 19.927727
64.940 19.62533
64.945 19.37462
64.950 19.23192
64.955 19.237919
64.960 19.0359
64.965 18.902018
64.970 19.040312
64.975 19.492838
64.980 20.109734
64.985 19.334019
64.990 19.089197
64.995 19.110632
65.000 18.477406
65.005 18.467295
65.010 18.605888
65.015 18.465593
65.020 18.906473
65.025 18.637884
65.030 18.752638
65.035 19.684479
65.040 19.619253
65.045 19.048204
65.050 18.590654
65.055 18.567764
65.060 18.76614
65.065 19.069374
65.070 18.706533
65.075 18.630329
65.080 19.380125
65.085 19.770721
65.090 20.093357
65.095 20.466436
65.100 20.721996
65.105 21.076315
65.110 21.289701
65.115 20.719849
65.120 20.471066
65.125 20.359962
65.130 20.964369
65.135 20.98457
65.140 21.456324
65.145 21.237078
65.150 21.172094
65.155 21.397028
65.160 20.659443
65.165 19.553249
65.170 19.368074
65.175 19.119808
65.180 19.256109
65.185 19.540594
65.190 19.217375
65.195 19.36787
65.200 19.773863
65.205 19.962421
65.210 19.731516
65.215 19.8978
65.220 19.891634
65.225 20.286007
65.230 21.353024
65.235 21.098854
65.240 21.056887
65.245 21.416115
65.250 21.140411
65.255 21.461847
65.260 21.327862
65.265 20.520599
65.270 20.415388
65.275 20.622162
65.280 20.901764
65.285 21.011148
65.290 20.754368
65.295 21.218935
65.300 21.631496
65.305 22.06316
65.310 21.851414
65.315 21.930414
65.320 22.467342
65.325 22.452747
65.330 22.170866
65.335 21.54007
65.340 21.852711
65.345 21.82653
65.350 21.796083
65.355 21.722494
65.360 21.623749
65.365 22.102564
65.370 22.955395
65.375 22.602835
65.380 22.499933
65.385 22.418947
65.390 22.387104
65.395 22.837162
65.400 22.65666
65.405 22.791744
65.410 23.110443
65.415 22.902061
65.420 22.493256
65.425 22.614841
65.430 22.539331
65.435 22.434771
65.440 22.522953
65.445 22.411877
65.450 22.398241
65.455 23.066545
65.460 23.051821
65.465 22.985476
65.470 23.235491
65.475 23.533478
65.480 23.971651
65.485 24.38938
65.490 24.113935
65.495 24.642393
65.500 25.025158
65.505 24.948183
65.510 24.946289
65.515 25.567942
65.520 25.801043
65.525 26.177694
65.530 26.272972
65.535 26.712471
65.540 26.405205
65.545 26.543112
65.550 26.548088
65.555 27.095058
65.560 27.22448
65.565 27.442654
65.570 27.671331
65.575 27.76502
65.580 27.897631
65.585 27.681578
65.590 28.199881
65.595 28.369183
65.600 28.305214
65.605 28.09763
65.610 28.33219
65.615 28.179512
65.620 28.542274
65.625 28.356813
65.630 28.992571
65.635 29.370916
65.640 30.596519
65.645 31.496264
65.650 32.124119
65.655 32.165085
65.660 32.55574
65.665 32.265392
65.670 32.015362
65.675 31.717827
65.680 32.089794
65.685 31.837515
65.690 31.798948
65.695 30.941978
65.700 31.048578
65.705 31.053261
65.710 31.216862
65.715 31.634233
65.720 32.4039
65.725 32.632458
65.730 32.802273
65.735 32.384472
65.740 32.469158
65.745 32.700314
65.750 32.352291
65.755 32.039978
65.760 31.875071
65.765 32.539215
65.770 33.416122
65.775 33.072479
65.780 32.990383
65.785 32.789063
65.790 32.68185
65.795 32.825569
65.800 33.042847
65.805 32.576614
65.810 32.303852
65.815 31.960953
65.820 32.543842
65.825 33.458263
65.830 33.973759
65.835 33.720341
65.840 33.986778
65.845 34.415165
65.850 34.873425
65.855 34.989323
65.860 35.6287
65.865 35.469578
65.870 36.02832
65.875 35.996811
65.880 36.309429
65.885 36.247723
65.890 35.989532
65.895 35.038033
65.900 34.473328
65.905 34.807663
65.910 35.523602
65.915 35.550636
65.920 35.754559
65.925 35.924492
65.930 36.208363
65.935 36.408497
65.940 35.368126
65.945 34.847889
65.950 34.278316
65.955 33.841629
65.960 33.859337
65.965 34.144196
65.970 34.046467
65.975 34.256687
65.980 34.281693
65.985 34.210667
65.990 33.871998
65.995 34.488468
66.000 34.415817
66.005 35.29007
66.010 36.058395
66.015 36.483547
66.020 36.854065
66.025 36.823524
66.030 35.828091
66.035 35.626858
66.040 35.099251
66.045 34.813976
66.050 34.910992
66.055 35.128315
66.060 35.671745
66.065 35.668365
66.070 35.406219
66.075 35.649899
66.080 35.445286
66.085 35.05529
66.090 34.995316
66.095 34.690933
66.100 34.660419
66.105 34.371811
66.110 34.391731
66.115 34.586208
66.120 34.733379
66.125 34.918831
66.130 34.670612
66.135 34.739986
66.140 34.930592
66.145 34.688076
66.150 34.024227
66.155 33.552502
66.160 33.050369
66.165 32.976009
66.170 32.420067
66.175 31.59539
66.180 31.28406
66.185 31.184671
66.190 30.814564
66.195 31.145647
66.200 30.691492
66.205 30.631531
66.210 30.410202
66.215 30.1257
66.220 30.301208
66.225 30.221252
66.230 29.653717
66.235 30.167015
66.240 30.762234
66.245 30.917912
66.250 30.075014
66.255 30.109894
66.260 30.664635
66.265 30.414446
66.270 29.661026
66.275 29.550417
66.280 29.902016
66.285 30.230318
66.290 29.892673
66.295 28.948179
66.300 29.035965
66.305 28.667213
66.310 28.300558
66.315 28.57815
66.320 28.877014
66.325 29.308489
66.330 28.722872
66.335 28.749689
66.340 28.672632
66.345 28.50477
66.350 28.091688
66.355 27.686487
66.360 28.156464
66.365 28.859509
66.370 29.334154
66.375 29.104586
66.380 29.024916
66.385 28.612148
66.390 28.35486
66.395 28.402168
66.400 29.059271
66.405 29.319489
66.410 29.903114
66.415 30.128513
66.420 29.949036
66.425 29.634047
66.430 29.234947
66.435 28.730986
66.440 28.187979
66.445 26.978174
66.450 26.411093
66.455 26.353626
66.460 26.032848
66.465 25.574539
66.470 25.221298
66.475 25.056293
66.480 25.853264
66.485 25.817095
66.490 25.933113
66.495 26.37355
66.500 26.567963
66.505 26.003996
66.510 25.499088
66.515 24.907383
66.520 24.45541
66.525 24.672394
66.530 24.844654
66.535 25.179262
66.540 25.481627
66.545 25.653057
66.550 26.078783
66.555 26.748714
66.560 26.853464
66.565 26.692631
66.570 26.446455
66.575 26.547159
66.580 26.254869
66.585 26.497068
66.590 26.591839
66.595 25.9846
66.600 25.981419
66.605 25.738218
66.610 25.997499
66.615 26.420444
66.620 26.092926
66.625 25.340851
66.630 24.870836
66.635 24.50939
66.640 24.333052
66.645 23.804852
66.650 23.070034
66.655 23.296837
66.660 23.89543
66.665 24.059919
66.670 23.94915
66.675 23.900627
66.680 24.373291
66.685 24.26082
66.690 23.844704
66.695 23.383823
66.700 23.537979
66.705 23.675417
66.710 23.607065
66.715 22.980398
66.720 23.080847
66.725 22.613285
66.730 22.896061
66.735 22.773653
66.740 22.655205
66.745 22.43125
66.750 22.646017
66.755 23.67943
66.760 24.746204
66.765 24.79932
66.770 25.085245
66.775 25.094793
66.780 24.826298
66.785 24.917385
66.790 23.900291
66.795 23.428532
66.800 22.698408
66.805 22.345638
66.810 22.559893
66.815 23.330822
66.820 23.679512
66.825 23.775791
66.830 23.50773
66.835 23.972027
66.840 23.741291
66.845 23.713154
66.850 23.438906
66.855 23.057156
66.860 23.435205
66.865 23.720949
66.870 22.925768
66.875 23.135672
66.880 22.582294
66.885 22.545847
66.890 21.973021
66.895 21.747192
66.900 21.361105
66.905 21.693596
66.910 21.522324
66.915 21.533506
66.920 21.220539
66.925 21.419346
66.930 20.992231
66.935 20.971399
66.940 21.028358
66.945 21.204811
66.950 21.815342
66.955 21.729242
66.960 21.620924
66.965 21.56909
66.970 20.991737
66.975 21.520035
66.980 21.882442
66.985 21.311586
66.990 21.515928
66.995 21.328421
67.000 21.050037
67.005 21.77544
67.010 20.878458
67.015 20.625645
67.020 21.150774
67.025 21.136059
67.030 21.015675
67.035 21.260752
67.040 21.062761
67.045 21.528553
67.050 22.00218
67.055 21.834696
67.060 21.997068
67.065 22.502136
67.070 22.574556
67.075 22.826378
67.080 23.183306
67.085 22.892494
67.090 22.841398
67.095 22.807787
67.100 23.2915
67.105 23.010605
67.110 22.20031
67.115 21.371172
67.120 21.295277
67.125 21.425375
67.130 21.835321
67.135 21.931799
67.140 22.409109
67.145 23.160923
67.150 23.727112
67.155 24.047054
67.160 23.651926
67.165 22.527998
67.170 22.199345
67.175 21.799784
67.180 21.941738
67.185 21.333735
67.190 21.310442
67.195 21.713913
67.200 21.954111
67.205 21.780182
67.210 21.774349
67.215 21.391665
67.220 21.763885
67.225 21.734531
67.230 21.247583
67.235 21.155434
67.240 21.490889
67.245 21.28734
67.250 21.045389
67.255 20.933964
67.260 21.15387
67.265 21.434208
67.270 21.444786
67.275 21.705957
67.280 22.425432
67.285 22.495682
67.290 22.278294
67.295 22.569361
67.300 22.980156
67.305 23.063286
67.310 22.826109
67.315 22.059149
67.320 22.482273
67.325 22.673094
67.330 22.384853
67.335 21.775339
67.340 21.289749
67.345 21.828465
67.350 21.973759
67.355 21.332787
67.360 20.937719
67.365 20.867416
67.370 21.383776
67.375 21.813637
67.380 21.38637
67.385 21.038532
67.390 21.393776
67.395 20.972961
67.400 21.107294
67.405 21.239475
67.410 21.33532
67.415 21.340956
67.420 21.03199
67.425 20.456762
67.430 21.032135
67.435 20.558081
67.440 20.729383
67.445 20.357136
67.450 20.323315
67.455 21.206739
67.460 21.79475
67.465 21.892784
67.470 22.203932
67.475 22.023073
67.480 21.994467
67.485 22.051952
67.490 21.640318
67.495 21.640329
67.500 21.947201
67.505 22.203348
67.510 22.177797
67.515 22.735575
67.520 23.115377
67.525 23.498703
67.530 22.754166
67.535 22.248852
67.540 21.983788
67.545 21.664217
67.550 21.181654
67.555 20.750994
67.560 21.03319
67.565 21.097567
67.570 20.6329
67.575 20.209917
67.580 20.677824
67.585 20.443695
67.590 20.193962
67.595 19.572479
67.600 19.723698
67.605 20.110928
67.610 20.233688
67.615 20.18107
67.620 20.83507
67.625 21.396383
67.630 21.477423
67.635 21.728479
67.640 21.601761
67.645 21.738472
67.650 21.203981
67.655 20.97913
67.660 20.951948
67.665 21.179214
67.670 21.541788
67.675 21.997036
67.680 22.048594
67.685 21.988838
67.690 21.689674
67.695 21.958048
67.700 22.330931
67.705 21.85985
67.710 21.640049
67.715 21.684343
67.720 21.307579
67.725 21.147272
67.730 20.680929
67.735 20.539017
67.740 20.213923
67.745 19.894762
67.750 20.517294
67.755 20.703979
67.760 21.099508
67.765 21.501959
67.770 21.06543
67.775 21.070459
67.780 20.695854
67.785 19.913115
67.790 20.076704
67.795 19.804911
67.800 19.643681
67.805 19.871586
67.810 20.401871
67.815 21.182867
67.820 21.383949
67.825 21.616486
67.830 21.714931
67.835 21.504021
67.840 21.375055
67.845 21.457329
67.850 21.077936
67.855 21.370171
67.860 20.892399
67.865 20.245672
67.870 20.357136
67.875 20.206964
67.880 20.448475
67.885 20.77364
67.890 20.161015
67.895 19.878614
67.900 20.576429
67.905 20.5763
67.910 20.226934
67.915 19.499166
67.920 19.759001
67.925 19.932396
67.930 20.215067
67.935 20.05685
67.940 20.102961
67.945 20.623028
67.950 21.309546
67.955 21.510006
67.960 22.274158
67.965 22.224106
67.970 22.095373
67.975 22.162682
67.980 22.081554
67.985 21.530924
67.990 21.034809
67.995 20.598377
68.000 20.910288
68.005 21.048313
68.010 20.898455
68.015 21.080513
68.020 21.277166
68.025 21.625996
68.030 21.85655
68.035 22.082502
68.040 22.370861
68.045 22.409821
68.050 21.899382
68.055 21.183813
68.060 21.332081
68.065 21.006865
68.070 20.99538
68.075 20.691864
68.080 20.972202
68.085 21.357954
68.090 21.514189
68.095 21.245232
68.100 20.750574
68.105 19.697029
68.110 19.606667
68.115 19.034491
68.120 18.617607
68.125 18.78936
68.130 18.516329
68.135 19.201782
68.140 19.901615
68.145 20.718266
68.150 21.432877
68.155 22.225702
68.160 22.593805
68.165 23.108078
68.170 22.833614
68.175 22.473185
68.180 21.551479
68.185 21.442745
68.190 21.285028
68.195 20.563707
68.200 19.882433
68.205 19.6285
68.210 19.401545
68.215 19.653008
68.220 19.63933
68.225 19.355883
68.230 19.815485
68.235 20.520233
68.240 21.002918
68.245 21.415911
68.250 21.741869
68.255 21.665516
68.260 21.955265
68.265 22.756124
68.270 23.202719
68.275 23.073256
68.280 23.504156
68.285 23.304586
68.290 23.620432
68.295 23.068863
68.300 22.053968
68.305 21.531691
68.310 21.229048
68.315 20.620899
68.320 20.019007
68.325 19.38232
68.330 19.894329
68.335 20.477104
68.340 21.128332
68.345 21.050713
68.350 20.333796
68.355 19.931814
68.360 19.335032
68.365 18.481962
68.370 17.716045
68.375 17.566442
68.380 18.145287
68.385 19.020187
68.390 19.279942
68.395 19.674351
68.400 19.776499
68.405 19.863678
68.410 19.958347
68.415 19.78677
68.420 19.559792
68.425 20.469395
68.430 20.717733
68.435 20.876707
68.440 20.599213
68.445 20.483528
68.450 20.558668
68.455 20.232018
68.460 20.342762
68.465 20.446951
68.470 20.573769
68.475 20.77824
68.480 20.507488
68.485 20.539404
68.490 21.055262
68.495 20.988873
68.500 21.314928
68.505 21.710373
68.510 21.640963
68.515 21.497175
68.520 21.605835
68.525 21.843864
68.530 21.899958
68.535 21.655005
68.540 20.798748
68.545 21.200979
68.550 20.948446
68.555 20.460979
68.560 20.108912
68.565 19.884287
68.570 20.111843
68.575 20.275541
68.580 20.427927
68.585 20.847347
68.590 21.190697
68.595 21.211079
68.600 21.068172
68.605 20.890173
68.610 21.031851
68.615 20.857742
68.620 20.859385
68.625 20.948343
68.630 20.727489
68.635 21.05139
68.640 21.034275
68.645 21.15974
68.650 21.247938
68.655 21.272169
68.660 20.925692
68.665 21.340178
68.670 21.461832
68.675 22.077633
68.680 22.140371
68.685 22.022905
68.690 22.111296
68.695 22.072895
68.700 21.921303
68.705 21.8627
68.710 21.30521
68.715 21.457254
68.720 21.155317
68.725 20.620016
68.730 21.33025
68.735 21.230888
68.740 21.30509
68.745 22.044661
68.750 21.946688
68.755 22.844818
68.760 23.933039
68.765 23.734961
68.770 24.177853
68.775 23.502068
68.780 22.390965
68.785 22.084442
68.790 21.477146
68.795 20.961842
68.800 20.796879
68.805 20.360312
68.810 20.71669
68.815 21.096083
68.820 21.570129
68.825 21.630575
68.830 21.895203
68.835 21.796997
68.840 21.716953
68.845 22.055817
68.850 21.427307
68.855 21.617348
68.860 22.031563
68.865 22.206051
68.870 22.355022
68.875 22.252798
68.880 22.213997
68.885 22.866386
68.890 22.528725
68.895 22.059319
68.900 21.549755
68.905 21.906626
68.910 22.30327
68.915 22.598862
68.920 22.105057
68.925 21.77961
68.930 21.854746
68.935 21.988123
68.940 21.628811
68.945 21.465187
68.950 21.417377
68.955 21.982897
68.960 22.043604
68.965 22.109253
68.970 22.952572
68.975 23.583673
68.980 24.050947
68.985 24.128538
68.990 24.801802
68.995 25.184101
69.000 25.374886
69.005 25.142387
69.010 24.517878
69.015 24.332615
69.020 24.296137
69.025 23.634455
69.030 23.421434
69.035 22.27953
69.040 21.53051
69.045 21.571465
69.050 21.608143
69.055 21.457418
69.060 21.582321
69.065 21.591194
69.070 22.539835
69.075 24.014174
69.080 24.772409
69.085 25.377003
69.090 25.635138
69.095 25.915173
69.100 26.70574
69.105 26.625719
69.110 25.477123
69.115 24.732349
69.120 24.409485
69.125 25.077265
69.130 24.777567
69.135 24.764748
69.140 25.053381
69.145 25.827789
69.150 26.183237
69.155 25.527504
69.160 24.525965
69.165 24.486921
69.170 24.393141
69.175 24.627811
69.180 24.747547
69.185 25.568493
69.190 26.482296
69.195 26.702114
69.200 26.281641
69.205 26.776089
69.210 26.362293
69.215 25.454432
69.220 24.632101
69.225 24.378922
69.230 24.634817
69.235 25.15107
69.240 25.295099
69.245 25.769602
69.250 26.047424
69.255 25.999521
69.260 25.853985
69.265 26.337717
69.270 26.528856
69.275 25.966738
69.280 25.810032
69.285 26.032486
69.290 26.625328
69.295 26.983282
69.300 26.775106
69.305 26.639307
69.310 26.855803
69.315 26.703186
69.320 26.954741
69.325 26.489616
69.330 26.487158
69.335 26.286854
69.340 25.958509
69.345 26.236538
69.350 26.813162
69.355 26.83217
69.360 26.359201
69.365 26.051683
69.370 26.040995
69.375 26.455177
69.380 25.734959
69.385 25.667496
69.390 26.344255
69.395 27.368019
69.400 27.791292
69.405 27.409536
69.410 27.345236
69.415 28.153063
69.420 27.740208
69.425 26.783562
69.430 26.967363
69.435 27.270681
69.440 28.100801
69.445 28.935741
69.450 29.108688
69.455 29.075138
69.460 29.543531
69.465 29.253277
69.470 29.047445
69.475 29.07201
69.480 28.656883
69.485 28.753609
69.490 28.853157
69.495 28.932161
69.500 28.38279
69.505 28.413668
69.510 28.439541
69.515 27.408379
69.520 26.850227
69.525 26.603867
69.530 26.455137
69.535 26.809875
69.540 26.491856
69.545 26.183157
69.550 26.546165
69.555 26.610134
69.560 26.552097
69.565 26.576593
69.570 26.869732
69.575 27.381126
69.580 28.126287
69.585 28.760576
69.590 28.359314
69.595 28.253139
69.600 27.619448
69.605 26.693127
69.610 26.257536
69.615 26.095104
69.620 26.272102
69.625 26.42362
69.630 26.172188
69.635 26.498405
69.640 26.998232
69.645 26.973309
69.650 26.416239
69.655 26.391787
69.660 27.197264
69.665 27.754053
69.670 27.147659
69.675 27.247072
69.680 26.998325
69.685 27.436302
69.690 26.991508
69.695 26.219334
69.700 25.710867
69.705 25.201496
69.710 24.570408
69.715 24.055216
69.720 23.799276
69.725 23.357483
69.730 23.398182
69.735 23.857519
69.740 24.590139
69.745 24.795704
69.750 24.765388
69.755 24.660522
69.760 25.341385
69.765 25.114439
69.770 24.522297
69.775 23.759125
69.780 23.580082
69.785 23.630648
69.790 23.294001
69.795 22.209995
69.800 22.039511
69.805 23.016544
69.810 23.091528
69.815 23.503439
69.820 23.251659
69.825 23.376842
69.830 23.577574
69.835 23.490417
69.840 23.354774
69.845 23.4452
69.850 23.590544
69.855 23.370995
69.860 23.079485
69.865 23.295017
69.870 23.419418
69.875 23.438536
69.880 23.73608
69.885 23.735168
69.890 23.952734
69.895 24.165689
69.900 23.571663
69.905 23.665668
69.910 23.170835
69.915 22.180017
69.920 22.229305
69.925 22.294189
69.930 22.359514
69.935 22.738539
69.940 22.213072
69.945 22.050125
69.950 22.05471
69.955 22.369974
69.960 22.557356
69.965 22.670092
69.970 22.203035
69.975 22.649858
69.980 23.122318
69.985 23.346226
69.990 23.243572
69.995 22.60989
70.000 22.268774
70.005 22.126053
70.010 21.914511
70.015 21.984241
70.020 21.578049
70.025 21.337498
70.030 21.962343
70.035 22.146721
70.040 22.408752
70.045 22.149353
70.050 21.74102
70.055 21.208015
70.060 20.835056
70.065 20.982393
70.070 20.829012
70.075 20.715923
70.080 20.730759
70.085 20.971807
70.090 21.32082
70.095 21.437542
70.100 20.385498
70.105 20.449409
70.110 20.647377
70.115 20.925396
70.120 20.919512
70.125 20.553598
70.130 20.495264
70.135 21.704557
70.140 21.71328
70.145 21.424261
70.150 20.49411
70.155 19.954
70.160 20.339575
70.165 20.114319
70.170 19.341431
70.175 19.493185
70.180 19.580261
70.185 20.417301
70.190 20.930185
70.195 21.272045
70.200 21.111996
70.205 20.937817
70.210 20.884857
70.215 20.954193
70.220 20.744461
70.225 20.796375
70.230 20.303217
70.235 20.51712
70.240 20.377579
70.245 20.508528
70.250 20.10346
70.255 20.132055
70.260 19.83025
70.265 19.755913
70.270 19.317938
70.275 19.595179
70.280 19.138964
70.285 19.385519
70.290 18.956495
70.295 18.931046
70.300 19.175097
70.305 19.478998
70.310 19.380466
70.315 19.689199
70.320 19.784292
70.325 20.230627
70.330 19.594124
70.335 19.05496
70.340 18.807449
70.345 19.24357
70.350 19.394089
70.355 19.03042
70.360 18.549955
70.365 18.614113
70.370 18.522333
70.375 18.142193
70.380 17.274885
70.385 17.384382
70.390 17.739489
70.395 18.125803
70.400 18.156939
70.405 18.331614
70.410 17.989666
70.415 17.580784
70.420 16.737789
70.425 17.023558
70.430 17.501139
70.435 18.059772
70.440 18.446106
70.445 19.278942
70.450 20.195522
70.455 20.379917
70.460 19.945398
70.465 20.050444
70.470 20.06797
70.475 20.249088
70.480 19.604851
70.485 19.369528
70.490 19.543247
70.495 19.374664
70.500 18.565765
70.505 18.153585
70.510 17.688036
70.515 17.644539
70.520 17.598516
70.525 17.876957
70.530 18.365244
70.535 19.082804
70.540 19.135012
70.545 19.872274
70.550 20.848873
70.555 21.34878
70.560 21.104565
70.565 20.818092
70.570 21.069906
70.575 20.982143
70.580 20.968254
70.585 20.792103
70.590 20.414597
70.595 20.311625
70.600 19.595078
70.605 19.412497
70.610 19.606009
70.615 19.381084
70.620 19.829918
70.625 20.663088
70.630 20.87678
70.635 21.268301
70.640 21.047953
70.645 21.016949
70.650 20.480394
70.655 19.829767
70.660 19.093157
70.665 19.184776
70.670 18.894424
70.675 18.953438
70.680 18.872442
70.685 19.459522
70.690 19.592108
70.695 19.77688
70.700 19.880898
70.705 20.720968
70.710 21.240967
70.715 21.711134
70.720 21.032061
70.725 20.352407
70.730 19.828236
70.735 19.519663
70.740 19.474592
70.745 18.668335
70.750 18.013176
70.755 18.617735
70.760 18.806425
70.765 19.179926
70.770 18.608912
70.775 18.03071
70.780 18.112377
70.785 18.537859
70.790 18.108467
70.795 18.383825
70.800 18.282526
70.805 18.179354
70.810 18.295687
70.815 18.097519
70.820 17.709085
70.825 17.797594
70.830 17.677334
70.835 18.170061
70.840 18.28974
70.845 18.406981
70.850 18.521358
70.855 18.702866
70.860 18.700386
70.865 18.766642
70.870 18.641979
70.875 18.092287
70.880 18.025496
70.885 18.380472
70.890 18.449331
70.895 18.356022
70.900 18.475296
70.905 18.719376
70.910 19.319901
70.915 19.408388
70.920 19.368809
70.925 19.879377
70.930 20.011633
70.935 19.837067
70.940 20.17815
70.945 20.31003
70.950 20.070921
70.955 18.972738
70.960 18.394361
70.965 18.784992
70.970 18.52137
70.975 18.530539
70.980 18.032536
70.985 18.202854
70.990 18.867224
70.995 18.641989
71.000 18.170424
71.005 17.830456
71.010 17.363182
71.015 17.602015
71.020 17.589314
71.025 17.537182
71.030 17.573208
71.035 17.860695
71.040 18.33017
71.045 18.614679
71.050 18.523514
71.055 17.881639
71.060 17.671644
71.065 17.710758
71.070 17.494862
71.075 17.362503
71.080 17.186865
71.085 17.891708
71.090 18.367018
71.095 18.715153
71.100 19.22636
71.105 19.764463
71.110 19.770178
71.115 19.732155
71.120 19.829203
71.125 20.106117
71.130 19.444345
71.135 18.897228
71.140 18.250372
71.145 18.282219
71.150 17.923334
71.155 17.640396
71.160 17.239147
71.165 17.175793
71.170 16.971888
71.175 17.090261
71.180 16.997831
71.185 16.749935
71.190 16.665457
71.195 16.758436
71.200 17.279585
71.205 17.455961
71.210 17.012581
71.215 17.060944
71.220 17.221378
71.225 16.9911
71.230 17.411663
71.235 17.820391
71.240 18.301004
71.245 18.990688
71.250 19.558233
71.255 20.100126
71.260 20.888542
71.265 21.094971
71.270 20.849358
71.275 20.619156
71.280 20.349894
71.285 20.046803
71.290 20.223749
71.295 20.329807
71.300 20.374552
71.305 20.681967
71.310 20.411434
71.315 20.377893
71.320 20.36204
71.325 19.616924
71.330 18.548223
71.335 18.949532
71.340 18.952141
71.345 19.469482
71.350 19.346512
71.355 19.407089
71.360 19.569571
71.365 19.350615
71.370 18.801908
71.375 19.22929
71.380 19.545149
71.385 20.104141
71.390 20.215048
71.395 20.352753
71.400 21.521099
71.405 20.882074
71.410 19.650663
71.415 18.653625
71.420 18.19183
71.425 18.179195
71.430 17.891411
71.435 17.101162
71.440 17.34297
71.445 18.228336
71.450 18.539364
71.455 18.870773
71.460 18.728525
71.465 18.475033
71.470 18.431038
71.475 18.004995
71.480 17.760496
71.485 17.320152
71.490 16.868725
71.495 16.883251
71.500 16.316372
71.505 16.342451
71.510 16.538013
71.515 16.857615
71.520 17.099586
71.525 17.000134
71.530 17.262405
71.535 18.608042
71.540 18.789871
71.545 18.251835
71.550 17.927574
71.555 18.136782
71.560 18.36438
71.565 18.365576
71.570 17.613554
71.575 17.67671
71.580 18.261187
71.585 18.530703
71.590 18.057018
71.595 17.849907
71.600 18.184143
71.605 18.598349
71.610 18.604105
71.615 18.045856
71.620 17.824793
71.625 17.969463
71.630 17.817444
71.635 17.914722
71.640 18.641682
71.645 18.484825
71.650 18.338158
71.655 18.457409
71.660 18.702547
71.665 18.951414
71.670 18.189014
71.675 18.022921
71.680 18.446754
71.685 18.444529
71.690 18.169695
71.695 18.207008
71.700 18.058836
71.705 17.673765
71.710 16.447126
71.715 16.565765
71.720 17.120277
71.725 17.291578
71.730 17.328457
71.735 17.296129
71.740 17.111776
71.745 17.299685
71.750 17.28833
71.755 17.056953
71.760 16.906233
71.765 16.640095
71.770 16.293848
71.775 17.126278
71.780 17.776947
71.785 18.0315
71.790 17.767174
71.795 17.843731
71.800 17.893723
71.805 18.538261
71.810 17.853594
71.815 16.960308
71.820 16.691423
71.825 17.356129
71.830 17.490007
71.835 18.201015
71.840 18.103367
71.845 18.447283
71.850 18.627386
71.855 19.010386
71.860 18.494698
71.865 18.204184
71.870 17.745811
71.875 17.95672
71.880 17.972431
71.885 18.105843
71.890 17.882809
71.895 17.594374
71.900 17.492498
71.905 17.28006
71.910 17.201973
71.915 17.3859
71.920 17.735104
71.925 17.956116
71.930 18.534042
71.935 18.577503
71.940 18.477264
71.945 18.751032
71.950 18.785831
71.955 18.192823
71.960 17.971445
71.965 18.025303
71.970 18.073677
71.975 18.116154
71.980 17.488731
71.985 16.878168
71.990 16.865105
71.995 16.479887
72.000 16.462128
72.005 17.060665
72.010 16.817335
72.015 17.176319
72.020 17.543142
72.025 17.559908
72.030 17.934349
72.035 17.694899
72.040 17.231611
72.045 17.45388
72.050 17.468788
72.055 17.693077
72.060 17.765923
72.065 17.415989
72.070 17.647638
72.075 17.629374
72.080 18.196007
72.085 18.376059
72.090 17.86743
72.095 17.515587
72.100 17.758383
72.105 17.759872
72.110 17.347828
72.115 17.086464
72.120 17.349632
72.125 17.927088
72.130 17.878845
72.135 17.599014
72.140 18.015457
72.145 18.283079
72.150 17.611727
72.155 17.150772
72.160 16.507627
72.165 16.917194
72.170 17.01696
72.175 16.657583
72.180 16.596333
72.185 16.136274
72.190 15.999486
72.195 16.496395
72.200 16.487701
72.205 15.752872
72.210 16.174349
72.215 16.505938
72.220 17.50309
72.225 18.004942
72.230 18.109524
72.235 18.132431
72.240 18.262457
72.245 18.17016
72.250 18.282034
72.255 18.451538
72.260 18.297028
72.265 18.298624
72.270 17.993479
72.275 18.437004
72.280 18.782085
72.285 19.243015
72.290 19.055035
72.295 19.229584
72.300 20.015512
72.305 20.500984
72.310 19.94735
72.315 19.321482
72.320 18.993809
72.325 18.818596
72.330 18.286243
72.335 17.732807
72.340 17.791407
72.345 18.040462
72.350 17.875196
72.355 17.368137
72.360 17.071148
72.365 16.894012
72.370 17.008112
72.375 17.156841
72.380 16.935177
72.385 17.826904
72.390 18.003574
72.395 18.590559
72.400 18.513374
72.405 18.135361
72.410 17.88868
72.415 17.949627
72.420 17.300631
72.425 17.068533
72.430 17.454489
72.435 17.69706
72.440 17.736576
72.445 17.721392
72.450 18.087942
72.455 18.402887
72.460 17.956766
72.465 17.473692
72.470 17.379969
72.475 17.471663
72.480 17.340275
72.485 17.428162
72.490 17.792112
72.495 17.807541
72.500 18.063688
72.505 18.245657
72.510 17.840553
72.515 17.699072
72.520 17.563551
72.525 17.058136
72.530 17.22822
72.535 16.629696
72.540 16.339037
72.545 16.562435
72.550 17.19243
72.555 17.933737
72.560 18.733364
72.565 18.265436
72.570 18.430086
72.575 18.666948
72.580 18.938828
72.585 18.115175
72.590 17.544689
72.595 17.759623
72.600 18.807329
72.605 18.857468
72.610 18.924147
72.615 18.892845
72.620 19.042091
72.625 18.904673
72.630 18.49955
72.635 18.321039
72.640 18.514557
72.645 18.2272
72.650 18.215658
72.655 18.323191
72.660 18.314322
72.665 18.193275
72.670 17.976744
72.675 18.19408
72.680 18.140669
72.685 17.877123
72.690 17.636677
72.695 17.797729
72.700 17.4438
72.705 17.233326
72.710 16.717527
72.715 16.581051
72.720 16.479557
72.725 15.948507
72.730 16.318272
72.735 16.30266
72.740 16.89608
72.745 17.104172
72.750 16.509476
72.755 16.370518
72.760 16.923836
72.765 16.82546
72.770 16.973619
72.775 16.792137
72.780 16.717556
72.785 17.221342
72.790 17.93504
72.795 17.289536
72.800 17.761436
72.805 17.834803
72.810 17.744173
72.815 17.752533
72.820 17.122368
72.825 16.283564
72.830 16.396671
72.835 15.888453
72.840 15.872948
72.845 15.420963
72.850 15.805577
72.855 16.021378
72.860 16.363159
72.865 15.975786
72.870 15.933406
72.875 16.202124
72.880 16.589113
72.885 17.109665
72.890 17.343555
72.895 17.355175
72.900 17.398478
72.905 16.981134
72.910 16.587833
72.915 16.182674
72.920 16.000731
72.925 15.930242
72.930 16.687735
72.935 16.900696
72.940 17.056517
72.945 17.518185
72.950 17.005962
72.955 16.674139
72.960 16.706734
72.965 15.82513
72.970 16.295923
72.975 16.336433
72.980 16.718088
72.985 16.723583
72.990 16.430582
72.995 16.510208
73.000 16.840481
