!@!!GADDS PLOTSO FILE: Chi integration type
!@!!Title/SampleName: map-8f
!@!!Comment: ?
!@!!User: Bruker Instrument Administrator
!@!!Site: University of Illinois Chicago
!@!!Frame: map-8f_01_000.gfrm
!@!!Wavelengths    1.54184   1.54056   1.54439
!@!!Frame angles: 2Theta: 63.000 Omega: 50.000 Phi: 0.000 Chi: 90.000
!@!!Integration range: 2Theta: 53.000 to 73.000  Gamma: -105.000 to -75.000
!@!!Integration method: bin normalized
!@!N
!@!SS
!@!M
!@!L 0.0 0.0 0.0 0.0
!@!XDegrees
!@!YCounts
53.000 8.981505
53.005 8.927549
53.010 8.738762
53.015 8.633474
53.020 8.950125
53.025 8.911079
53.030 8.778866
53.035 9.383704
53.040 9.181359
53.045 9.149342
53.050 8.771674
53.055 8.435698
53.060 8.816669
53.065 8.801056
53.070 8.098475
53.075 8.261975
53.080 8.173704
53.085 8.412766
53.090 8.398154
53.095 8.141753
53.100 8.344965
53.105 8.585814
53.110 8.68505
53.115 9.042542
53.120 9.066845
53.125 8.72998
53.130 8.899882
53.135 8.734012
53.140 8.6571
53.145 8.535181
53.150 8.42994
53.155 8.776427
53.160 9.227078
53.165 9.200045
53.170 9.063228
53.175 8.920517
53.180 8.740439
53.185 8.519778
53.190 7.893423
53.195 7.525988
53.200 7.744139
53.205 8.055061
53.210 8.582981
53.215 8.860046
53.220 8.854221
53.225 9.020946
53.230 9.248899
53.235 9.177804
53.240 8.941042
53.245 8.75904
53.250 8.723627
53.255 9.139741
53.260 9.333539
53.265 9.193462
53.270 9.075089
53.275 9.081315
53.280 9.148647
53.285 8.905128
53.290 8.425364
53.295 8.012112
53.300 8.019044
53.305 8.088425
53.310 7.851567
53.315 7.346506
53.320 7.357467
53.325 7.223741
53.330 7.742571
53.335 7.82306
53.340 7.648056
53.345 7.883982
53.350 8.029891
53.355 8.353043
53.360 8.547894
53.365 7.91081
53.370 7.927482
53.375 8.37844
53.380 8.265204
53.385 8.55469
53.390 8.964662
53.395 9.369645
53.400 9.391081
53.405 9.27403
53.410 9.139786
53.415 9.322196
53.420 8.950219
53.425 8.414848
53.430 8.341572
53.435 8.725757
53.440 8.780804
53.445 8.762722
53.450 8.604428
53.455 8.438184
53.460 8.565336
53.465 8.616796
53.470 8.532149
53.475 8.539115
53.480 8.56282
53.485 9.044073
53.490 8.789927
53.495 8.777117
53.500 9.230124
53.505 9.147636
53.510 8.843576
53.515 8.981289
53.520 8.867476
53.525 9.09901
53.530 8.69683
53.535 8.161239
53.540 8.599508
53.545 9.106554
53.550 8.991467
53.555 8.578266
53.560 8.80123
53.565 8.618923
53.570 8.762536
53.575 8.424196
53.580 8.038342
53.585 8.072091
53.590 8.410145
53.595 8.618938
53.600 8.889634
53.605 8.996559
53.610 8.811405
53.615 8.908175
53.620 8.747885
53.625 8.587029
53.630 8.409061
53.635 8.008973
53.640 7.509577
53.645 7.613518
53.650 7.923075
53.655 8.586735
53.660 9.116704
53.665 9.378055
53.670 9.694667
53.675 9.684483
53.680 9.72611
53.685 9.71685
53.690 9.263883
53.695 8.85669
53.700 9.117457
53.705 9.140621
53.710 9.307922
53.715 9.197328
53.720 9.070605
53.725 9.338031
53.730 9.045297
53.735 8.754761
53.740 8.824324
53.745 8.872153
53.750 9.005419
53.755 8.862124
53.760 9.070012
53.765 9.330713
53.770 9.198013
53.775 9.283977
53.780 9.133566
53.785 9.001624
53.790 9.272934
53.795 9.262211
53.800 9.369581
53.805 9.635495
53.810 9.671702
53.815 9.714933
53.820 9.974333
53.825 9.815538
53.830 9.845043
53.835 9.568222
53.840 9.428353
53.845 9.363468
53.850 9.283652
53.855 8.995337
53.860 8.452323
53.865 8.649998
53.870 9.265693
53.875 9.095254
53.880 8.969151
53.885 8.988594
53.890 9.042809
53.895 9.553629
53.900 9.529515
53.905 9.37669
53.910 9.729226
53.915 9.818465
53.920 10.107476
53.925 10.257065
53.930 9.815478
53.935 9.720965
53.940 9.39915
53.945 9.164074
53.950 9.439106
53.955 9.760308
53.960 9.551459
53.965 9.321335
53.970 9.242741
53.975 9.635394
53.980 9.711072
53.985 9.229405
53.990 8.558397
53.995 8.892529
54.000 9.441215
54.005 9.24679
54.010 9.219051
54.015 9.228351
54.020 9.589691
54.025 9.748655
54.030 9.412682
54.035 9.461776
54.040 9.598333
54.045 9.512052
54.050 9.885703
54.055 9.630474
54.060 9.636023
54.065 9.816465
54.070 9.725372
54.075 9.909719
54.080 9.736975
54.085 9.504202
54.090 9.812721
54.095 9.637392
54.100 9.340697
54.105 8.993648
54.110 9.038058
54.115 9.173902
54.120 9.259244
54.125 8.973414
54.130 9.155336
54.135 9.674502
54.140 9.936173
54.145 10.030348
54.150 9.822574
54.155 9.88393
54.160 10.059072
54.165 9.713865
54.170 9.221246
54.175 9.163366
54.180 8.929556
54.185 8.607927
54.190 8.632175
54.195 8.588004
54.200 8.952367
54.205 9.386905
54.210 9.150201
54.215 9.162145
54.220 8.999609
54.225 8.781927
54.230 9.000863
54.235 9.531219
54.240 9.894539
54.245 9.86976
54.250 10.077957
54.255 10.464829
54.260 10.68255
54.265 10.51112
54.270 9.690917
54.275 9.383039
54.280 9.636134
54.285 9.744804
54.290 9.701048
54.295 9.348656
54.300 9.314021
54.305 9.707334
54.310 9.95061
54.315 9.727352
54.320 9.635245
54.325 9.634057
54.330 9.821644
54.335 10.11287
54.340 10.044346
54.345 10.25948
54.350 10.766909
54.355 10.534555
54.360 10.200956
54.365 10.05365
54.370 10.126674
54.375 10.128129
54.380 9.734212
54.385 9.408591
54.390 10.025187
54.395 10.374554
54.400 10.309716
54.405 10.063777
54.410 9.808929
54.415 10.186633
54.420 10.235137
54.425 10.109774
54.430 10.5318
54.435 10.317214
54.440 10.4312
54.445 10.741174
54.450 10.533515
54.455 10.267247
54.460 9.993597
54.465 9.489925
54.470 9.142286
54.475 9.047963
54.480 9.518544
54.485 10.109734
54.490 10.458711
54.495 10.71854
54.500 10.680861
54.505 10.867917
54.510 10.873027
54.515 10.242831
54.520 9.822906
54.525 9.384553
54.530 9.27048
54.535 9.77545
54.540 9.769846
54.545 9.001668
54.550 8.836052
54.555 9.062513
54.560 9.396931
54.565 9.412406
54.570 9.410177
54.575 9.694267
54.580 9.881476
54.585 9.589439
54.590 9.006968
54.595 8.90247
54.600 8.801635
54.605 9.171061
54.610 9.730402
54.615 10.261584
54.620 10.588471
54.625 10.740512
54.630 11.119326
54.635 11.266296
54.640 10.792392
54.645 9.892659
54.650 9.629094
54.655 9.789746
54.660 10.21454
54.665 10.008538
54.670 9.858797
54.675 9.571536
54.680 9.812952
54.685 9.711258
54.690 9.808747
54.695 9.446198
54.700 9.049037
54.705 9.137834
54.710 9.284404
54.715 9.570319
54.720 9.612481
54.725 9.539946
54.730 9.998241
54.735 10.283802
54.740 10.30087
54.745 10.578782
54.750 10.305525
54.755 10.4758
54.760 10.497309
54.765 10.516566
54.770 10.510427
54.775 10.657312
54.780 10.91724
54.785 11.154354
54.790 10.815084
54.795 10.428923
54.800 9.926517
54.805 10.113435
54.810 9.747327
54.815 9.608587
54.820 9.502185
54.825 9.922444
54.830 9.79487
54.835 10.295371
54.840 10.178334
54.845 9.932946
54.850 9.657112
54.855 9.918575
54.860 10.12552
54.865 10.201882
54.870 9.87452
54.875 9.973327
54.880 10.578938
54.885 10.940349
54.890 10.415982
54.895 10.158151
54.900 10.249835
54.905 10.275897
54.910 10.222878
54.915 9.938194
54.920 9.967608
54.925 10.331145
54.930 10.203745
54.935 10.139075
54.940 10.333191
54.945 10.176136
54.950 10.145613
54.955 9.869522
54.960 9.958346
54.965 10.280066
54.970 10.061219
54.975 10.193264
54.980 10.244758
54.985 10.21775
54.990 9.891519
54.995 9.552755
55.000 9.553806
55.005 9.537983
55.010 9.531809
55.015 9.458652
55.020 9.084748
55.025 9.429168
55.030 9.611725
55.035 9.667086
55.040 9.604154
55.045 9.888978
55.050 9.919467
55.055 9.474554
55.060 9.378757
55.065 9.172895
55.070 9.046772
55.075 9.293206
55.080 9.083199
55.085 9.447615
55.090 9.907329
55.095 10.226086
55.100 10.439116
55.105 10.342124
55.110 9.889583
55.115 9.548181
55.120 9.839017
55.125 10.009982
55.130 9.701019
55.135 9.863268
55.140 10.148479
55.145 10.37399
55.150 10.626761
55.155 10.826198
55.160 10.63567
55.165 10.758498
55.170 11.282622
55.175 11.654376
55.180 11.96833
55.185 11.859135
55.190 11.695484
55.195 11.573681
55.200 11.10668
55.205 10.819536
55.210 10.684979
55.215 10.56179
55.220 10.609057
55.225 10.329495
55.230 10.438293
55.235 10.041199
55.240 9.485403
55.245 9.442274
55.250 9.446406
55.255 9.247585
55.260 9.110042
55.265 9.567947
55.270 10.146944
55.275 10.327029
55.280 10.047686
55.285 9.718052
55.290 9.804206
55.295 10.237952
55.300 10.359214
55.305 10.208496
55.310 10.049235
55.315 10.75788
55.320 11.194736
55.325 11.693784
55.330 11.950686
55.335 11.794649
55.340 12.146359
55.345 12.197746
55.350 12.171187
55.355 12.108963
55.360 11.654275
55.365 11.405816
55.370 11.500273
55.375 11.743384
55.380 11.569795
55.385 11.321485
55.390 11.541408
55.395 12.244058
55.400 12.270759
55.405 12.429375
55.410 12.126913
55.415 12.271016
55.420 12.677613
55.425 12.571947
55.430 12.275017
55.435 12.090409
55.440 12.094316
55.445 11.862711
55.450 11.689815
55.455 11.434746
55.460 11.519175
55.465 11.724374
55.470 12.084503
55.475 12.275385
55.480 12.83743
55.485 12.725724
55.490 12.714917
55.495 11.609179
55.500 10.995895
55.505 10.384282
55.510 9.743106
55.515 9.47394
55.520 9.54096
55.525 9.759058
55.530 10.29483
55.535 10.780123
55.540 10.853041
55.545 11.077857
55.550 11.407844
55.555 11.33843
55.560 11.202848
55.565 11.284924
55.570 11.777088
55.575 12.052224
55.580 11.948537
55.585 11.504265
55.590 11.298285
55.595 11.30193
55.600 10.950436
55.605 10.572049
55.610 10.701805
55.615 10.880561
55.620 11.338538
55.625 11.707903
55.630 11.958983
55.635 12.099768
55.640 12.065772
55.645 11.901538
55.650 12.171975
55.655 12.41062
55.660 12.483759
55.665 12.633832
55.670 12.314724
55.675 12.395061
55.680 12.721662
55.685 12.615033
55.690 12.199591
55.695 12.002048
55.700 11.971959
55.705 12.087605
55.710 12.17556
55.715 11.80143
55.720 11.814598
55.725 11.852732
55.730 11.762962
55.735 11.601227
55.740 11.446546
55.745 11.487329
55.750 11.640545
55.755 11.494442
55.760 11.317973
55.765 11.711056
55.770 12.475704
55.775 12.589386
55.780 12.645411
55.785 12.268993
55.790 12.302935
55.795 12.524172
55.800 12.210564
55.805 12.046604
55.810 12.040331
55.815 12.076042
55.820 12.203023
55.825 11.974836
55.830 11.614473
55.835 11.766708
55.840 11.484391
55.845 11.408623
55.850 11.585496
55.855 11.683467
55.860 12.003297
55.865 12.201147
55.870 11.721382
55.875 11.767838
55.880 11.351393
55.885 11.016744
55.890 10.899302
55.895 10.746897
55.900 10.781674
55.905 10.672363
55.910 11.104602
55.915 11.875533
55.920 12.149445
55.925 12.004009
55.930 12.547361
55.935 12.802623
55.940 12.996191
55.945 12.916701
55.950 12.863379
55.955 12.875298
55.960 12.763386
55.965 12.411661
55.970 12.237373
55.975 12.542842
55.980 12.280522
55.985 11.754272
55.990 11.810479
55.995 11.484015
56.000 11.429527
56.005 11.507414
56.010 11.258582
56.015 11.234001
56.020 11.527297
56.025 11.594531
56.030 12.141907
56.035 12.454004
56.040 11.989495
56.045 11.860195
56.050 12.289672
56.055 12.270616
56.060 12.27425
56.065 12.152964
56.070 12.163932
56.075 12.35161
56.080 12.464534
56.085 12.226998
56.090 12.584253
56.095 12.625605
56.100 12.4586
56.105 12.441936
56.110 11.949873
56.115 11.619313
56.120 11.17065
56.125 10.767205
56.130 10.526578
56.135 10.301332
56.140 10.407945
56.145 10.963217
56.150 11.261484
56.155 11.37351
56.160 11.754098
56.165 12.004411
56.170 12.171498
56.175 12.494223
56.180 12.583832
56.185 12.104119
56.190 11.626702
56.195 11.130601
56.200 10.97961
56.205 11.041527
56.210 10.984352
56.215 11.056569
56.220 11.294235
56.225 12.100713
56.230 12.204633
56.235 12.42065
56.240 12.243048
56.245 12.377267
56.250 12.596217
56.255 12.640269
56.260 12.665104
56.265 12.930624
56.270 12.700721
56.275 12.499281
56.280 11.746727
56.285 11.4827
56.290 11.513903
56.295 11.563702
56.300 11.679059
56.305 12.04737
56.310 12.060192
56.315 12.483312
56.320 12.666617
56.325 12.697237
56.330 12.555587
56.335 11.850826
56.340 11.402987
56.345 11.715576
56.350 11.763962
56.355 11.943995
56.360 11.75182
56.365 11.932803
56.370 12.58137
56.375 13.018966
56.380 13.206983
56.385 12.960629
56.390 12.671341
56.395 12.427836
56.400 11.971506
56.405 11.930613
56.410 11.566743
56.415 11.097171
56.420 11.262347
56.425 11.659373
56.430 12.172556
56.435 12.354159
56.440 12.516759
56.445 12.633076
56.450 13.281245
56.455 13.732887
56.460 14.101482
56.465 13.858126
56.470 13.768194
56.475 13.424213
56.480 13.291475
56.485 12.73937
56.490 12.768276
56.495 12.338677
56.500 12.37722
56.505 12.213295
56.510 12.589009
56.515 12.558269
56.520 12.970872
56.525 12.439254
56.530 12.452017
56.535 12.650893
56.540 12.653252
56.545 12.439214
56.550 12.208444
56.555 11.837912
56.560 11.166695
56.565 10.896391
56.570 11.136522
56.575 10.930742
56.580 11.112227
56.585 10.975766
56.590 10.845995
56.595 11.581318
56.600 11.670918
56.605 11.453544
56.610 11.324992
56.615 11.056818
56.620 10.94284
56.625 11.210603
56.630 11.046178
56.635 11.430012
56.640 11.203543
56.645 10.902872
56.650 10.80461
56.655 11.500458
56.660 11.609402
56.665 11.594568
56.670 11.346589
56.675 11.425692
56.680 12.031439
56.685 12.440915
56.690 12.087548
56.695 12.210992
56.700 12.191986
56.705 12.489382
56.710 13.149552
56.715 13.136035
56.720 13.467241
56.725 13.89661
56.730 14.327803
56.735 14.374418
56.740 14.230399
56.745 13.804066
56.750 13.485034
56.755 13.149566
56.760 12.73553
56.765 12.479488
56.770 12.725034
56.775 12.814034
56.780 13.034251
56.785 13.424805
56.790 13.14667
56.795 13.007942
56.800 13.101848
56.805 12.900057
56.810 13.171177
56.815 12.807798
56.820 12.830321
56.825 13.266622
56.830 13.491378
56.835 13.205144
56.840 13.245007
56.845 12.398223
56.850 12.340003
56.855 11.863834
56.860 11.562836
56.865 11.346748
56.870 11.162953
56.875 11.298681
56.880 11.907256
56.885 11.863261
56.890 12.575367
56.895 13.014625
56.900 13.240177
56.905 12.980283
56.910 12.814097
56.915 12.814433
56.920 13.023058
56.925 12.771865
56.930 12.063663
56.935 12.25939
56.940 13.072777
56.945 13.23875
56.950 13.383397
56.955 13.392455
56.960 12.890921
56.965 13.099881
56.970 12.770783
56.975 12.523511
56.980 12.667204
56.985 12.96896
56.990 13.578834
56.995 13.997475
57.000 13.725926
57.005 13.120613
57.010 12.724327
57.015 12.698474
57.020 12.041389
57.025 11.615066
57.030 11.13973
57.035 11.355168
57.040 11.654413
57.045 11.707409
57.050 11.734982
57.055 11.657688
57.060 11.567145
57.065 11.730085
57.070 12.094561
57.075 12.498049
57.080 12.14157
57.085 11.378822
57.090 11.192739
57.095 11.384366
57.100 11.881761
57.105 12.035542
57.110 12.199661
57.115 12.760231
57.120 13.196362
57.125 13.195641
57.130 13.015294
57.135 12.606081
57.140 12.079268
57.145 11.986853
57.150 12.319818
57.155 12.406817
57.160 12.632016
57.165 12.558834
57.170 12.668373
57.175 12.498229
57.180 12.55489
57.185 12.292276
57.190 12.296925
57.195 12.285891
57.200 12.154999
57.205 11.958512
57.210 11.478564
57.215 11.249496
57.220 11.009583
57.225 11.35347
57.230 11.473148
57.235 11.85499
57.240 12.090553
57.245 12.452554
57.250 12.543435
57.255 12.774802
57.260 13.037506
57.265 12.712391
57.270 12.608746
57.275 12.233663
57.280 12.683379
57.285 12.619124
57.290 12.427206
57.295 12.163547
57.300 12.169321
57.305 12.228562
57.310 12.471173
57.315 12.634764
57.320 13.291217
57.325 13.659514
57.330 13.771198
57.335 13.882672
57.340 14.240941
57.345 14.743813
57.350 14.355509
57.355 13.898498
57.360 13.550454
57.365 13.753519
57.370 13.879096
57.375 13.406755
57.380 13.190619
57.385 13.583155
57.390 13.796128
57.395 13.947824
57.400 13.651848
57.405 13.418124
57.410 13.554259
57.415 13.284912
57.420 13.036571
57.425 13.040295
57.430 13.201835
57.435 13.547232
57.440 13.885172
57.445 13.851687
57.450 14.038549
57.455 13.384573
57.460 13.079164
57.465 12.595257
57.470 12.288748
57.475 11.982499
57.480 12.287372
57.485 12.410913
57.490 13.116708
57.495 13.169621
57.500 13.034902
57.505 13.288153
57.510 13.06209
57.515 13.056808
57.520 12.830654
57.525 12.714828
57.530 12.952836
57.535 13.084002
57.540 13.345627
57.545 13.538239
57.550 13.73826
57.555 13.663264
57.560 13.575561
57.565 13.908305
57.570 14.338593
57.575 14.015171
57.580 13.528006
57.585 13.110662
57.590 12.910717
57.595 12.494231
57.600 12.254065
57.605 11.845821
57.610 11.896043
57.615 12.403771
57.620 12.524434
57.625 12.815639
57.630 12.917131
57.635 13.075176
57.640 13.063448
57.645 13.231012
57.650 12.922926
57.655 13.082625
57.660 13.37918
57.665 13.588474
57.670 13.314927
57.675 13.529971
57.680 13.286438
57.685 13.380761
57.690 13.244987
57.695 13.009653
57.700 13.279001
57.705 12.888674
57.710 12.529211
57.715 12.726646
57.720 13.069714
57.725 13.166841
57.730 13.772784
57.735 13.806309
57.740 14.044926
57.745 14.451547
57.750 14.556869
57.755 14.617829
57.760 15.052299
57.765 14.762581
57.770 14.664657
57.775 14.853607
57.780 15.158484
57.785 14.88017
57.790 14.904477
57.795 13.920568
57.800 13.381757
57.805 13.301471
57.810 13.046008
57.815 12.717913
57.820 13.266348
57.825 13.269693
57.830 14.004027
57.835 14.787057
57.840 15.164733
57.845 15.000078
57.850 14.890889
57.855 14.297215
57.860 14.121675
57.865 14.034928
57.870 14.001029
57.875 13.89215
57.880 14.551761
57.885 14.957468
57.890 14.474857
57.895 14.493276
57.900 13.991335
57.905 13.72427
57.910 13.403708
57.915 12.913146
57.920 13.066138
57.925 13.677547
57.930 14.029529
57.935 14.368721
57.940 14.697795
57.945 15.147432
57.950 15.45402
57.955 15.099295
57.960 15.249899
57.965 15.531663
57.970 15.58532
57.975 15.736021
57.980 15.910718
57.985 15.61614
57.990 15.684295
57.995 15.777991
58.000 15.813929
58.005 15.779938
58.010 15.09601
58.015 14.844475
58.020 15.135689
58.025 15.499504
58.030 15.032225
58.035 14.464207
58.040 14.780622
58.045 15.009649
58.050 15.403036
58.055 15.458927
58.060 15.121351
58.065 14.82229
58.070 14.733064
58.075 14.560113
58.080 14.596587
58.085 14.600666
58.090 14.788233
58.095 15.294756
58.100 15.972931
58.105 16.173859
58.110 16.559269
58.115 16.423498
58.120 15.969915
58.125 15.758601
58.130 15.491387
58.135 16.08283
58.140 15.661419
58.145 15.639228
58.150 15.739795
58.155 15.415453
58.160 15.185685
58.165 15.127837
58.170 14.63926
58.175 14.561525
58.180 13.578822
58.185 13.649722
58.190 13.907548
58.195 13.729151
58.200 13.808609
58.205 14.325315
58.210 15.392559
58.215 15.550906
58.220 15.638297
58.225 16.126726
58.230 16.922007
58.235 16.362288
58.240 16.076706
58.245 15.924204
58.250 16.094902
58.255 15.469624
58.260 14.980628
58.265 14.408628
58.270 14.843695
58.275 15.008226
58.280 15.563704
58.285 16.526667
58.290 17.571627
58.295 18.219744
58.300 18.219843
58.305 18.387815
58.310 18.461058
58.315 18.014254
58.320 17.778543
58.325 17.691082
58.330 17.916834
58.335 18.514109
58.340 18.471062
58.345 18.048756
58.350 17.757515
58.355 18.12166
58.360 18.185003
58.365 18.317327
58.370 18.27092
58.375 18.337986
58.380 18.760033
58.385 18.978678
58.390 18.643019
58.395 19.107874
58.400 19.352003
58.405 19.791687
58.410 19.801912
58.415 20.250921
58.420 20.915522
58.425 20.931427
58.430 20.815947
58.435 21.172562
58.440 21.480421
58.445 21.900131
58.450 22.188938
58.455 23.131517
58.460 23.67882
58.465 24.028622
58.470 23.389204
58.475 23.682842
58.480 24.385361
58.485 24.535967
58.490 24.517633
58.495 25.161936
58.500 25.728567
58.505 26.754847
58.510 27.329945
58.515 27.582132
58.520 28.140448
58.525 28.496666
58.530 28.987843
58.535 29.239567
58.540 29.880617
58.545 30.107706
58.550 30.451586
58.555 30.586317
58.560 31.544804
58.565 32.244137
58.570 33.080822
58.575 33.304901
58.580 33.166847
58.585 33.105804
58.590 33.828857
58.595 34.3573
58.600 33.598087
58.605 32.835407
58.610 32.649269
58.615 32.85191
58.620 32.312763
58.625 32.263096
58.630 31.936882
58.635 32.154091
58.640 32.916618
58.645 33.275566
58.650 34.1521
58.655 35.263195
58.660 35.236988
58.665 35.388607
58.670 36.464226
58.675 36.669968
58.680 36.899696
58.685 36.087074
58.690 35.334122
58.695 36.008667
58.700 36.461643
58.705 36.384602
58.710 35.51289
58.715 35.288258
58.720 35.370209
58.725 35.439922
58.730 33.895031
58.735 32.681267
58.740 31.789278
58.745 31.898787
58.750 31.282015
58.755 31.419275
58.760 30.793146
58.765 30.42943
58.770 29.719776
58.775 29.476963
58.780 29.238625
58.785 28.828728
58.790 28.108915
58.795 28.530716
58.800 29.379873
58.805 29.980467
58.810 29.81036
58.815 29.237452
58.820 29.085672
58.825 28.866585
58.830 27.955841
58.835 27.013239
58.840 26.177408
58.845 25.722265
58.850 25.496986
58.855 25.032204
58.860 25.143778
58.865 25.216925
58.870 24.530243
58.875 23.731506
58.880 23.327013
58.885 23.286602
58.890 23.389147
58.895 22.760984
58.900 22.575788
58.905 22.214117
58.910 22.187548
58.915 22.397339
58.920 22.06708
58.925 21.789965
58.930 21.650599
58.935 21.432707
58.940 21.269196
58.945 21.002308
58.950 19.994799
58.955 19.436302
58.960 19.007318
58.965 19.659452
58.970 19.827065
58.975 19.68816
58.980 19.24819
58.985 18.95916
58.990 18.76652
58.995 18.675447
59.000 17.582361
59.005 16.773647
59.010 16.447788
59.015 16.643831
59.020 16.96121
59.025 17.096331
59.030 16.433573
59.035 16.296255
59.040 16.956253
59.045 17.215849
59.050 17.604462
59.055 17.781052
59.060 18.130037
59.065 18.462622
59.070 18.625298
59.075 18.822191
59.080 18.853098
59.085 18.636736
59.090 18.4025
59.095 17.721142
59.100 17.540697
59.105 17.810478
59.110 16.985975
59.115 16.238745
59.120 15.865963
59.125 15.12397
59.130 15.237823
59.135 15.187738
59.140 14.569677
59.145 15.156268
59.150 15.90685
59.155 15.914331
59.160 15.92837
59.165 15.443645
59.170 15.46414
59.175 15.739579
59.180 15.335308
59.185 15.197077
59.190 15.290891
59.195 15.699526
59.200 16.030546
59.205 15.979876
59.210 15.934259
59.215 15.538186
59.220 14.773456
59.225 14.210527
59.230 13.872504
59.235 13.957322
59.240 14.068884
59.245 14.141936
59.250 14.215635
59.255 14.70418
59.260 15.091589
59.265 14.980824
59.270 14.656827
59.275 14.400726
59.280 14.088898
59.285 13.979069
59.290 14.177728
59.295 14.609747
59.300 14.754709
59.305 14.925168
59.310 14.983567
59.315 15.411172
59.320 15.570774
59.325 15.069511
59.330 14.879323
59.335 15.181952
59.340 14.990595
59.345 14.903215
59.350 14.418495
59.355 14.646322
59.360 14.723882
59.365 15.100473
59.370 14.974342
59.375 15.012271
59.380 15.218785
59.385 15.449739
59.390 15.467853
59.395 15.885726
59.400 16.132538
59.405 15.648391
59.410 15.581575
59.415 15.986932
59.420 15.441219
59.425 15.032355
59.430 14.709731
59.435 14.492671
59.440 15.006593
59.445 14.828381
59.450 14.079133
59.455 14.096327
59.460 14.121894
59.465 13.859451
59.470 13.852622
59.475 14.147264
59.480 14.754443
59.485 15.309136
59.490 15.668633
59.495 16.010851
59.500 15.980848
59.505 15.763232
59.510 15.574947
59.515 15.616927
59.520 15.630631
59.525 15.206162
59.530 14.404315
59.535 14.396204
59.540 14.476582
59.545 14.477242
59.550 13.864952
59.555 14.001805
59.560 14.317616
59.565 14.136106
59.570 14.098891
59.575 14.066103
59.580 13.760439
59.585 13.934114
59.590 13.711582
59.595 14.272478
59.600 14.994046
59.605 15.197099
59.610 15.561426
59.615 16.104023
59.620 16.418924
59.625 16.70701
59.630 16.702391
59.635 16.304474
59.640 16.095091
59.645 15.988298
59.650 15.69632
59.655 15.009628
59.660 14.69271
59.665 14.208773
59.670 14.529838
59.675 14.68129
59.680 14.828256
59.685 14.772182
59.690 14.765421
59.695 14.750163
59.700 15.380626
59.705 15.11652
59.710 14.539789
59.715 13.939683
59.720 14.07051
59.725 14.277428
59.730 14.331828
59.735 14.331705
59.740 14.679162
59.745 15.279117
59.750 15.783651
59.755 15.579533
59.760 15.766246
59.765 15.72305
59.770 15.178376
59.775 14.677907
59.780 13.919194
59.785 14.128416
59.790 14.548018
59.795 14.238233
59.800 14.030439
59.805 13.703418
59.810 14.069488
59.815 14.257302
59.820 13.478525
59.825 13.325741
59.830 13.288598
59.835 13.306741
59.840 13.913247
59.845 13.811745
59.850 14.066428
59.855 14.268666
59.860 14.367014
59.865 14.662145
59.870 14.852907
59.875 15.128029
59.880 15.261427
59.885 14.707912
59.890 14.566625
59.895 14.459969
59.900 14.822888
59.905 14.888621
59.910 14.595546
59.915 14.821853
59.920 15.609933
59.925 16.225594
59.930 16.04384
59.935 15.664046
59.940 15.374451
59.945 14.778789
59.950 14.39033
59.955 14.032222
59.960 13.846122
59.965 13.984837
59.970 14.009386
59.975 14.283387
59.980 15.266759
59.985 15.738399
59.990 15.436137
59.995 15.11862
60.000 14.861924
60.005 14.907803
60.010 14.561969
60.015 14.255294
60.020 14.08221
60.025 14.493533
60.030 14.96111
60.035 15.248171
60.040 15.435813
60.045 15.493365
60.050 14.873175
60.055 14.78167
60.060 14.409692
60.065 13.782804
60.070 13.619365
60.075 13.475315
60.080 13.554225
60.085 13.994802
60.090 13.633289
60.095 14.268554
60.100 14.579647
60.105 14.207689
60.110 13.867124
60.115 13.501707
60.120 13.4696
60.125 13.462597
60.130 13.032373
60.135 13.244217
60.140 13.494204
60.145 13.695882
60.150 13.894599
60.155 14.099337
60.160 14.553848
60.165 14.401649
60.170 14.269408
60.175 14.77384
60.180 14.859158
60.185 15.066195
60.190 15.200659
60.195 14.95288
60.200 14.84694
60.205 14.874236
60.210 14.35889
60.215 14.570963
60.220 14.576039
60.225 14.415834
60.230 14.900003
60.235 15.414814
60.240 15.665058
60.245 15.896432
60.250 16.155306
60.255 15.558175
60.260 15.495484
60.265 15.04695
60.270 15.229884
60.275 14.87809
60.280 14.979004
60.285 14.738324
60.290 15.197532
60.295 15.023053
60.300 14.628428
60.305 14.458014
60.310 14.676635
60.315 14.550832
60.320 14.550464
60.325 14.164738
60.330 14.490285
60.335 14.857888
60.340 14.407637
60.345 14.074142
60.350 14.08526
60.355 13.493829
60.360 13.747465
60.365 13.910084
60.370 13.745488
60.375 13.77519
60.380 13.361702
60.385 13.105546
60.390 13.744795
60.395 14.149252
60.400 14.142181
60.405 14.163685
60.410 14.407207
60.415 15.011756
60.420 15.255478
60.425 15.492799
60.430 15.57658
60.435 15.230574
60.440 15.191061
60.445 14.976426
60.450 14.58475
60.455 14.216238
60.460 14.057521
60.465 14.360856
60.470 14.937762
60.475 15.601424
60.480 16.028648
60.485 16.55154
60.490 16.697348
60.495 16.659452
60.500 15.685862
60.505 15.256554
60.510 14.843794
60.515 14.823441
60.520 14.936841
60.525 15.145278
60.530 15.143668
60.535 15.558831
60.540 15.494202
60.545 15.210318
60.550 15.204979
60.555 14.82844
60.560 14.492745
60.565 14.545466
60.570 14.200146
60.575 14.337988
60.580 14.473808
60.585 14.128328
60.590 14.210443
60.595 14.135235
60.600 14.502359
60.605 14.960089
60.610 14.762678
60.615 14.908364
60.620 14.83707
60.625 14.852077
60.630 15.036775
60.635 15.094026
60.640 15.194972
60.645 15.586343
60.650 15.44927
60.655 15.453804
60.660 15.452283
60.665 15.063573
60.670 14.866423
60.675 14.612247
60.680 14.311037
60.685 15.188912
60.690 15.645425
60.695 15.78072
60.700 16.310783
60.705 16.110256
60.710 16.253487
60.715 16.265211
60.720 15.745156
60.725 15.460238
60.730 15.429836
60.735 15.437362
60.740 15.777409
60.745 15.569
60.750 15.993547
60.755 16.292374
60.760 16.291914
60.765 15.693434
60.770 15.432472
60.775 14.985204
60.780 14.832792
60.785 14.430553
60.790 14.522291
60.795 14.684356
60.800 14.757365
60.805 14.652384
60.810 15.047676
60.815 15.550934
60.820 15.802242
60.825 15.534004
60.830 15.433129
60.835 15.499787
60.840 15.255172
60.845 15.194009
60.850 15.033627
60.855 14.718346
60.860 14.565365
60.865 14.669056
60.870 14.70132
60.875 15.095073
60.880 15.282811
60.885 15.127827
60.890 14.376715
60.895 14.027672
60.900 14.470614
60.905 14.534686
60.910 14.354323
60.915 13.93391
60.920 13.761683
60.925 13.961832
60.930 13.945584
60.935 13.510123
60.940 13.473547
60.945 13.665454
60.950 14.537193
60.955 14.808658
60.960 14.788713
60.965 14.690639
60.970 14.968771
60.975 14.920596
60.980 14.722807
60.985 14.531846
60.990 15.080975
60.995 15.185113
61.000 15.005661
61.005 15.228085
61.010 15.641403
61.015 15.561939
61.020 15.647034
61.025 15.454324
61.030 15.910782
61.035 16.422533
61.040 15.985073
61.045 15.916433
61.050 15.849396
61.055 15.249299
61.060 14.739261
61.065 14.393014
61.070 14.30017
61.075 14.358557
61.080 14.164883
61.085 14.243104
61.090 14.483182
61.095 14.862704
61.100 15.009059
61.105 15.477951
61.110 15.786888
61.115 16.049114
61.120 16.175873
61.125 15.790146
61.130 15.788045
61.135 15.868978
61.140 15.481771
61.145 15.368773
61.150 15.358938
61.155 15.786792
61.160 16.48477
61.165 16.607782
61.170 16.408176
61.175 16.143682
61.180 16.19348
61.185 16.439512
61.190 15.645805
61.195 15.104343
61.200 15.540068
61.205 15.549764
61.210 15.508488
61.215 15.853966
61.220 15.521497
61.225 15.750942
61.230 15.993431
61.235 15.35289
61.240 16.021328
61.245 16.524609
61.250 16.09951
61.255 16.067122
61.260 15.957688
61.265 15.966262
61.270 15.903623
61.275 15.510534
61.280 15.368579
61.285 15.503671
61.290 15.721792
61.295 15.839253
61.300 15.914975
61.305 16.219418
61.310 16.229954
61.315 16.297512
61.320 16.358776
61.325 16.168089
61.330 15.899923
61.335 15.858968
61.340 16.077909
61.345 15.900037
61.350 15.70436
61.355 15.432588
61.360 15.4167
61.365 15.720942
61.370 15.481465
61.375 14.93772
61.380 14.985241
61.385 15.343002
61.390 15.679645
61.395 15.502163
61.400 15.272708
61.405 15.010414
61.410 15.175178
61.415 14.664721
61.420 14.054391
61.425 13.788983
61.430 13.649905
61.435 13.827805
61.440 14.108259
61.445 14.497479
61.450 15.379001
61.455 16.261497
61.460 16.283678
61.465 16.962383
61.470 17.06428
61.475 17.11064
61.480 16.996443
61.485 16.429976
61.490 15.828918
61.495 15.962354
61.500 15.148782
61.505 14.686201
61.510 14.926596
61.515 14.986602
61.520 14.492473
61.525 14.479902
61.530 14.63272
61.535 14.782131
61.540 15.274208
61.545 15.535291
61.550 15.830018
61.555 16.458773
61.560 16.371302
61.565 15.935734
61.570 16.228132
61.575 15.985718
61.580 15.44202
61.585 15.042273
61.590 14.709332
61.595 14.616405
61.600 14.85041
61.605 15.298667
61.610 15.391067
61.615 14.947611
61.620 14.846906
61.625 14.742985
61.630 14.57381
61.635 14.03857
61.640 13.762265
61.645 13.952008
61.650 14.320004
61.655 14.799988
61.660 14.843237
61.665 15.206084
61.670 15.738146
61.675 15.401687
61.680 14.619989
61.685 14.458213
61.690 14.369296
61.695 14.754992
61.700 15.013619
61.705 14.821104
61.710 15.043281
61.715 15.839931
61.720 16.047056
61.725 15.578243
61.730 15.781216
61.735 15.645619
61.740 15.689907
61.745 15.708087
61.750 15.74367
61.755 15.559716
61.760 15.713545
61.765 15.005753
61.770 15.26577
61.775 15.51799
61.780 15.722491
61.785 15.775623
61.790 16.212543
61.795 16.39291
61.800 16.635296
61.805 16.870266
61.810 17.087898
61.815 16.674124
61.820 15.993848
61.825 16.695099
61.830 17.096682
61.835 16.972654
61.840 16.269611
61.845 15.753171
61.850 15.52933
61.855 15.772343
61.860 15.274714
61.865 15.219472
61.870 15.564332
61.875 16.3169
61.880 16.965511
61.885 17.762192
61.890 17.975334
61.895 18.279776
61.900 18.446594
61.905 18.618191
61.910 18.054438
61.915 17.395887
61.920 17.392241
61.925 17.569126
61.930 16.95513
61.935 16.59548
61.940 16.358688
61.945 16.345915
61.950 16.5254
61.955 16.257927
61.960 15.952341
61.965 15.650711
61.970 15.747214
61.975 15.774126
61.980 15.702098
61.985 15.584608
61.990 15.614538
61.995 15.632416
62.000 15.810945
62.005 15.294387
62.010 14.997776
62.015 15.07794
62.020 15.277195
62.025 15.193584
62.030 15.571215
62.035 15.682448
62.040 15.76488
62.045 15.820019
62.050 15.788993
62.055 15.302275
62.060 15.06618
62.065 15.028799
62.070 15.066656
62.075 15.483437
62.080 15.848948
62.085 15.945354
62.090 16.205614
62.095 16.153383
62.100 15.923346
62.105 16.378078
62.110 16.1604
62.115 16.358456
62.120 16.529133
62.125 16.821068
62.130 16.98423
62.135 16.975595
62.140 16.409964
62.145 16.232723
62.150 15.620296
62.155 15.422287
62.160 15.344494
62.165 15.436734
62.170 15.415411
62.175 15.946502
62.180 16.383579
62.185 16.301313
62.190 16.222469
62.195 15.941464
62.200 15.703612
62.205 15.558867
62.210 15.743136
62.215 15.627955
62.220 16.25824
62.225 16.011534
62.230 15.634816
62.235 15.537519
62.240 15.639798
62.245 15.540421
62.250 15.027357
62.255 14.92419
62.260 15.099495
62.265 15.500382
62.270 15.065465
62.275 15.122163
62.280 15.309443
62.285 15.748101
62.290 15.420363
62.295 15.814408
62.300 15.748364
62.305 16.267229
62.310 16.432346
62.315 16.008263
62.320 15.763445
62.325 16.647484
62.330 16.659149
62.335 16.904711
62.340 16.653229
62.345 16.330269
62.350 16.464159
62.355 16.300787
62.360 15.594086
62.365 15.602242
62.370 15.644544
62.375 15.483187
62.380 15.200719
62.385 14.863105
62.390 14.648798
62.395 14.401268
62.400 14.527576
62.405 14.300366
62.410 14.947856
62.415 15.048419
62.420 15.023412
62.425 15.311243
62.430 14.866879
62.435 14.489413
62.440 14.734531
62.445 14.754832
62.450 15.325452
62.455 15.786135
62.460 15.907293
62.465 16.463343
62.470 16.638298
62.475 17.137514
62.480 17.259672
62.485 16.847832
62.490 16.524958
62.495 16.84351
62.500 17.288605
62.505 17.12359
62.510 16.826616
62.515 16.296143
62.520 16.311306
62.525 16.634903
62.530 16.279713
62.535 15.878763
62.540 15.520805
62.545 15.378186
62.550 15.080797
62.555 15.222878
62.560 15.238533
62.565 14.97186
62.570 14.683105
62.575 15.137761
62.580 15.564104
62.585 15.518191
62.590 15.385434
62.595 15.602284
62.600 16.237885
62.605 16.607821
62.610 16.507605
62.615 16.395037
62.620 16.34708
62.625 16.247034
62.630 16.03561
62.635 15.940127
62.640 16.43038
62.645 16.615057
62.650 16.626307
62.655 17.233252
62.660 17.11702
62.665 16.951303
62.670 17.044823
62.675 16.894886
62.680 17.009525
62.685 16.789093
62.690 17.302315
62.695 17.264633
62.700 17.23447
62.705 17.017544
62.710 16.651428
62.715 16.421265
62.720 16.4541
62.725 15.865783
62.730 16.397528
62.735 16.371756
62.740 16.521311
62.745 16.676729
62.750 17.020519
62.755 17.556921
62.760 17.774036
62.765 17.488356
62.770 17.11743
62.775 17.147909
62.780 17.103434
62.785 16.642832
62.790 16.227224
62.795 16.726135
62.800 17.072758
62.805 17.516851
62.810 17.057634
62.815 16.70079
62.820 16.752943
62.825 16.599102
62.830 16.066193
62.835 16.031734
62.840 16.167311
62.845 16.181293
62.850 16.709888
62.855 16.785353
62.860 16.833784
62.865 16.798674
62.870 16.531546
62.875 16.412607
62.880 16.787115
62.885 16.514462
62.890 16.394661
62.895 16.672779
62.900 16.852842
62.905 16.45734
62.910 16.690617
62.915 15.952415
62.920 16.349474
62.925 16.72954
62.930 16.013657
62.935 15.458058
62.940 15.806101
62.945 15.796446
62.950 16.172188
62.955 15.751064
62.960 15.810047
62.965 16.244991
62.970 16.37302
62.975 16.633575
62.980 16.865665
62.985 16.927036
62.990 17.260538
62.995 17.509289
63.000 17.46277
63.005 16.961533
63.010 16.582985
63.015 16.317896
63.020 16.358589
63.025 15.960763
63.030 15.694818
63.035 15.905265
63.040 16.713457
63.045 16.707634
63.050 16.495659
63.055 16.232639
63.060 16.251566
63.065 15.829459
63.070 15.937066
63.075 15.630756
63.080 15.770275
63.085 16.119381
63.090 16.576216
63.095 16.707611
63.100 16.732277
63.105 16.467766
63.110 16.751612
63.115 17.101046
63.120 16.937426
63.125 17.013403
63.130 17.066816
63.135 17.258062
63.140 17.194479
63.145 17.042154
63.150 16.806427
63.155 16.679756
63.160 16.24828
63.165 16.345032
63.170 16.226089
63.175 16.601137
63.180 17.320477
63.185 16.69936
63.190 16.580942
63.195 16.222424
63.200 16.284061
63.205 16.985723
63.210 17.436493
63.215 16.99811
63.220 17.325134
63.225 17.625385
63.230 18.358644
63.235 17.777134
63.240 16.679176
63.245 15.84356
63.250 15.973072
63.255 16.356892
63.260 15.783309
63.265 14.966743
63.270 15.126138
63.275 15.692853
63.280 16.10564
63.285 16.075537
63.290 16.046556
63.295 16.105177
63.300 16.551966
63.305 16.582741
63.310 16.978609
63.315 17.206507
63.320 17.190744
63.325 17.115618
63.330 17.634703
63.335 17.760954
63.340 17.674807
63.345 17.198406
63.350 16.937735
63.355 16.607616
63.360 17.154314
63.365 17.261457
63.370 17.264004
63.375 17.345774
63.380 17.292986
63.385 16.734283
63.390 16.629086
63.395 16.117493
63.400 15.855718
63.405 16.135885
63.410 16.473808
63.415 16.438799
63.420 16.439108
63.425 16.718306
63.430 17.062174
63.435 17.573025
63.440 17.634449
63.445 17.799665
63.450 18.276079
63.455 19.356266
63.460 19.780689
63.465 19.628401
63.470 19.338657
63.475 19.019289
63.480 18.821646
63.485 18.707241
63.490 17.920202
63.495 17.138931
63.500 16.672686
63.505 16.73995
63.510 16.936234
63.515 16.755323
63.520 16.606651
63.525 17.17379
63.530 17.714045
63.535 18.031799
63.540 18.374344
63.545 18.893276
63.550 18.932404
63.555 18.594093
63.560 18.256783
63.565 17.91975
63.570 17.391754
63.575 16.560482
63.580 15.780784
63.585 15.68561
63.590 16.193157
63.595 16.143026
63.600 16.820915
63.605 17.360556
63.610 17.500059
63.615 17.548464
63.620 17.68103
63.625 17.920717
63.630 18.052479
63.635 17.451162
63.640 17.103262
63.645 17.372744
63.650 17.614239
63.655 17.562912
63.660 17.215141
63.665 17.058056
63.670 17.309694
63.675 17.626881
63.680 17.441847
63.685 17.048897
63.690 17.090532
63.695 17.311073
63.700 17.142521
63.705 16.878853
63.710 16.666529
63.715 16.411301
63.720 16.249617
63.725 16.014135
63.730 15.773126
63.735 15.641973
63.740 15.662927
63.745 15.772448
63.750 15.737389
63.755 16.260876
63.760 16.323452
63.765 16.765238
63.770 17.427525
63.775 17.510448
63.780 18.252008
63.785 18.964895
63.790 18.872742
63.795 19.300518
63.800 19.593285
63.805 19.712559
63.810 19.432215
63.815 19.009674
63.820 18.989176
63.825 18.797434
63.830 18.359955
63.835 17.922754
63.840 17.888002
63.845 18.750256
63.850 18.846851
63.855 18.922451
63.860 19.109657
63.865 19.228716
63.870 19.656965
63.875 20.126326
63.880 19.489277
63.885 18.990732
63.890 18.909126
63.895 18.72883
63.900 18.531609
63.905 18.116793
63.910 17.488787
63.915 17.782635
63.920 18.358286
63.925 18.298222
63.930 18.360981
63.935 18.405594
63.940 18.44245
63.945 18.60606
63.950 18.538628
63.955 18.440651
63.960 18.216728
63.965 18.539152
63.970 19.018991
63.975 19.323494
63.980 19.621984
63.985 20.147388
63.990 20.148739
63.995 20.184441
64.000 20.037357
64.005 19.574356
64.010 19.280628
64.015 19.469719
64.020 19.516239
64.025 19.731417
64.030 19.923967
64.035 20.048931
64.040 20.497423
64.045 21.402044
64.050 21.16032
64.055 20.504591
64.060 20.814316
64.065 21.219931
64.070 21.959261
64.075 21.796
64.080 21.79109
64.085 22.274063
64.090 23.127275
64.095 23.259417
64.100 23.41855
64.105 22.901932
64.110 23.053646
64.115 23.96385
64.120 24.835627
64.125 24.562542
64.130 25.121836
64.135 25.603651
64.140 26.042833
64.145 26.162878
64.150 25.964527
64.155 25.740053
64.160 26.30377
64.165 26.313087
64.170 26.610359
64.175 26.827038
64.180 27.59259
64.185 27.555735
64.190 27.861044
64.195 27.901323
64.200 27.801615
64.205 27.796387
64.210 28.696213
64.215 29.276667
64.220 30.500404
64.225 32.704235
64.230 34.56282
64.235 35.291313
64.240 36.191174
64.245 37.226883
64.250 37.739658
64.255 38.107536
64.260 37.492695
64.265 37.151291
64.270 37.801998
64.275 38.672585
64.280 39.226822
64.285 40.218975
64.290 41.762459
64.295 43.620548
64.300 44.010273
64.305 44.517448
64.310 44.744152
64.315 44.801453
64.320 44.551132
64.325 44.903931
64.330 44.119411
64.335 45.117718
64.340 45.939407
64.345 46.544601
64.350 46.888939
64.355 47.586903
64.360 47.985924
64.365 48.542686
64.370 49.002384
64.375 49.026237
64.380 48.93972
64.385 48.517357
64.390 48.148983
64.395 48.171333
64.400 48.235214
64.405 48.53471
64.410 49.852562
64.415 50.460403
64.420 51.235332
64.425 51.805122
64.430 51.975536
64.435 53.056049
64.440 52.85524
64.445 52.228031
64.450 51.955929
64.455 51.880821
64.460 51.499981
64.465 51.111431
64.470 49.948132
64.475 48.970154
64.480 48.730488
64.485 47.955547
64.490 47.115952
64.495 47.215862
64.500 47.221432
64.505 46.983131
64.510 46.591209
64.515 45.831829
64.520 45.983433
64.525 45.661968
64.530 44.828033
64.535 43.876446
64.540 44.218933
64.545 44.136242
64.550 43.605484
64.555 43.098412
64.560 42.685158
64.565 41.989403
64.570 41.662937
64.575 41.426655
64.580 41.066578
64.585 40.854992
64.590 40.54472
64.595 39.869427
64.600 39.751648
64.605 39.047688
64.610 37.989147
64.615 37.037697
64.620 36.701424
64.625 35.925171
64.630 35.371037
64.635 34.307636
64.640 34.004333
64.645 33.195808
64.650 33.219807
64.655 32.484848
64.660 31.788343
64.665 31.495268
64.670 31.164927
64.675 29.806808
64.680 28.964172
64.685 27.649746
64.690 27.262066
64.695 26.974035
64.700 26.54034
64.705 26.235573
64.710 26.046865
64.715 26.238867
64.720 26.211504
64.725 25.969452
64.730 25.944641
64.735 25.833015
64.740 25.503834
64.745 25.454971
64.750 25.266424
64.755 24.904129
64.760 24.37718
64.765 24.375917
64.770 24.233955
64.775 23.997396
64.780 23.560211
64.785 24.104235
64.790 24.515385
64.795 24.633522
64.800 24.217554
64.805 23.750551
64.810 23.75935
64.815 23.407726
64.820 22.535952
64.825 22.107506
64.830 21.618702
64.835 21.987146
64.840 22.779989
64.845 22.269413
64.850 22.207373
64.855 22.163733
64.860 21.871468
64.865 21.954767
64.870 21.470167
64.875 21.354038
64.880 21.21875
64.885 21.178699
64.890 21.101648
64.895 21.228075
64.900 21.749704
64.905 22.188694
64.910 22.175701
64.915 22.457306
64.920 22.383221
64.925 22.808634
64.930 24.066479
64.935 24.561403
64.940 24.734827
64.945 24.813341
64.950 25.258564
64.955 26.151178
64.960 26.225103
64.965 25.4051
64.970 24.760828
64.975 24.663279
64.980 24.628382
64.985 24.793318
64.990 24.579195
64.995 24.736872
65.000 25.031178
65.005 25.703751
65.010 25.932165
65.015 26.69183
65.020 27.806396
65.025 28.218946
65.030 28.227062
65.035 29.041805
65.040 29.776117
65.045 30.633881
65.050 30.793104
65.055 30.140369
65.060 30.411583
65.065 31.191521
65.070 30.664209
65.075 30.430477
65.080 30.567108
65.085 30.450836
65.090 30.474356
65.095 30.655573
65.100 30.760252
65.105 32.227688
65.110 32.363449
65.115 32.456379
65.120 32.6535
65.125 33.388451
65.130 33.774979
65.135 34.433617
65.140 33.797592
65.145 33.544777
65.150 34.376369
65.155 34.51757
65.160 35.043591
65.165 35.325211
65.170 34.977543
65.175 34.755665
65.180 35.266735
65.185 34.997234
65.190 35.5065
65.195 35.866879
65.200 35.872761
65.205 36.207199
65.210 36.522392
65.215 36.182976
65.220 36.035782
65.225 36.877281
65.230 36.88905
65.235 36.776367
65.240 36.32185
65.245 36.650723
65.250 37.323601
65.255 37.827812
65.260 37.059544
65.265 37.231159
65.270 37.649647
65.275 38.871731
65.280 39.720417
65.285 39.61607
65.290 39.700203
65.295 40.190113
65.300 40.596806
65.305 39.943615
65.310 39.640137
65.315 38.879955
65.320 38.713345
65.325 37.907574
65.330 37.594154
65.335 37.473042
65.340 37.495842
65.345 37.906803
65.350 38.475254
65.355 37.860344
65.360 38.583282
65.365 38.583641
65.370 37.988728
65.375 38.330303
65.380 38.002636
65.385 37.758377
65.390 37.591679
65.395 37.083267
65.400 36.784588
65.405 37.31744
65.410 37.478867
65.415 37.093822
65.420 36.870163
65.425 38.099541
65.430 38.115971
65.435 37.538857
65.440 38.18985
65.445 38.807949
65.450 39.139229
65.455 39.650978
65.460 39.759747
65.465 40.459892
65.470 41.184685
65.475 40.978115
65.480 40.318947
65.485 40.340092
65.490 40.408108
65.495 40.274044
65.500 39.933586
65.505 39.738476
65.510 39.130039
65.515 38.267014
65.520 37.727924
65.525 37.495609
65.530 37.814526
65.535 38.144218
65.540 37.957188
65.545 37.918388
65.550 38.046638
65.555 37.788929
65.560 37.477726
65.565 36.881351
65.570 36.835388
65.575 37.036839
65.580 37.597717
65.585 37.99065
65.590 37.94849
65.595 37.137299
65.600 36.077168
65.605 35.562405
65.610 35.530937
65.615 35.339077
65.620 35.396248
65.625 35.92234
65.630 36.741699
65.635 37.230843
65.640 37.282417
65.645 36.685993
65.650 35.608265
65.655 35.211742
65.660 34.099678
65.665 33.49527
65.670 33.735958
65.675 33.636513
65.680 33.79575
65.685 33.62624
65.690 33.243469
65.695 33.528069
65.700 34.070339
65.705 33.761513
65.710 33.607895
65.715 32.573753
65.720 32.600388
65.725 32.673481
65.730 32.55851
65.735 31.708408
65.740 31.504513
65.745 31.847919
65.750 33.257324
65.755 32.721748
65.760 32.459751
65.765 31.991745
65.770 32.261471
65.775 32.261044
65.780 31.794676
65.785 30.377504
65.790 29.894596
65.795 29.69146
65.800 29.284056
65.805 27.937449
65.810 27.298101
65.815 26.96196
65.820 26.899517
65.825 26.885983
65.830 26.613272
65.835 27.043953
65.840 27.394447
65.845 27.384872
65.850 26.827389
65.855 25.727915
65.860 25.043535
65.865 24.192226
65.870 23.481537
65.875 23.34569
65.880 22.925638
65.885 22.893785
65.890 23.23875
65.895 23.141417
65.900 23.510376
65.905 23.485952
65.910 23.568899
65.915 23.737005
65.920 23.570351
65.925 23.676588
65.930 24.02664
65.935 24.041914
65.940 24.486832
65.945 24.529207
65.950 24.291489
65.955 24.292631
65.960 24.387627
65.965 24.318762
65.970 24.462105
65.975 24.030396
65.980 23.591125
65.985 23.432467
65.990 23.352133
65.995 22.99486
66.000 23.092741
66.005 22.211037
66.010 21.929253
66.015 21.976604
66.020 22.120241
66.025 22.004883
66.030 22.495411
66.035 22.111124
66.040 21.865482
66.045 21.506372
66.050 21.073078
66.055 20.622597
66.060 20.547157
66.065 20.226694
66.070 20.298943
66.075 20.631428
66.080 20.602375
66.085 20.847839
66.090 20.601595
66.095 20.455477
66.100 19.917988
66.105 19.64443
66.110 19.203264
66.115 19.19652
66.120 19.075436
66.125 19.375988
66.130 19.266039
66.135 19.112175
66.140 19.008348
66.145 18.751219
66.150 18.719242
66.155 18.925749
66.160 18.53001
66.165 18.576078
66.170 18.949345
66.175 19.131174
66.180 20.160282
66.185 20.731722
66.190 20.832804
66.195 20.948868
66.200 20.988062
66.205 20.594282
66.210 20.557713
66.215 19.888584
66.220 19.541391
66.225 19.096975
66.230 19.098345
66.235 18.622227
66.240 18.692829
66.245 18.745502
66.250 19.021738
66.255 18.96109
66.260 19.152332
66.265 19.149271
66.270 19.07914
66.275 19.031397
66.280 18.925407
66.285 18.700802
66.290 18.341099
66.295 18.145943
66.300 18.152111
66.305 18.016932
66.310 18.643887
66.315 18.279028
66.320 17.736883
66.325 17.738426
66.330 17.666988
66.335 17.627445
66.340 17.72065
66.345 17.422115
66.350 18.438236
66.355 18.595024
66.360 18.627626
66.365 18.714218
66.370 19.036867
66.375 19.156029
66.380 19.382841
66.385 18.996761
66.390 19.031794
66.395 19.089092
66.400 19.425718
66.405 19.715624
66.410 20.442408
66.415 19.784992
66.420 18.966143
66.425 19.061804
66.430 19.553953
66.435 19.708719
66.440 19.34256
66.445 18.236273
66.450 18.052437
66.455 18.523417
66.460 18.070662
66.465 17.556204
66.470 17.495575
66.475 17.112366
66.480 17.526745
66.485 18.17256
66.490 18.441532
66.495 18.75087
66.500 18.239773
66.505 17.948618
66.510 18.088018
66.515 18.204954
66.520 17.982876
66.525 18.231953
66.530 18.245316
66.535 18.578068
66.540 18.814154
66.545 18.77833
66.550 18.592405
66.555 18.422146
66.560 17.877657
66.565 18.360403
66.570 18.347355
66.575 18.200296
66.580 18.526957
66.585 17.984373
66.590 18.157709
66.595 18.221348
66.600 17.637472
66.605 17.115927
66.610 16.789938
66.615 16.302933
66.620 17.01119
66.625 17.03511
66.630 17.092388
66.635 17.323076
66.640 17.649576
66.645 18.015963
66.650 18.19854
66.655 18.183701
66.660 18.008856
66.665 17.784081
66.670 17.424366
66.675 17.169573
66.680 16.88282
66.685 16.252897
66.690 16.400206
66.695 16.613928
66.700 17.160099
66.705 17.925913
66.710 18.128794
66.715 18.429918
66.720 18.85705
66.725 18.58477
66.730 18.761656
66.735 18.924892
66.740 18.682571
66.745 18.572884
66.750 18.656519
66.755 18.635269
66.760 18.86463
66.765 18.520176
66.770 18.101746
66.775 18.220516
66.780 18.064348
66.785 18.124781
66.790 18.19483
66.795 18.009201
66.800 18.165232
66.805 18.334635
66.810 17.765146
66.815 17.770557
66.820 17.736948
66.825 18.476778
66.830 18.628386
66.835 18.675041
66.840 18.197306
66.845 18.943546
66.850 19.3367
66.855 19.413389
66.860 18.724066
66.865 18.877846
66.870 19.003933
66.875 18.813862
66.880 18.370205
66.885 17.825314
66.890 17.57341
66.895 16.987616
66.900 16.176611
66.905 16.023411
66.910 16.454561
66.915 16.715105
66.920 16.571932
66.925 16.719828
66.930 16.937881
66.935 17.228786
66.940 17.311832
66.945 17.401176
66.950 17.778597
66.955 18.298592
66.960 18.081104
66.965 17.900711
66.970 18.403664
66.975 18.381237
66.980 18.646034
66.985 18.658115
66.990 18.348406
66.995 18.791019
67.000 19.126564
67.005 19.314053
67.010 19.413174
67.015 18.891222
67.020 18.742311
67.025 18.642908
67.030 19.010771
67.035 19.245384
67.040 18.450655
67.045 18.417004
67.050 18.432529
67.055 18.798285
67.060 19.293636
67.065 19.098839
67.070 18.934668
67.075 18.852583
67.080 18.496801
67.085 18.887629
67.090 18.476475
67.095 18.376936
67.100 17.932234
67.105 17.849514
67.110 18.54435
67.115 19.042234
67.120 18.906628
67.125 18.766056
67.130 18.353436
67.135 18.629005
67.140 18.486681
67.145 18.602526
67.150 17.99567
67.155 17.697399
67.160 17.730694
67.165 17.910688
67.170 18.191898
67.175 18.3246
67.180 17.733957
67.185 17.684771
67.190 18.19136
67.195 18.617739
67.200 18.578314
67.205 17.885534
67.210 17.595982
67.215 17.924473
67.220 18.213049
67.225 17.89554
67.230 17.364523
67.235 17.138096
67.240 17.591413
67.245 17.89678
67.250 18.297714
67.255 18.354879
67.260 17.870218
67.265 17.694496
67.270 17.730124
67.275 17.775066
67.280 17.584892
67.285 17.504122
67.290 17.555864
67.295 17.866505
67.300 18.393948
67.305 18.173525
67.310 17.900608
67.315 17.996916
67.320 17.321062
67.325 17.569752
67.330 17.855011
67.335 17.951792
67.340 18.058678
67.345 18.233374
67.350 17.453306
67.355 17.604919
67.360 17.224035
67.365 16.577553
67.370 16.461134
67.375 17.130505
67.380 17.247311
67.385 18.012722
67.390 18.093906
67.395 18.168421
67.400 18.102509
67.405 17.962896
67.410 17.95463
67.415 18.105114
67.420 18.05084
67.425 18.722605
67.430 19.228039
67.435 19.055922
67.440 19.178823
67.445 18.98715
67.450 18.614714
67.455 18.104458
67.460 17.29944
67.465 16.902905
67.470 17.712278
67.475 17.248806
67.480 17.624388
67.485 18.279757
67.490 18.551804
67.495 18.965425
67.500 18.731449
67.505 18.831127
67.510 18.804939
67.515 18.594954
67.520 18.989323
67.525 19.410322
67.530 19.242638
67.535 19.04903
67.540 18.755152
67.545 18.850782
67.550 18.375656
67.555 17.471125
67.560 16.54318
67.565 16.360506
67.570 16.74778
67.575 16.438738
67.580 16.252441
67.585 16.566364
67.590 17.799919
67.595 18.412119
67.600 18.569662
67.605 19.045294
67.610 19.216068
67.615 19.496872
67.620 20.252859
67.625 19.680891
67.630 19.24287
67.635 18.927191
67.640 18.930498
67.645 19.284756
67.650 19.149719
67.655 18.466738
67.660 18.360586
67.665 18.787167
67.670 19.214798
67.675 19.077768
67.680 18.8643
67.685 18.20002
67.690 18.368271
67.695 18.482325
67.700 18.475445
67.705 18.218834
67.710 17.881802
67.715 18.165958
67.720 18.572876
67.725 17.984831
67.730 17.799736
67.735 17.262833
67.740 16.853682
67.745 16.938179
67.750 16.655254
67.755 16.724133
67.760 17.364185
67.765 17.997343
67.770 18.156954
67.775 18.795713
67.780 18.742666
67.785 19.063126
67.790 19.186844
67.795 18.22142
67.800 18.091393
67.805 18.459387
67.810 18.461168
67.815 19.10973
67.820 18.503815
67.825 18.249275
67.830 17.837717
67.835 17.393503
67.840 17.124941
67.845 16.705086
67.850 16.626787
67.855 17.300011
67.860 17.641024
67.865 18.331665
67.870 18.834972
67.875 19.292229
67.880 19.142687
67.885 18.880484
67.890 18.809742
67.895 18.736313
67.900 18.700275
67.905 18.009205
67.910 17.614815
67.915 18.322783
67.920 18.879948
67.925 18.475655
67.930 19.163998
67.935 19.438608
67.940 19.829485
67.945 19.688644
67.950 19.225691
67.955 19.043797
67.960 19.029758
67.965 18.897352
67.970 18.730272
67.975 18.982176
67.980 18.763651
67.985 18.331121
67.990 17.883326
67.995 17.99221
68.000 17.646812
68.005 17.372435
68.010 17.097092
68.015 17.091503
68.020 17.122112
68.025 17.626659
68.030 17.019207
68.035 17.570391
68.040 17.919453
68.045 18.379652
68.050 18.607439
68.055 18.744164
68.060 18.548319
68.065 18.805357
68.070 18.022379
68.075 18.305079
68.080 17.795404
68.085 17.954411
68.090 18.005907
68.095 18.387781
68.100 18.888094
68.105 19.535746
68.110 20.029202
68.115 20.27009
68.120 20.547491
68.125 20.483412
68.130 19.964813
68.135 19.609077
68.140 18.999561
68.145 18.335102
68.150 18.530048
68.155 18.192051
68.160 18.531855
68.165 18.879671
68.170 18.77564
68.175 19.301676
68.180 19.712351
68.185 20.314445
68.190 21.053823
68.195 21.359015
68.200 21.925301
68.205 21.956324
68.210 21.458063
68.215 21.314648
68.220 20.743961
68.225 20.664387
68.230 20.803534
68.235 20.723047
68.240 21.298677
68.245 22.036634
68.250 22.353069
68.255 23.099863
68.260 22.870745
68.265 23.438509
68.270 23.818239
68.275 24.032913
68.280 23.865711
68.285 24.347923
68.290 24.122828
68.295 24.068108
68.300 23.787624
68.305 23.705757
68.310 23.510157
68.315 24.156372
68.320 24.267204
68.325 24.371624
68.330 24.707718
68.335 25.2435
68.340 25.061869
68.345 25.76425
68.350 26.008369
68.355 26.104935
68.360 26.394506
68.365 26.551683
68.370 26.227034
68.375 27.275974
68.380 27.440029
68.385 27.214827
68.390 27.357788
68.395 27.404367
68.400 27.371487
68.405 27.749781
68.410 27.418047
68.415 26.993916
68.420 28.001213
68.425 28.533474
68.430 28.913776
68.435 29.378302
68.440 29.398758
68.445 30.417942
68.450 31.170612
68.455 30.469162
68.460 30.38048
68.465 30.772291
68.470 31.510845
68.475 32.241558
68.480 32.060448
68.485 32.258236
68.490 32.344284
68.495 32.513954
68.500 32.527596
68.505 31.867346
68.510 30.964863
68.515 31.37632
68.520 31.589911
68.525 32.251678
68.530 32.930359
68.535 33.218281
68.540 34.055744
68.545 34.296486
68.550 34.39632
68.555 35.174118
68.560 35.781227
68.565 35.275684
68.570 34.725281
68.575 34.526611
68.580 34.813721
68.585 34.841339
68.590 34.616821
68.595 33.825184
68.600 33.912571
68.605 34.099476
68.610 33.682556
68.615 33.685024
68.620 33.004627
68.625 32.665108
68.630 33.137966
68.635 33.539425
68.640 33.729355
68.645 33.603142
68.650 33.224297
68.655 33.666969
68.660 33.881718
68.665 33.508083
68.670 33.07275
68.675 33.583092
68.680 34.944569
68.685 36.533703
68.690 37.26318
68.695 37.169312
68.700 37.083843
68.705 37.839958
68.710 37.471443
68.715 37.209095
68.720 36.4454
68.725 35.596462
68.730 35.630096
68.735 35.689396
68.740 35.803391
68.745 35.795887
68.750 35.054745
68.755 34.784409
68.760 35.04892
68.765 35.350208
68.770 35.687504
68.775 35.280254
68.780 35.852383
68.785 36.256023
68.790 36.785263
68.795 37.018517
68.800 36.870255
68.805 36.502033
68.810 36.51189
68.815 35.832806
68.820 34.987499
68.825 34.773972
68.830 35.401474
68.835 35.790337
68.840 35.247471
68.845 34.598907
68.850 34.781399
68.855 34.68243
68.860 35.02047
68.865 34.209351
68.870 34.49971
68.875 34.479065
68.880 34.468647
68.885 33.703003
68.890 33.550758
68.895 32.607044
68.900 31.663076
68.905 31.214643
68.910 31.036695
68.915 30.165154
68.920 29.934254
68.925 29.940294
68.930 29.952869
68.935 30.326841
68.940 30.141666
68.945 30.608328
68.950 30.907017
68.955 30.785692
68.960 31.089647
68.965 31.21789
68.970 30.866014
68.975 30.195993
68.980 29.492895
68.985 29.742693
68.990 29.321587
68.995 28.03981
69.000 27.603605
69.005 28.236473
69.010 28.421434
69.015 28.260094
69.020 27.984121
69.025 28.457605
69.030 28.7883
69.035 28.28005
69.040 27.752792
69.045 27.632296
69.050 27.75507
69.055 26.94335
69.060 26.150974
69.065 25.807568
69.070 25.419674
69.075 25.049873
69.080 24.26803
69.085 24.406071
69.090 24.687422
69.095 25.052782
69.100 25.296089
69.105 25.021816
69.110 24.766344
69.115 24.634499
69.120 23.891304
69.125 23.270977
69.130 22.348757
69.135 21.501228
69.140 21.646963
69.145 22.101038
69.150 22.678875
69.155 22.725431
69.160 23.243063
69.165 23.87956
69.170 24.473112
69.175 24.387938
69.180 24.416691
69.185 24.028717
69.190 23.780958
69.195 23.476309
69.200 22.967882
69.205 22.876816
69.210 21.922859
69.215 21.586533
69.220 21.858383
69.225 21.720459
69.230 21.806477
69.235 21.794989
69.240 21.649357
69.245 21.490002
69.250 21.190786
69.255 20.95241
69.260 21.077053
69.265 20.841019
69.270 20.772665
69.275 21.173088
69.280 21.092768
69.285 20.125042
69.290 19.994511
69.295 20.045616
69.300 20.094604
69.305 20.0853
69.310 19.49192
69.315 19.184248
69.320 19.305479
69.325 18.982908
69.330 18.947838
69.335 18.718744
69.340 18.308205
69.345 18.462706
69.350 19.06072
69.355 19.834185
69.360 20.275295
69.365 20.289347
69.370 20.239792
69.375 20.373177
69.380 20.795033
69.385 20.373434
69.390 19.716898
69.395 19.530914
69.400 19.294569
69.405 18.61273
69.410 18.111855
69.415 17.733442
69.420 17.687445
69.425 17.392174
69.430 17.568512
69.435 18.011591
69.440 18.569613
69.445 18.520927
69.450 18.233843
69.455 17.800793
69.460 17.94001
69.465 18.048204
69.470 17.795649
69.475 17.491829
69.480 17.415188
69.485 18.273998
69.490 18.778345
69.495 18.676138
69.500 17.894136
69.505 18.277466
69.510 19.017994
69.515 18.693254
69.520 17.331152
69.525 17.1152
69.530 16.978828
69.535 17.316284
69.540 17.551735
69.545 17.790897
69.550 18.711353
69.555 19.426752
69.560 19.594368
69.565 19.260323
69.570 18.813181
69.575 18.557823
69.580 18.045742
69.585 17.468571
69.590 17.240999
69.595 17.631435
69.600 18.013815
69.605 18.017645
69.610 17.879358
69.615 17.99324
69.620 18.172611
69.625 18.188238
69.630 18.497694
69.635 18.947605
69.640 19.083443
69.645 18.610867
69.650 18.434639
69.655 18.867348
69.660 19.087296
69.665 18.508989
69.670 18.410919
69.675 19.063515
69.680 19.745476
69.685 19.989218
69.690 19.171654
69.695 19.332556
69.700 19.819296
69.705 20.089851
69.710 19.715723
69.715 19.215479
69.720 19.498186
69.725 20.427141
69.730 20.18585
69.735 19.508699
69.740 18.672306
69.745 18.181067
69.750 17.947042
69.755 17.35074
69.760 17.262617
69.765 17.758913
69.770 18.245832
69.775 18.419003
69.780 19.321482
69.785 19.992592
69.790 20.161982
69.795 19.949083
69.800 19.042891
69.805 18.581575
69.810 18.927101
69.815 18.393938
69.820 18.240274
69.825 17.95369
69.830 17.63402
69.835 17.897053
69.840 18.186617
69.845 17.776684
69.850 17.735434
69.855 17.339806
69.860 17.248524
69.865 17.721796
69.870 17.451805
69.875 17.279913
69.880 17.645571
69.885 18.178122
69.890 18.422338
69.895 18.413599
69.900 18.04003
69.905 18.398405
69.910 18.764177
69.915 18.573305
69.920 18.385986
69.925 18.496222
69.930 18.535643
69.935 18.993597
69.940 18.647169
69.945 17.720131
69.950 17.558662
69.955 17.433691
69.960 17.525742
69.965 17.172861
69.970 16.700123
69.975 17.468958
69.980 17.972715
69.985 17.852913
69.990 18.249151
69.995 18.242088
70.000 18.444424
70.005 18.207037
70.010 18.21204
70.015 17.961796
70.020 18.287996
70.025 18.533703
70.030 18.193396
70.035 18.167576
70.040 18.026108
70.045 17.780884
70.050 18.191231
70.055 17.833572
70.060 17.536631
70.065 17.847971
70.070 18.629421
70.075 18.736135
70.080 18.862556
70.085 18.839998
70.090 18.729673
70.095 18.539293
70.100 18.801788
70.105 17.963587
70.110 18.098198
70.115 18.231388
70.120 18.115139
70.125 18.562532
70.130 18.439142
70.135 18.485531
70.140 19.681164
70.145 19.95669
70.150 19.878752
70.155 20.118069
70.160 19.732092
70.165 20.072311
70.170 19.280651
70.175 18.393963
70.180 17.399069
70.185 17.211802
70.190 17.34515
70.195 16.961405
70.200 16.721445
70.205 16.659592
70.210 17.036484
70.215 17.512428
70.220 17.529741
70.225 17.495338
70.230 17.806225
70.235 18.207329
70.240 17.816345
70.245 17.394047
70.250 17.569681
70.255 17.020523
70.260 17.451227
70.265 17.442558
70.270 17.303547
70.275 17.970116
70.280 17.917645
70.285 18.204382
70.290 18.08304
70.295 17.773676
70.300 17.865063
70.305 17.984005
70.310 18.301359
70.315 18.814857
70.320 18.528091
70.325 18.559759
70.330 18.54154
70.335 18.415009
70.340 18.481169
70.345 18.466629
70.350 18.65649
70.355 18.722982
70.360 18.846758
70.365 18.923901
70.370 18.819048
70.375 18.480267
70.380 17.877106
70.385 17.142036
70.390 17.210812
70.395 17.762486
70.400 17.108303
70.405 17.137871
70.410 17.211832
70.415 16.910557
70.420 16.768114
70.425 16.544003
70.430 16.241428
70.435 16.771612
70.440 16.684174
70.445 16.781811
70.450 17.82436
70.455 18.499487
70.460 18.405439
70.465 18.525805
70.470 19.182821
70.475 19.631725
70.480 19.910696
70.485 19.569513
70.490 19.997156
70.495 20.033539
70.500 19.468319
70.505 18.866051
70.510 18.990362
70.515 18.836309
70.520 18.533178
70.525 18.111897
70.530 18.221928
70.535 18.816217
70.540 19.009996
70.545 18.768419
70.550 18.361303
70.555 18.52751
70.560 18.224064
70.565 17.995867
70.570 17.853384
70.575 17.590477
70.580 17.34643
70.585 17.156687
70.590 17.095415
70.595 16.93137
70.600 17.053295
70.605 17.115133
70.610 17.501686
70.615 17.957458
70.620 18.304073
70.625 18.094915
70.630 18.271713
70.635 18.08379
70.640 17.544685
70.645 17.172342
70.650 16.898165
70.655 17.780752
70.660 17.872112
70.665 18.049503
70.670 18.163332
70.675 18.530439
70.680 18.128517
70.685 18.100248
70.690 17.653578
70.695 18.037189
70.700 18.256399
70.705 18.474358
70.710 18.411222
70.715 18.892439
70.720 18.561857
70.725 18.395508
70.730 17.942665
70.735 17.543438
70.740 17.339722
70.745 17.266996
70.750 17.48641
70.755 18.214638
70.760 18.365025
70.765 18.28451
70.770 18.324129
70.775 18.14414
70.780 18.280354
70.785 18.05814
70.790 17.837818
70.795 18.312147
70.800 18.180658
70.805 18.282946
70.810 18.289991
70.815 17.900955
70.820 18.347673
70.825 18.083242
70.830 18.005255
70.835 18.765898
70.840 18.544935
70.845 18.328156
70.850 18.065958
70.855 17.373354
70.860 17.717312
70.865 17.165791
70.870 16.391796
70.875 16.880487
70.880 17.552574
70.885 17.759558
70.890 17.547491
70.895 17.594175
70.900 17.76343
70.905 18.035952
70.910 17.748924
70.915 17.803946
70.920 18.278009
70.925 18.262238
70.930 18.273058
70.935 18.590357
70.940 18.229939
70.945 18.138931
70.950 17.769793
70.955 17.298735
70.960 17.262039
70.965 16.807333
70.970 16.856766
70.975 17.573425
70.980 17.907181
70.985 17.966955
70.990 18.301302
70.995 17.586473
71.000 17.33695
71.005 16.931416
71.010 16.464155
71.015 16.248877
71.020 16.799747
71.025 17.159624
71.030 17.933615
71.035 17.874472
71.040 18.087711
71.045 18.082254
71.050 18.070816
71.055 17.699017
71.060 17.544609
71.065 17.254852
71.070 17.473276
71.075 17.157965
71.080 16.893839
71.085 16.851318
71.090 16.735136
71.095 16.604546
71.100 16.613234
71.105 16.680199
71.110 16.719521
71.115 16.659204
71.120 17.223499
71.125 17.662266
71.130 18.649958
71.135 18.950787
71.140 18.983576
71.145 19.24614
71.150 19.003273
71.155 18.726322
71.160 17.903145
71.165 17.58437
71.170 17.648083
71.175 17.722589
71.180 17.772179
71.185 17.626972
71.190 17.560917
71.195 17.499651
71.200 17.332447
71.205 17.210144
71.210 17.104265
71.215 17.176632
71.220 17.330427
71.225 17.407984
71.230 17.540102
71.235 17.813631
71.240 17.87532
71.245 18.574627
71.250 19.508862
71.255 19.638208
71.260 19.30957
71.265 18.659237
71.270 18.03672
71.275 17.819588
71.280 17.095772
71.285 16.606964
71.290 16.866037
71.295 17.182501
71.300 17.240921
71.305 17.228231
71.310 17.367752
71.315 17.225002
71.320 16.965132
71.325 16.551115
71.330 16.583796
71.335 16.778078
71.340 17.535547
71.345 18.222784
71.350 18.13822
71.355 18.318039
71.360 18.824524
71.365 19.449196
71.370 19.951603
71.375 19.759579
71.380 19.904854
71.385 20.270103
71.390 20.250414
71.395 20.084749
71.400 19.949709
71.405 20.16267
71.410 19.404732
71.415 18.957457
71.420 18.728863
71.425 18.174431
71.430 18.153912
71.435 17.962219
71.440 17.565754
71.445 17.744291
71.450 17.672564
71.455 18.006094
71.460 18.393347
71.465 18.482594
71.470 18.394976
71.475 18.032171
71.480 17.801542
71.485 18.315735
71.490 18.513638
71.495 18.361425
71.500 17.94833
71.505 18.156857
71.510 18.443123
71.515 18.251831
71.520 17.528578
71.525 17.538822
71.530 17.213606
71.535 18.278868
71.540 19.017494
71.545 19.220409
71.550 19.836861
71.555 20.292868
71.560 20.193777
71.565 20.038496
71.570 18.624544
71.575 17.847803
71.580 17.664598
71.585 17.376476
71.590 16.97938
71.595 16.940731
71.600 17.379635
71.605 17.656149
71.610 17.94804
71.615 18.340961
71.620 18.246946
71.625 18.364237
71.630 18.471649
71.635 18.634224
71.640 18.754681
71.645 18.480768
71.650 18.103554
71.655 17.78656
71.660 17.540344
71.665 18.068213
71.670 18.338615
71.675 18.57863
71.680 18.538746
71.685 18.425858
71.690 18.961809
71.695 19.426905
71.700 19.193422
71.705 18.560776
71.710 18.347307
71.715 18.584139
71.720 18.680578
71.725 18.125904
71.730 17.834158
71.735 17.3016
71.740 17.542187
71.745 17.512491
71.750 18.469488
71.755 18.780031
71.760 19.158409
71.765 19.04097
71.770 19.188791
71.775 19.41304
71.780 19.139242
71.785 19.007608
71.790 18.451742
71.795 18.37908
71.800 18.114555
71.805 17.777597
71.810 17.603046
71.815 17.683144
71.820 16.895174
71.825 17.064672
71.830 17.35976
71.835 17.51667
71.840 17.484549
71.845 17.245592
71.850 16.840696
71.855 17.388742
71.860 17.150385
71.865 16.710096
71.870 16.906403
71.875 18.054131
71.880 18.864897
71.885 19.088732
71.890 18.707998
71.895 18.763281
71.900 18.638266
71.905 18.572512
71.910 17.208698
71.915 17.091412
71.920 17.057522
71.925 17.011276
71.930 17.275667
71.935 17.512251
71.940 17.795019
71.945 17.799709
71.950 17.566603
71.955 17.844917
71.960 18.005411
71.965 18.414967
71.970 18.193377
71.975 17.786955
71.980 17.967237
71.985 17.906788
71.990 17.999363
71.995 18.035446
72.000 18.111292
72.005 17.910168
72.010 17.884476
72.015 18.214958
72.020 18.532171
72.025 17.983671
72.030 17.438593
72.035 17.492184
72.040 18.100012
72.045 17.828938
72.050 17.426231
72.055 17.354763
72.060 17.587139
72.065 18.055103
72.070 18.101753
72.075 18.324467
72.080 18.890324
72.085 18.783287
72.090 18.910589
72.095 19.406389
72.100 19.070627
72.105 18.935467
72.110 18.536694
72.115 17.783512
72.120 17.93301
72.125 17.685738
72.130 17.495945
72.135 17.503689
72.140 17.210625
72.145 17.662464
72.150 17.942804
72.155 17.980198
72.160 17.884468
72.165 17.67408
72.170 17.705799
72.175 17.965288
72.180 17.838728
72.185 17.077766
72.190 16.300327
72.195 16.889189
72.200 17.109426
72.205 17.027782
72.210 16.644783
72.215 16.262407
72.220 16.901659
72.225 17.031538
72.230 16.482708
72.235 16.474573
72.240 16.731606
72.245 16.978674
72.250 17.836161
72.255 17.590248
72.260 17.593517
72.265 17.827274
72.270 17.620897
72.275 17.290335
72.280 17.292992
72.285 17.059153
72.290 17.659792
72.295 18.268461
72.300 18.222738
72.305 17.788769
72.310 17.883165
72.315 17.579893
72.320 17.680771
72.325 17.227442
72.330 16.885042
72.335 16.912329
72.340 17.312428
72.345 17.693514
72.350 17.317911
72.355 16.965071
72.360 17.097719
72.365 17.447243
72.370 17.9219
72.375 17.942654
72.380 18.003435
72.385 18.056662
72.390 18.505342
72.395 18.33246
72.400 17.904655
72.405 17.696535
72.410 17.649035
72.415 18.074051
72.420 18.072098
72.425 17.893406
72.430 17.757839
72.435 17.535524
72.440 17.313744
72.445 17.07481
72.450 16.672926
72.455 16.826838
72.460 16.857054
72.465 16.57316
72.470 16.932356
72.475 17.211767
72.480 16.766172
72.485 16.847673
72.490 16.981878
72.495 17.047964
72.500 17.180397
72.505 16.62516
72.510 16.283295
72.515 16.870733
72.520 17.245167
72.525 17.531246
72.530 17.897446
72.535 17.980919
72.540 18.609531
72.545 18.821436
72.550 18.88596
72.555 18.811483
72.560 18.087729
72.565 17.323677
72.570 17.168804
72.575 17.02632
72.580 17.080696
72.585 16.636642
72.590 16.713566
72.595 17.21594
72.600 17.597372
72.605 17.816225
72.610 17.712027
72.615 17.98987
72.620 18.192833
72.625 17.635118
72.630 17.536205
72.635 17.541409
72.640 17.129667
72.645 17.449818
72.650 17.351967
72.655 17.369324
72.660 17.422102
72.665 16.965954
72.670 17.33477
72.675 17.472929
72.680 16.885151
72.685 16.986423
72.690 17.492615
72.695 18.543833
72.700 19.208376
72.705 18.994116
72.710 19.004835
72.715 19.059469
72.720 18.663473
72.725 18.01796
72.730 17.162048
72.735 16.360992
72.740 16.661655
72.745 16.640017
72.750 16.632898
72.755 16.445299
72.760 16.407213
72.765 16.731497
72.770 16.836895
72.775 16.411455
72.780 16.746176
72.785 16.333082
72.790 15.572633
72.795 15.090596
72.800 15.031414
72.805 15.137793
72.810 15.150074
72.815 15.421901
72.820 15.702361
72.825 16.684679
72.830 16.710859
72.835 16.530367
72.840 16.550085
72.845 16.219702
72.850 16.506302
72.855 17.049038
72.860 17.184933
72.865 17.626122
72.870 17.692402
72.875 17.296869
72.880 17.378677
72.885 16.644188
72.890 16.078428
72.895 15.790144
72.900 15.926943
72.905 16.346193
72.910 16.632696
72.915 17.03018
72.920 17.504644
72.925 18.069691
72.930 18.339115
72.935 18.29335
72.940 18.145267
72.945 17.709126
72.950 17.992813
72.955 17.942444
72.960 17.346548
72.965 16.678091
72.970 16.428898
72.975 16.614666
72.980 16.457565
72.985 15.819315
72.990 15.795222
72.995 15.827745
73.000 16.10515
