!@!!GADDS PLOTSO FILE: Chi integration type
!@!!Title/SampleName: map-c4
!@!!Comment: ?
!@!!User: Bruker Instrument Administrator
!@!!Site: University of Illinois Chicago
!@!!Frame: map-c4_01_000.gfrm
!@!!Wavelengths    1.54184   1.54056   1.54439
!@!!Frame angles: 2Theta: 63.000 Omega: 50.000 Phi: 0.000 Chi: 90.000
!@!!Integration range: 2Theta: 53.000 to 73.000  Gamma: -105.000 to -75.000
!@!!Integration method: bin normalized
!@!N
!@!SS
!@!M
!@!L 0.0 0.0 0.0 0.0
!@!XDegrees
!@!YCounts
53.000 7.577328
53.005 7.317295
53.010 7.228644
53.015 6.880513
53.020 7.244537
53.025 7.54359
53.030 7.229811
53.035 7.238553
53.040 7.413939
53.045 7.480228
53.050 8.030569
53.055 8.054432
53.060 8.258142
53.065 8.618402
53.070 8.182031
53.075 8.22474
53.080 8.959126
53.085 9.116428
53.090 9.424941
53.095 9.561282
53.100 9.527983
53.105 9.641936
53.110 9.168984
53.115 8.674049
53.120 8.694495
53.125 8.620376
53.130 8.898598
53.135 9.069361
53.140 9.535957
53.145 9.70584
53.150 9.553355
53.155 9.445994
53.160 9.372936
53.165 9.077229
53.170 8.951095
53.175 8.39054
53.180 8.578541
53.185 8.315532
53.190 7.939458
53.195 8.046784
53.200 8.212574
53.205 8.298737
53.210 8.307754
53.215 7.968283
53.220 8.142081
53.225 8.151314
53.230 7.919428
53.235 7.805864
53.240 7.899957
53.245 8.12988
53.250 8.34021
53.255 8.158891
53.260 8.44392
53.265 8.326777
53.270 8.197925
53.275 8.140796
53.280 8.235898
53.285 8.278937
53.290 8.568439
53.295 8.345347
53.300 8.154022
53.305 8.333155
53.310 8.57169
53.315 8.791306
53.320 8.818543
53.325 8.946118
53.330 8.913355
53.335 9.255679
53.340 9.337979
53.345 8.878629
53.350 8.864237
53.355 9.104221
53.360 9.247798
53.365 9.730185
53.370 9.980121
53.375 9.783171
53.380 10.064084
53.385 9.707388
53.390 9.293892
53.395 9.161174
53.400 8.538767
53.405 8.153883
53.410 8.335054
53.415 8.282497
53.420 8.421077
53.425 8.035943
53.430 7.994277
53.435 8.213838
53.440 7.737605
53.445 7.584864
53.450 8.016276
53.455 8.28909
53.460 8.275126
53.465 7.69045
53.470 7.463252
53.475 7.653646
53.480 7.277634
53.485 6.914596
53.490 6.887862
53.495 7.73247
53.500 8.480124
53.505 9.092521
53.510 9.363094
53.515 9.293488
53.520 9.171923
53.525 8.90085
53.530 8.555652
53.535 8.236653
53.540 7.925072
53.545 7.653933
53.550 7.668023
53.555 8.040753
53.560 8.153204
53.565 8.20399
53.570 8.723548
53.575 9.1109
53.580 9.617086
53.585 9.556584
53.590 9.310994
53.595 9.413629
53.600 9.324113
53.605 9.281675
53.610 9.153795
53.615 9.047342
53.620 9.128094
53.625 9.103765
53.630 9.084487
53.635 8.860766
53.640 8.720597
53.645 8.591535
53.650 8.404737
53.655 8.361609
53.660 8.491187
53.665 9.065964
53.670 9.24819
53.675 9.372505
53.680 9.734251
53.685 10.071486
53.690 10.015872
53.695 10.101413
53.700 9.677985
53.705 9.345874
53.710 8.979895
53.715 8.748365
53.720 8.602451
53.725 8.51507
53.730 8.310624
53.735 8.536466
53.740 8.936177
53.745 8.933615
53.750 9.219666
53.755 9.345983
53.760 9.766532
53.765 9.57002
53.770 9.333175
53.775 9.345337
53.780 9.592937
53.785 9.564582
53.790 9.357599
53.795 9.467206
53.800 9.656449
53.805 9.766306
53.810 9.894209
53.815 9.63818
53.820 9.830362
53.825 9.463179
53.830 9.322618
53.835 9.062107
53.840 8.443283
53.845 8.279583
53.850 8.736281
53.855 9.032945
53.860 9.963822
53.865 9.94768
53.870 10.127612
53.875 10.470922
53.880 10.817291
53.885 10.500837
53.890 10.280603
53.895 10.112309
53.900 10.410316
53.905 10.447088
53.910 10.454646
53.915 10.172024
53.920 9.940398
53.925 9.935514
53.930 9.610312
53.935 9.323745
53.940 9.611148
53.945 9.655812
53.950 9.672111
53.955 9.711165
53.960 9.475455
53.965 9.785712
53.970 9.836074
53.975 9.751109
53.980 9.684247
53.985 9.690232
53.990 9.926259
53.995 10.460793
54.000 10.225057
54.005 10.124738
54.010 10.040508
54.015 9.810099
54.020 9.477126
54.025 8.94458
54.030 8.595913
54.035 8.43218
54.040 8.702935
54.045 8.663787
54.050 8.634558
54.055 8.970105
54.060 9.167706
54.065 9.356647
54.070 9.562946
54.075 9.38742
54.080 9.56273
54.085 9.402631
54.090 9.536287
54.095 9.762538
54.100 9.623506
54.105 9.792575
54.110 9.654142
54.115 9.844875
54.120 9.862869
54.125 9.34597
54.130 9.095003
54.135 8.912575
54.140 8.621989
54.145 9.031106
54.150 9.420354
54.155 9.329677
54.160 9.161463
54.165 9.523279
54.170 10.099872
54.175 10.159812
54.180 10.019046
54.185 9.683642
54.190 9.76834
54.195 9.86421
54.200 9.924212
54.205 9.515061
54.210 9.366732
54.215 9.213799
54.220 9.314235
54.225 9.592059
54.230 9.552407
54.235 9.340837
54.240 9.439142
54.245 9.528646
54.250 9.428331
54.255 9.182134
54.260 9.225478
54.265 9.093295
54.270 9.4309
54.275 9.576053
54.280 9.389499
54.285 9.453932
54.290 9.391921
54.295 9.167893
54.300 9.46759
54.305 9.176966
54.310 9.584711
54.315 10.030029
54.320 10.369558
54.325 10.375924
54.330 10.450442
54.335 10.304613
54.340 10.280738
54.345 9.730045
54.350 9.653564
54.355 10.024026
54.360 10.306048
54.365 10.55096
54.370 10.428364
54.375 10.568001
54.380 10.692178
54.385 10.759805
54.390 10.730321
54.395 11.060168
54.400 11.289868
54.405 11.365009
54.410 11.31391
54.415 11.297812
54.420 11.22944
54.425 11.076497
54.430 10.731798
54.435 10.411129
54.440 10.342933
54.445 10.265605
54.450 10.118827
54.455 9.860927
54.460 9.544799
54.465 10.171658
54.470 10.634279
54.475 10.380269
54.480 10.208617
54.485 10.109241
54.490 9.807063
54.495 9.72683
54.500 9.153217
54.505 8.65283
54.510 9.233357
54.515 10.031397
54.520 10.29707
54.525 10.610511
54.530 10.435088
54.535 10.669758
54.540 11.025206
54.545 10.68507
54.550 10.21252
54.555 10.155367
54.560 9.936507
54.565 10.347712
54.570 10.395888
54.575 10.094323
54.580 10.052643
54.585 10.094287
54.590 10.139277
54.595 10.15055
54.600 9.875935
54.605 9.823977
54.610 9.88448
54.615 10.00166
54.620 10.224212
54.625 10.529451
54.630 10.350603
54.635 10.323414
54.640 10.568706
54.645 10.818546
54.650 10.577117
54.655 10.598913
54.660 10.681013
54.665 11.602355
54.670 11.794552
54.675 11.58799
54.680 11.318362
54.685 11.649242
54.690 11.269443
54.695 10.952216
54.700 9.943704
54.705 9.681457
54.710 9.896322
54.715 9.69913
54.720 9.049811
54.725 9.070834
54.730 9.063512
54.735 9.586765
54.740 9.781404
54.745 9.570835
54.750 10.024526
54.755 10.490148
54.760 10.856196
54.765 10.916916
54.770 10.838711
54.775 11.207911
54.780 11.492627
54.785 11.107445
54.790 10.638064
54.795 10.555844
54.800 10.376155
54.805 9.87892
54.810 9.144587
54.815 8.952739
54.820 9.058466
54.825 9.154981
54.830 9.115075
54.835 9.07524
54.840 9.08512
54.845 9.3768
54.850 9.487148
54.855 9.56627
54.860 9.888834
54.865 10.158766
54.870 10.435878
54.875 10.506757
54.880 10.505195
54.885 9.9647
54.890 9.864841
54.895 10.024329
54.900 10.233021
54.905 10.682811
54.910 10.70755
54.915 10.705731
54.920 11.060276
54.925 11.058161
54.930 10.274908
54.935 10.13903
54.940 9.577839
54.945 10.038662
54.950 10.869311
54.955 10.757771
54.960 11.090333
54.965 11.261813
54.970 11.456283
54.975 11.801214
54.980 11.279532
54.985 11.427408
54.990 11.927622
54.995 12.190378
55.000 12.473416
55.005 12.571793
55.010 12.460331
55.015 12.046174
55.020 11.392763
55.025 11.485093
55.030 11.132838
55.035 10.700984
55.040 10.372779
55.045 10.082825
55.050 10.580111
55.055 10.747694
55.060 10.600657
55.065 10.766643
55.070 10.819269
55.075 10.963599
55.080 11.043552
55.085 10.885029
55.090 10.917809
55.095 11.129163
55.100 10.699391
55.105 10.860651
55.110 11.312799
55.115 11.748933
55.120 11.817026
55.125 11.58673
55.130 11.647925
55.135 12.451354
55.140 12.633282
55.145 12.169565
55.150 11.732014
55.155 12.093436
55.160 12.343163
55.165 12.49445
55.170 11.767297
55.175 11.280605
55.180 11.297956
55.185 11.574924
55.190 11.129919
55.195 10.694122
55.200 10.289943
55.205 10.581588
55.210 11.270072
55.215 11.707397
55.220 11.684312
55.225 11.569836
55.230 11.393833
55.235 11.861939
55.240 11.457574
55.245 11.030403
55.250 10.807942
55.255 10.737781
55.260 10.780656
55.265 10.829486
55.270 10.294509
55.275 10.305508
55.280 10.1745
55.285 10.219647
55.290 10.292184
55.295 10.191689
55.300 10.120671
55.305 9.953057
55.310 10.004973
55.315 10.030058
55.320 9.961706
55.325 10.014687
55.330 10.233164
55.335 10.84071
55.340 11.115028
55.345 10.943583
55.350 11.429404
55.355 11.709649
55.360 11.511032
55.365 11.496192
55.370 11.405576
55.375 12.00022
55.380 12.241397
55.385 12.039605
55.390 12.080729
55.395 12.085205
55.400 11.709208
55.405 11.592072
55.410 11.110797
55.415 11.161271
55.420 11.154003
55.425 11.252276
55.430 11.823773
55.435 11.741739
55.440 11.318665
55.445 10.812878
55.450 10.602383
55.455 10.41315
55.460 10.108271
55.465 9.721575
55.470 9.634229
55.475 10.168607
55.480 10.538276
55.485 10.34007
55.490 10.182855
55.495 10.470324
55.500 10.667216
55.505 11.007608
55.510 11.003519
55.515 10.888723
55.520 11.229
55.525 11.484633
55.530 10.760576
55.535 10.827174
55.540 10.685795
55.545 10.680409
55.550 11.215731
55.555 11.278124
55.560 11.34056
55.565 12.051411
55.570 11.847299
55.575 12.070337
55.580 11.718063
55.585 11.19065
55.590 10.78365
55.595 10.245621
55.600 10.092865
55.605 10.090862
55.610 9.938181
55.615 10.450657
55.620 10.552299
55.625 10.928483
55.630 11.230358
55.635 11.180902
55.640 10.966913
55.645 10.910478
55.650 10.771706
55.655 10.78166
55.660 10.932593
55.665 11.182198
55.670 11.104591
55.675 11.023932
55.680 11.07497
55.685 11.004197
55.690 11.036148
55.695 10.738654
55.700 10.490732
55.705 10.750312
55.710 10.771434
55.715 10.467408
55.720 10.096121
55.725 10.068131
55.730 10.065588
55.735 10.437888
55.740 10.854179
55.745 11.450164
55.750 12.303168
55.755 12.671789
55.760 12.570451
55.765 12.697898
55.770 12.604509
55.775 12.239408
55.780 11.800306
55.785 11.616867
55.790 11.823835
55.795 11.730363
55.800 11.079326
55.805 10.366846
55.810 9.82289
55.815 9.758604
55.820 9.328097
55.825 9.215413
55.830 9.450806
55.835 10.120024
55.840 10.134966
55.845 11.117776
55.850 11.008689
55.855 10.899291
55.860 10.646413
55.865 10.740324
55.870 10.520229
55.875 10.780345
55.880 10.448956
55.885 10.66122
55.890 10.491091
55.895 10.911497
55.900 10.952511
55.905 11.391298
55.910 12.087586
55.915 12.399668
55.920 13.037168
55.925 13.278154
55.930 12.599517
55.935 12.917002
55.940 13.018764
55.945 12.734925
55.950 12.486208
55.955 12.228767
55.960 12.814746
55.965 13.188736
55.970 12.942288
55.975 12.386184
55.980 12.237141
55.985 12.379798
55.990 12.243547
55.995 12.30444
56.000 12.08147
56.005 12.063941
56.010 12.896774
56.015 12.932696
56.020 12.791155
56.025 12.861415
56.030 12.221524
56.035 12.138438
56.040 11.629428
56.045 10.877277
56.050 10.573958
56.055 10.713111
56.060 10.841311
56.065 11.219759
56.070 11.489377
56.075 11.579646
56.080 11.899751
56.085 12.263927
56.090 12.211207
56.095 12.023835
56.100 11.884113
56.105 12.015362
56.110 12.350804
56.115 12.066655
56.120 11.950409
56.125 11.996568
56.130 12.121579
56.135 12.570106
56.140 12.604066
56.145 12.676302
56.150 12.829349
56.155 13.09677
56.160 13.167977
56.165 12.814232
56.170 12.454881
56.175 12.477685
56.180 11.918234
56.185 12.078425
56.190 11.908445
56.195 11.623782
56.200 11.707012
56.205 11.660938
56.210 11.33233
56.215 11.254671
56.220 10.89319
56.225 11.499778
56.230 12.018231
56.235 12.342688
56.240 12.351151
56.245 12.528688
56.250 12.480858
56.255 12.035804
56.260 11.47598
56.265 11.550793
56.270 11.388502
56.275 11.52034
56.280 11.588519
56.285 11.980857
56.290 12.568882
56.295 12.204512
56.300 11.851716
56.305 12.023735
56.310 12.092668
56.315 12.679117
56.320 13.27728
56.325 13.24333
56.330 13.208052
56.335 13.282484
56.340 13.343354
56.345 13.716681
56.350 13.601362
56.355 13.45566
56.360 13.255492
56.365 13.682527
56.370 13.253378
56.375 12.85033
56.380 12.506421
56.385 12.425528
56.390 12.058797
56.395 11.787504
56.400 11.503103
56.405 12.010527
56.410 12.029119
56.415 11.641362
56.420 11.153794
56.425 11.324869
56.430 12.038314
56.435 11.908929
56.440 11.354486
56.445 11.414974
56.450 12.230972
56.455 12.277211
56.460 12.099663
56.465 11.853539
56.470 12.332477
56.475 12.529349
56.480 12.218044
56.485 11.166362
56.490 10.997422
56.495 11.012301
56.500 10.57417
56.505 10.511108
56.510 10.252883
56.515 10.214297
56.520 10.647878
56.525 10.583597
56.530 10.710584
56.535 11.118166
56.540 10.889441
56.545 11.110725
56.550 11.153658
56.555 10.907254
56.560 11.02457
56.565 11.392357
56.570 11.751433
56.575 12.591337
56.580 12.913056
56.585 13.019665
56.590 13.671661
56.595 14.150621
56.600 13.532269
56.605 13.270733
56.610 12.858079
56.615 12.901902
56.620 12.853763
56.625 12.779291
56.630 12.718074
56.635 13.088784
56.640 13.235911
56.645 13.269736
56.650 13.241917
56.655 13.42132
56.660 13.81971
56.665 13.955236
56.670 13.773021
56.675 13.475493
56.680 13.262194
56.685 13.262841
56.690 13.453182
56.695 13.800881
56.700 14.14614
56.705 14.237978
56.710 14.393717
56.715 14.721861
56.720 14.669974
56.725 14.065928
56.730 12.69323
56.735 12.505715
56.740 12.898235
56.745 13.045433
56.750 12.412793
56.755 12.338417
56.760 12.530991
56.765 12.717162
56.770 12.193094
56.775 11.856695
56.780 12.046766
56.785 12.614564
56.790 12.866407
56.795 13.250728
56.800 13.685376
56.805 14.037455
56.810 14.183084
56.815 14.189553
56.820 14.42444
56.825 14.233672
56.830 13.634069
56.835 13.569658
56.840 13.81641
56.845 13.618673
56.850 13.107539
56.855 12.702235
56.860 12.885343
56.865 12.9429
56.870 12.602393
56.875 12.634653
56.880 13.114752
56.885 13.482495
56.890 13.367213
56.895 13.267874
56.900 13.064183
56.905 13.114397
56.910 12.469302
56.915 11.917042
56.920 11.602012
56.925 11.775816
56.930 12.047188
56.935 11.884593
56.940 11.48035
56.945 11.573442
56.950 11.629669
56.955 11.621156
56.960 11.516031
56.965 10.97638
56.970 10.983904
56.975 11.486955
56.980 11.97244
56.985 11.982217
56.990 11.788932
56.995 11.685574
57.000 11.870033
57.005 12.570416
57.010 12.406197
57.015 12.029096
57.020 12.069954
57.025 12.352139
57.030 12.302684
57.035 12.733121
57.040 12.585649
57.045 12.604758
57.050 13.227452
57.055 13.069083
57.060 13.203036
57.065 12.760374
57.070 12.55847
57.075 12.070287
57.080 12.565346
57.085 12.294781
57.090 12.695224
57.095 12.839128
57.100 13.303104
57.105 13.066865
57.110 13.207506
57.115 12.93618
57.120 13.002137
57.125 12.707644
57.130 12.501353
57.135 12.56882
57.140 12.75036
57.145 12.875612
57.150 12.582343
57.155 12.613387
57.160 12.654196
57.165 13.086152
57.170 13.573298
57.175 13.61248
57.180 13.335008
57.185 13.271414
57.190 13.684464
57.195 13.380635
57.200 12.994473
57.205 12.439644
57.210 12.381444
57.215 12.354492
57.220 12.245761
57.225 12.139966
57.230 12.130612
57.235 12.473127
57.240 12.705424
57.245 13.272589
57.250 13.940735
57.255 14.130431
57.260 14.052825
57.265 14.353226
57.270 14.217283
57.275 13.950339
57.280 13.521201
57.285 13.436431
57.290 13.450297
57.295 13.266548
57.300 12.85872
57.305 13.010675
57.310 13.412563
57.315 13.663533
57.320 13.165365
57.325 13.446118
57.330 13.66449
57.335 13.775463
57.340 13.674742
57.345 13.249224
57.350 13.259118
57.355 13.953491
57.360 14.122981
57.365 14.656775
57.370 14.726375
57.375 14.945079
57.380 15.239104
57.385 14.823103
57.390 14.117459
57.395 14.097022
57.400 13.938054
57.405 13.875143
57.410 13.642579
57.415 13.342155
57.420 13.026712
57.425 13.386439
57.430 13.292975
57.435 13.508511
57.440 13.670317
57.445 13.941984
57.450 14.245573
57.455 14.723653
57.460 14.922802
57.465 14.428574
57.470 14.028258
57.475 13.797688
57.480 13.696942
57.485 13.682165
57.490 13.295929
57.495 13.029155
57.500 13.586117
57.505 13.62442
57.510 13.804476
57.515 13.655548
57.520 13.535497
57.525 13.905042
57.530 13.917865
57.535 13.725365
57.540 14.053461
57.545 13.972633
57.550 14.377624
57.555 14.524269
57.560 14.397651
57.565 14.603481
57.570 14.624896
57.575 14.12561
57.580 14.113594
57.585 13.937582
57.590 13.600025
57.595 13.231026
57.600 13.068927
57.605 12.932217
57.610 13.048799
57.615 13.011047
57.620 12.670007
57.625 12.801595
57.630 13.074527
57.635 13.493701
57.640 13.232691
57.645 13.19635
57.650 13.193576
57.655 13.839161
57.660 13.723356
57.665 12.7334
57.670 12.402217
57.675 12.313121
57.680 12.299902
57.685 12.672327
57.690 12.604511
57.695 13.171018
57.700 13.487143
57.705 13.768456
57.710 14.102158
57.715 14.332524
57.720 13.955195
57.725 13.896823
57.730 13.642029
57.735 13.767312
57.740 13.621471
57.745 13.469982
57.750 13.151003
57.755 13.57957
57.760 13.603506
57.765 14.085369
57.770 13.960195
57.775 14.203392
57.780 14.655694
57.785 14.90772
57.790 14.502864
57.795 14.363942
57.800 14.346855
57.805 14.610764
57.810 14.134742
57.815 14.236094
57.820 14.200656
57.825 14.351017
57.830 14.466512
57.835 14.444515
57.840 14.346688
57.845 14.353579
57.850 14.075046
57.855 13.861937
57.860 13.884826
57.865 13.848241
57.870 13.6622
57.875 13.931324
57.880 13.725351
57.885 13.675498
57.890 13.806001
57.895 13.63346
57.900 13.734583
57.905 13.605259
57.910 13.525255
57.915 13.635259
57.920 13.356353
57.925 13.551126
57.930 13.390127
57.935 12.886332
57.940 12.734442
57.945 12.466799
57.950 13.013416
57.955 13.414261
57.960 13.656219
57.965 14.021124
57.970 14.857364
57.975 15.321271
57.980 16.068148
57.985 16.699305
57.990 16.658117
57.995 16.281481
58.000 16.559071
58.005 16.968721
58.010 17.303932
58.015 16.779871
58.020 15.727204
58.025 15.999482
58.030 16.439024
58.035 16.228205
58.040 16.261347
58.045 16.205894
58.050 16.153429
58.055 16.536167
58.060 16.211405
58.065 15.866071
58.070 15.761975
58.075 15.265738
58.080 15.109571
58.085 15.186106
58.090 15.427303
58.095 15.317476
58.100 15.491507
58.105 15.342345
58.110 15.38044
58.115 15.692776
58.120 15.82223
58.125 16.345968
58.130 16.416943
58.135 16.148237
58.140 16.56665
58.145 16.344095
58.150 15.592606
58.155 15.66895
58.160 15.57878
58.165 16.181093
58.170 16.637125
58.175 16.735443
58.180 17.180319
58.185 18.001364
58.190 17.822004
58.195 17.305534
58.200 16.781023
58.205 16.649847
58.210 16.197004
58.215 16.008808
58.220 15.526276
58.225 15.414804
58.230 15.60232
58.235 15.919328
58.240 15.915295
58.245 15.981748
58.250 15.790473
58.255 16.060913
58.260 15.965796
58.265 15.531998
58.270 15.266575
58.275 15.866503
58.280 16.088728
58.285 16.181307
58.290 16.314125
58.295 16.62891
58.300 17.046131
58.305 16.936422
58.310 16.078896
58.315 16.467203
58.320 16.899097
58.325 16.823763
58.330 16.867559
58.335 16.5578
58.340 16.396334
58.345 16.578224
58.350 16.488188
58.355 16.694132
58.360 17.67844
58.365 18.01816
58.370 18.622185
58.375 19.11282
58.380 19.209091
58.385 18.93401
58.390 18.657167
58.395 17.888922
58.400 17.865173
58.405 17.686058
58.410 17.865175
58.415 18.305668
58.420 18.952255
58.425 18.830826
58.430 19.25437
58.435 19.387482
58.440 19.580469
58.445 19.225183
58.450 19.231916
58.455 19.389277
58.460 19.79101
58.465 20.080397
58.470 21.115911
58.475 21.74564
58.480 22.443699
58.485 22.915209
58.490 23.512566
58.495 24.131031
58.500 24.736269
58.505 24.879778
58.510 25.686453
58.515 26.289961
58.520 26.843693
58.525 27.013227
58.530 26.792881
58.535 26.149225
58.540 26.044037
58.545 26.134592
58.550 26.253592
58.555 26.370916
58.560 27.63483
58.565 28.381477
58.570 29.552465
58.575 30.60396
58.580 30.277361
58.585 30.113726
58.590 30.303818
58.595 30.289261
58.600 30.866625
58.605 30.457952
58.610 30.356876
58.615 30.876713
58.620 31.752096
58.625 33.25988
58.630 34.619881
58.635 35.151192
58.640 36.001995
58.645 36.074665
58.650 36.857819
58.655 36.796391
58.660 36.219006
58.665 35.696602
58.670 36.150341
58.675 36.895435
58.680 37.48156
58.685 37.361629
58.690 37.811665
58.695 38.434143
58.700 37.927689
58.705 37.320099
58.710 36.203087
58.715 35.914467
58.720 35.450035
58.725 35.350552
58.730 35.469868
58.735 36.531925
58.740 36.787678
58.745 36.669476
58.750 36.789455
58.755 36.553684
58.760 36.320595
58.765 35.653992
58.770 35.539188
58.775 34.820381
58.780 34.480476
58.785 33.825222
58.790 34.069202
58.795 33.536198
58.800 32.927193
58.805 31.821438
58.810 31.997036
58.815 31.765491
58.820 31.242683
58.825 30.432022
58.830 29.628117
58.835 28.251093
58.840 27.49262
58.845 26.799877
58.850 26.634071
58.855 26.062963
58.860 25.887529
58.865 25.993496
58.870 25.534088
58.875 25.9737
58.880 25.619596
58.885 24.955591
58.890 24.925545
58.895 24.356792
58.900 23.98369
58.905 24.49127
58.910 24.233055
58.915 23.733229
58.920 23.851774
58.925 23.427824
58.930 23.64637
58.935 23.126682
58.940 22.202045
58.945 21.834116
58.950 21.488214
58.955 20.678209
58.960 20.857346
58.965 20.506397
58.970 20.424213
58.975 20.134975
58.980 19.809248
58.985 19.585941
58.990 20.141476
58.995 19.979544
59.000 20.099834
59.005 20.816717
59.010 20.762138
59.015 20.523602
59.020 20.528559
59.025 20.03067
59.030 19.849936
59.035 19.36445
59.040 18.724009
59.045 18.301008
59.050 17.650576
59.055 17.270918
59.060 17.353273
59.065 17.472281
59.070 17.82202
59.075 17.485029
59.080 16.959074
59.085 17.130175
59.090 17.25592
59.095 17.007273
59.100 16.506319
59.105 16.564991
59.110 16.153885
59.115 16.25646
59.120 15.8378
59.125 15.626629
59.130 16.017019
59.135 16.269375
59.140 15.95925
59.145 16.092258
59.150 15.691077
59.155 15.820236
59.160 15.928535
59.165 15.091475
59.170 14.596107
59.175 13.819534
59.180 13.554755
59.185 14.305152
59.190 14.578908
59.195 14.27001
59.200 14.215988
59.205 14.616102
59.210 15.193961
59.215 15.776762
59.220 15.443952
59.225 15.452658
59.230 15.806334
59.235 15.906199
59.240 15.740906
59.245 15.658844
59.250 15.693487
59.255 15.765795
59.260 15.246798
59.265 14.881981
59.270 14.683122
59.275 14.864754
59.280 14.859864
59.285 14.414854
59.290 14.387792
59.295 14.374411
59.300 14.724626
59.305 15.003959
59.310 14.795702
59.315 14.701398
59.320 14.942371
59.325 15.152856
59.330 15.417069
59.335 15.487271
59.340 15.659161
59.345 16.093565
59.350 16.067978
59.355 16.398798
59.360 15.773822
59.365 15.531997
59.370 15.241658
59.375 15.316526
59.380 15.078646
59.385 14.879723
59.390 15.289787
59.395 15.62681
59.400 15.587736
59.405 15.056952
59.410 14.583004
59.415 14.619483
59.420 14.093455
59.425 13.07684
59.430 13.311425
59.435 13.598289
59.440 14.097712
59.445 14.286487
59.450 14.747924
59.455 15.455097
59.460 15.869244
59.465 15.532862
59.470 15.228349
59.475 14.846633
59.480 14.913672
59.485 14.742396
59.490 14.272039
59.495 14.001863
59.500 13.977315
59.505 13.686415
59.510 13.806149
59.515 13.284554
59.520 12.745475
59.525 12.978964
59.530 12.904662
59.535 13.297983
59.540 13.982969
59.545 14.235021
59.550 14.695543
59.555 15.064245
59.560 15.074691
59.565 15.513306
59.570 15.591497
59.575 15.196596
59.580 14.720883
59.585 14.478041
59.590 14.281437
59.595 14.12536
59.600 13.784603
59.605 13.321912
59.610 13.707798
59.615 14.569697
59.620 14.891173
59.625 15.108936
59.630 15.571437
59.635 16.359739
59.640 16.042519
59.645 15.844509
59.650 15.918519
59.655 15.385986
59.660 15.239725
59.665 14.801149
59.670 14.137832
59.675 14.480828
59.680 14.476531
59.685 13.998864
59.690 14.373892
59.695 14.480409
59.700 14.406041
59.705 14.723526
59.710 14.809186
59.715 14.850503
59.720 14.682316
59.725 14.363989
59.730 13.550146
59.735 13.638647
59.740 13.910861
59.745 14.008294
59.750 14.124023
59.755 14.143229
59.760 14.501009
59.765 15.245621
59.770 14.890106
59.775 14.500177
59.780 14.238538
59.785 14.068025
59.790 14.171249
59.795 14.117793
59.800 14.491729
59.805 15.047143
59.810 15.331402
59.815 15.552769
59.820 15.947664
59.825 16.334009
59.830 16.32041
59.835 16.218452
59.840 16.177214
59.845 16.396032
59.850 16.353842
59.855 16.02762
59.860 15.53494
59.865 15.740904
59.870 15.616374
59.875 15.575675
59.880 15.537989
59.885 15.333108
59.890 15.706691
59.895 15.600165
59.900 15.827587
59.905 15.517012
59.910 14.942466
59.915 14.23111
59.920 13.891481
59.925 13.973612
59.930 13.952594
59.935 13.566612
59.940 13.784964
59.945 14.880598
59.950 14.948529
59.955 15.183798
59.960 14.789534
59.965 15.131314
59.970 14.997528
59.975 14.466223
59.980 14.059126
59.985 14.636834
59.990 14.918279
59.995 14.837819
60.000 14.50293
60.005 14.808837
60.010 15.033092
60.015 15.144095
60.020 14.642289
60.025 14.704502
60.030 15.193875
60.035 15.066325
60.040 15.28532
60.045 15.628975
60.050 15.381804
60.055 15.472742
60.060 14.687687
60.065 14.227689
60.070 14.087568
60.075 13.629366
60.080 13.575868
60.085 14.143568
60.090 13.760901
60.095 13.744151
60.100 13.922256
60.105 14.410903
60.110 14.429297
60.115 14.440912
60.120 14.543814
60.125 15.37749
60.130 15.668871
60.135 15.302671
60.140 15.158625
60.145 15.247219
60.150 15.348388
60.155 14.851315
60.160 14.771646
60.165 15.412915
60.170 16.157625
60.175 16.28997
60.180 16.495621
60.185 16.303959
60.190 16.186811
60.195 15.823185
60.200 15.360781
60.205 14.814112
60.210 14.640641
60.215 14.818817
60.220 15.101892
60.225 14.971339
60.230 15.173454
60.235 15.762678
60.240 16.556082
60.245 16.614084
60.250 16.138844
60.255 15.63122
60.260 15.409333
60.265 15.438079
60.270 15.21998
60.275 14.840281
60.280 14.821926
60.285 14.975708
60.290 15.481358
60.295 16.013439
60.300 16.150291
60.305 15.855962
60.310 15.815144
60.315 15.563126
60.320 15.58383
60.325 15.193115
60.330 14.491139
60.335 13.885579
60.340 13.637121
60.345 13.17511
60.350 13.140532
60.355 13.049596
60.360 13.520239
60.365 13.996936
60.370 13.947504
60.375 14.159037
60.380 14.6703
60.385 15.012134
60.390 15.034942
60.395 15.555511
60.400 15.919402
60.405 16.100685
60.410 15.824252
60.415 15.599622
60.420 15.402302
60.425 15.845274
60.430 15.856525
60.435 15.835548
60.440 15.65169
60.445 15.859154
60.450 15.984869
60.455 16.383226
60.460 16.247915
60.465 15.185667
60.470 14.706524
60.475 15.133827
60.480 15.403405
60.485 15.578796
60.490 15.257711
60.495 14.804843
60.500 14.517048
60.505 14.571185
60.510 14.362264
60.515 14.087213
60.520 13.728051
60.525 13.669108
60.530 13.715785
60.535 14.222758
60.540 14.513385
60.545 14.294785
60.550 13.959349
60.555 13.716076
60.560 13.65558
60.565 13.843369
60.570 13.648672
60.575 13.072999
60.580 13.204457
60.585 13.82771
60.590 14.401856
60.595 14.641809
60.600 14.789396
60.605 15.048615
60.610 15.612561
60.615 15.690745
60.620 15.572877
60.625 15.38751
60.630 14.841824
60.635 14.886129
60.640 14.643484
60.645 14.441906
60.650 14.749735
60.655 14.619205
60.660 14.618228
60.665 14.296845
60.670 14.298978
60.675 14.895116
60.680 15.193895
60.685 15.077185
60.690 15.127386
60.695 15.553701
60.700 15.963368
60.705 15.924742
60.710 15.75462
60.715 15.455639
60.720 15.4118
60.725 16.422523
60.730 16.667793
60.735 16.714931
60.740 16.744902
60.745 16.75082
60.750 16.676687
60.755 16.393978
60.760 15.33487
60.765 14.723739
60.770 14.57312
60.775 13.924397
60.780 13.467126
60.785 13.552464
60.790 13.80955
60.795 14.090794
60.800 14.232635
60.805 14.247917
60.810 14.801159
60.815 15.090927
60.820 15.028194
60.825 15.09816
60.830 15.04392
60.835 15.308495
60.840 15.312415
60.845 15.572104
60.850 15.671712
60.855 15.925988
60.860 15.404221
60.865 15.629425
60.870 15.731586
60.875 16.032028
60.880 15.649771
60.885 16.295824
60.890 15.829002
60.895 15.866377
60.900 16.08461
60.905 15.751945
60.910 16.04686
60.915 16.26198
60.920 15.900502
60.925 16.059731
60.930 15.950905
60.935 15.118947
60.940 15.216089
60.945 14.611768
60.950 14.396769
60.955 14.438699
60.960 14.530558
60.965 14.46991
60.970 14.938029
60.975 14.905651
60.980 14.892918
60.985 14.95368
60.990 14.771506
60.995 14.856032
61.000 15.401089
61.005 15.145953
61.010 15.228134
61.015 15.027041
61.020 14.867495
61.025 14.8377
61.030 14.381911
61.035 13.9119
61.040 13.5938
61.045 13.206987
61.050 13.626765
61.055 13.85599
61.060 13.722091
61.065 14.235084
61.070 14.409193
61.075 15.18905
61.080 15.69164
61.085 15.416916
61.090 15.194746
61.095 15.387941
61.100 15.55092
61.105 16.409901
61.110 16.390135
61.115 16.212622
61.120 16.428602
61.125 16.2255
61.130 16.014771
61.135 15.841771
61.140 15.514926
61.145 15.419123
61.150 15.613907
61.155 15.459816
61.160 16.094824
61.165 16.654037
61.170 16.819822
61.175 16.80971
61.180 16.577681
61.185 16.964596
61.190 17.353519
61.195 17.496456
61.200 18.098135
61.205 17.830482
61.210 17.96784
61.215 18.50491
61.220 18.965868
61.225 19.024227
61.230 18.440945
61.235 17.47522
61.240 17.394108
61.245 17.589973
61.250 17.416164
61.255 16.897902
61.260 17.280315
61.265 17.783497
61.270 18.142033
61.275 17.961586
61.280 17.151438
61.285 16.718687
61.290 16.741629
61.295 16.793392
61.300 16.477201
61.305 16.304174
61.310 16.375166
61.315 16.557959
61.320 17.138439
61.325 17.272341
61.330 16.526245
61.335 16.372181
61.340 15.95442
61.345 15.975394
61.350 16.160969
61.355 15.593366
61.360 15.030252
61.365 14.985677
61.370 15.059084
61.375 15.283728
61.380 15.408937
61.385 15.274232
61.390 15.252719
61.395 15.517194
61.400 15.833328
61.405 15.866663
61.410 15.618064
61.415 16.00351
61.420 16.252193
61.425 16.611595
61.430 16.721724
61.435 16.480742
61.440 16.683247
61.445 17.034863
61.450 16.6385
61.455 17.047985
61.460 17.148485
61.465 17.478842
61.470 17.468386
61.475 17.122141
61.480 16.881763
61.485 16.3018
61.490 15.057351
61.495 14.387281
61.500 13.675404
61.505 13.776995
61.510 14.068037
61.515 14.138348
61.520 14.443789
61.525 14.780619
61.530 14.852905
61.535 15.143656
61.540 15.317608
61.545 15.091092
61.550 15.306661
61.555 15.636359
61.560 15.947146
61.565 16.661249
61.570 16.929743
61.575 17.513121
61.580 18.260468
61.585 18.306908
61.590 18.056234
61.595 18.011751
61.600 17.834093
61.605 17.430729
61.610 17.229279
61.615 16.66995
61.620 16.208591
61.625 16.079109
61.630 15.771493
61.635 15.481606
61.640 15.283521
61.645 15.050352
61.650 15.156782
61.655 15.171386
61.660 15.712392
61.665 15.999316
61.670 15.723063
61.675 15.724111
61.680 15.858318
61.685 16.169485
61.690 16.101528
61.695 15.589801
61.700 15.514335
61.705 15.618748
61.710 15.443526
61.715 15.373558
61.720 15.073606
61.725 15.419219
61.730 15.800175
61.735 16.069332
61.740 16.265831
61.745 16.664963
61.750 16.373741
61.755 16.677261
61.760 16.138788
61.765 15.509991
61.770 15.272697
61.775 15.044442
61.780 15.041202
61.785 15.044395
61.790 14.657022
61.795 14.918841
61.800 14.990819
61.805 15.153249
61.810 15.310082
61.815 15.03808
61.820 15.457265
61.825 16.024473
61.830 16.310976
61.835 16.774994
61.840 16.814884
61.845 17.150927
61.850 17.725922
61.855 17.458261
61.860 16.945127
61.865 16.955723
61.870 16.904713
61.875 16.904139
61.880 16.730686
61.885 16.561592
61.890 16.596474
61.895 16.735806
61.900 16.849947
61.905 16.639973
61.910 16.339401
61.915 16.251318
61.920 15.807273
61.925 15.249392
61.930 15.4742
61.935 15.560668
61.940 16.308388
61.945 16.51746
61.950 16.453966
61.955 16.543848
61.960 16.933779
61.965 16.869373
61.970 16.833477
61.975 16.711763
61.980 16.620253
61.985 16.65136
61.990 16.866261
61.995 16.491907
62.000 16.568937
62.005 16.468496
62.010 15.751415
62.015 15.896458
62.020 16.16868
62.025 15.843913
62.030 15.921026
62.035 15.511668
62.040 15.244278
62.045 15.560641
62.050 15.691379
62.055 16.310377
62.060 16.298552
62.065 16.454554
62.070 16.311216
62.075 16.113125
62.080 16.049782
62.085 15.689412
62.090 15.051956
62.095 15.396757
62.100 15.432668
62.105 15.80665
62.110 16.104513
62.115 16.426044
62.120 16.426451
62.125 16.879711
62.130 17.348976
62.135 17.712507
62.140 17.76902
62.145 17.858839
62.150 17.646746
62.155 17.785248
62.160 17.500549
62.165 17.309059
62.170 17.34564
62.175 17.264606
62.180 17.230017
62.185 17.263632
62.190 17.170908
62.195 17.056643
62.200 16.922092
62.205 16.998236
62.210 16.996115
62.215 16.840878
62.220 16.851839
62.225 17.05061
62.230 16.914955
62.235 17.0331
62.240 16.841299
62.245 16.825666
62.250 17.08997
62.255 16.953131
62.260 16.850817
62.265 17.081116
62.270 16.404764
62.275 16.18148
62.280 15.904714
62.285 15.75559
62.290 15.902836
62.295 16.026234
62.300 16.415831
62.305 16.600538
62.310 16.87719
62.315 16.550087
62.320 16.326147
62.325 16.040056
62.330 15.103585
62.335 14.680634
62.340 14.738153
62.345 14.408622
62.350 14.190969
62.355 13.624669
62.360 13.801953
62.365 13.990707
62.370 13.399044
62.375 13.410004
62.380 14.105673
62.385 14.682879
62.390 15.841557
62.395 15.804683
62.400 16.420357
62.405 16.944576
62.410 17.267012
62.415 17.501532
62.420 17.592852
62.425 17.062109
62.430 16.904921
62.435 16.95208
62.440 17.010208
62.445 17.112303
62.450 17.233839
62.455 17.347013
62.460 17.647575
62.465 17.942034
62.470 17.780579
62.475 18.074789
62.480 17.586664
62.485 17.188673
62.490 17.676086
62.495 17.149494
62.500 16.615561
62.505 16.194929
62.510 16.079128
62.515 16.691595
62.520 16.664791
62.525 15.715376
62.530 15.463813
62.535 15.5772
62.540 16.013208
62.545 15.767916
62.550 15.016611
62.555 15.154763
62.560 15.693165
62.565 16.395899
62.570 16.403166
62.575 15.94324
62.580 15.476517
62.585 15.458722
62.590 15.253604
62.595 14.852212
62.600 15.160365
62.605 15.564117
62.610 15.69566
62.615 16.03812
62.620 16.083429
62.625 15.615322
62.630 16.038599
62.635 15.927232
62.640 15.418091
62.645 15.703425
62.650 15.5138
62.655 15.237756
62.660 15.46251
62.665 15.369571
62.670 15.284976
62.675 15.919109
62.680 16.079517
62.685 16.539637
62.690 17.54423
62.695 17.555351
62.700 17.15744
62.705 16.834021
62.710 16.339317
62.715 16.151762
62.720 16.154858
62.725 15.170605
62.730 15.551673
62.735 15.814922
62.740 15.840776
62.745 15.722607
62.750 15.39397
62.755 14.948342
62.760 15.359739
62.765 15.280579
62.770 14.774683
62.775 15.352307
62.780 15.488671
62.785 15.661648
62.790 16.061804
62.795 15.831816
62.800 16.434586
62.805 16.838196
62.810 16.387962
62.815 16.140549
62.820 15.831429
62.825 15.98265
62.830 15.981122
62.835 15.586562
62.840 15.698672
62.845 15.40738
62.850 15.405428
62.855 15.472816
62.860 14.855301
62.865 14.825788
62.870 14.314346
62.875 14.205549
62.880 14.633055
62.885 14.613461
62.890 14.955319
62.895 15.477685
62.900 16.408592
62.905 17.300861
62.910 17.079084
62.915 16.785357
62.920 17.122198
62.925 16.897844
62.930 16.50631
62.935 15.998066
62.940 15.589847
62.945 16.02158
62.950 16.546988
62.955 16.49621
62.960 16.741276
62.965 17.145418
62.970 17.023596
62.975 17.054493
62.980 16.66642
62.985 16.351679
62.990 16.567335
62.995 16.301443
63.000 16.020021
63.005 15.624643
63.010 15.227262
63.015 15.475892
63.020 15.23912
63.025 15.314882
63.030 15.546082
63.035 15.749933
63.040 15.567158
63.045 16.23946
63.050 16.793406
63.055 16.439262
63.060 16.262484
63.065 15.871019
63.070 15.822491
63.075 15.636219
63.080 15.348024
63.085 15.135592
63.090 15.699646
63.095 15.410796
63.100 15.520817
63.105 15.866699
63.110 16.88888
63.115 16.923672
63.120 16.956421
63.125 16.862387
63.130 16.902664
63.135 16.534758
63.140 15.922897
63.145 15.31896
63.150 15.659758
63.155 15.43234
63.160 16.277672
63.165 16.456972
63.170 16.830614
63.175 17.005583
63.180 17.366493
63.185 17.281628
63.190 17.279984
63.195 16.369104
63.200 16.493423
63.205 16.352211
63.210 16.762074
63.215 16.470495
63.220 16.170679
63.225 16.331711
63.230 16.378674
63.235 16.197504
63.240 16.258928
63.245 15.791056
63.250 16.134029
63.255 16.675817
63.260 16.386627
63.265 16.101772
63.270 15.944912
63.275 16.272522
63.280 16.354177
63.285 15.817267
63.290 15.510474
63.295 15.665228
63.300 16.188227
63.305 16.875294
63.310 17.041792
63.315 17.37005
63.320 17.696423
63.325 17.824203
63.330 17.820951
63.335 17.493549
63.340 16.787861
63.345 16.512392
63.350 16.296024
63.355 16.634066
63.360 16.961933
63.365 17.024193
63.370 17.2619
63.375 17.432663
63.380 17.844423
63.385 17.733868
63.390 17.731333
63.395 17.94043
63.400 18.450323
63.405 18.522114
63.410 18.50749
63.415 18.451143
63.420 18.625891
63.425 17.854086
63.430 17.103739
63.435 16.420792
63.440 16.556974
63.445 16.198286
63.450 16.520084
63.455 17.318954
63.460 18.205029
63.465 18.39138
63.470 18.854259
63.475 18.432161
63.480 18.441526
63.485 18.068987
63.490 17.920229
63.495 17.675739
63.500 17.39262
63.505 17.490309
63.510 18.245556
63.515 18.508148
63.520 18.498928
63.525 17.776558
63.530 18.057898
63.535 18.519112
63.540 18.199461
63.545 17.481649
63.550 17.181269
63.555 17.061102
63.560 17.035173
63.565 16.574533
63.570 16.915501
63.575 16.930309
63.580 17.03496
63.585 17.103333
63.590 17.218365
63.595 17.314487
63.600 16.844746
63.605 16.323408
63.610 16.986923
63.615 17.421211
63.620 17.629114
63.625 17.165398
63.630 17.548653
63.635 17.712404
63.640 17.510315
63.645 16.612175
63.650 16.429153
63.655 16.322941
63.660 16.956013
63.665 17.810675
63.670 19.005489
63.675 19.250237
63.680 19.397432
63.685 19.455185
63.690 19.321119
63.695 18.962206
63.700 18.239964
63.705 17.099768
63.710 17.314047
63.715 17.351608
63.720 17.428051
63.725 17.888165
63.730 18.130846
63.735 18.145025
63.740 18.501669
63.745 18.488741
63.750 18.655899
63.755 19.317152
63.760 18.912846
63.765 18.783384
63.770 18.700508
63.775 18.470955
63.780 18.513157
63.785 18.219061
63.790 17.502003
63.795 18.064945
63.800 18.142277
63.805 18.007442
63.810 17.613045
63.815 16.936781
63.820 16.838955
63.825 16.908455
63.830 16.62616
63.835 16.454279
63.840 16.987747
63.845 17.265053
63.850 17.762749
63.855 17.87718
63.860 17.655149
63.865 17.584696
63.870 17.510435
63.875 16.827301
63.880 16.553232
63.885 16.991869
63.890 17.101982
63.895 17.93265
63.900 18.289135
63.905 18.077822
63.910 17.901138
63.915 18.245127
63.920 17.982719
63.925 18.379002
63.930 18.413317
63.935 17.99461
63.940 18.019661
63.945 19.030302
63.950 19.68187
63.955 19.740351
63.960 19.521402
63.965 19.557766
63.970 20.395855
63.975 20.572985
63.980 20.02865
63.985 19.406096
63.990 18.887543
63.995 19.141485
64.000 18.751223
64.005 18.326651
64.010 18.785276
64.015 18.595324
64.020 18.758636
64.025 19.783905
64.030 20.157303
64.035 20.506193
64.040 20.723719
64.045 21.173176
64.050 22.482662
64.055 23.066074
64.060 22.579121
64.065 22.717249
64.070 23.260807
64.075 24.04686
64.080 23.388405
64.085 23.208567
64.090 23.232233
64.095 23.108986
64.100 23.102564
64.105 23.096348
64.110 23.418493
64.115 24.097137
64.120 23.884823
64.125 23.784273
64.130 24.142248
64.135 24.507385
64.140 24.565948
64.145 24.112347
64.150 23.764494
64.155 23.793217
64.160 24.596214
64.165 24.39933
64.170 23.89444
64.175 23.326971
64.180 23.442139
64.185 24.369673
64.190 25.037519
64.195 25.037874
64.200 25.86344
64.205 26.705372
64.210 27.751965
64.215 27.875576
64.220 28.088526
64.225 28.443758
64.230 29.155127
64.235 29.756229
64.240 29.464117
64.245 29.979815
64.250 30.678564
64.255 31.752579
64.260 31.912369
64.265 32.516117
64.270 33.202473
64.275 33.84927
64.280 34.265533
64.285 35.082336
64.290 35.244423
64.295 36.4403
64.300 36.812878
64.305 37.30555
64.310 37.677662
64.315 37.648891
64.320 37.585281
64.325 38.382034
64.330 39.129162
64.335 40.217281
64.340 40.637093
64.345 41.159393
64.350 41.771099
64.355 42.743435
64.360 44.471558
64.365 45.135521
64.370 44.993996
64.375 45.573692
64.380 46.667999
64.385 47.392685
64.390 47.618698
64.395 47.829788
64.400 48.418522
64.405 48.647583
64.410 48.900932
64.415 48.665771
64.420 49.071163
64.425 49.562172
64.430 49.177265
64.435 49.18367
64.440 50.161392
64.445 50.616131
64.450 50.083702
64.455 50.571648
64.460 50.283733
64.465 50.659893
64.470 50.180569
64.475 50.148613
64.480 49.868263
64.485 50.359982
64.490 49.817253
64.495 49.930038
64.500 50.347843
64.505 49.866749
64.510 49.001091
64.515 49.449726
64.520 49.263725
64.525 48.173859
64.530 47.217724
64.535 46.203152
64.540 45.640816
64.545 45.278133
64.550 44.648407
64.555 44.69643
64.560 44.786175
64.565 44.833454
64.570 44.375744
64.575 44.370449
64.580 43.898911
64.585 42.90451
64.590 41.68322
64.595 41.850552
64.600 41.136433
64.605 41.217316
64.610 41.677696
64.615 41.780106
64.620 42.476368
64.625 43.196739
64.630 42.128254
64.635 41.004787
64.640 40.139393
64.645 39.046707
64.650 37.395168
64.655 36.339043
64.660 35.686245
64.665 35.877636
64.670 35.806671
64.675 34.315434
64.680 33.69561
64.685 33.459602
64.690 32.699295
64.695 31.912441
64.700 31.55212
64.705 30.971531
64.710 30.735447
64.715 29.76055
64.720 28.977514
64.725 28.142178
64.730 27.463154
64.735 27.128662
64.740 26.825176
64.745 26.361446
64.750 26.160334
64.755 26.893837
64.760 27.874163
64.765 27.627115
64.770 26.792257
64.775 26.479063
64.780 26.218363
64.785 26.059418
64.790 25.164907
64.795 23.928532
64.800 23.290468
64.805 23.46867
64.810 23.900749
64.815 24.215635
64.820 24.1567
64.825 23.676292
64.830 23.90761
64.835 24.10512
64.840 23.767223
64.845 23.092955
64.850 22.625071
64.855 22.974361
64.860 23.397928
64.865 23.063999
64.870 23.397549
64.875 23.385183
64.880 23.983749
64.885 23.671038
64.890 23.171446
64.895 23.390232
64.900 24.038361
64.905 24.182661
64.910 24.298494
64.915 24.249306
64.920 24.319227
64.925 24.213345
64.930 24.178923
64.935 24.078636
64.940 24.724194
64.945 24.826183
64.950 24.203329
64.955 24.797384
64.960 26.113405
64.965 26.315456
64.970 26.1003
64.975 26.489687
64.980 26.992153
64.985 28.512869
64.990 29.154055
64.995 28.551891
65.000 28.665274
65.005 28.969238
65.010 28.361275
65.015 29.046482
65.020 29.556982
65.025 29.720646
65.030 29.605919
65.035 29.632236
65.040 29.664406
65.045 29.927742
65.050 29.841644
65.055 29.511202
65.060 29.791836
65.065 30.345505
65.070 31.359816
65.075 32.346416
65.080 32.686337
65.085 32.604511
65.090 33.401932
65.095 34.282734
65.100 35.49633
65.105 36.024334
65.110 35.83268
65.115 35.834339
65.120 36.22295
65.125 36.201935
65.130 36.960026
65.135 37.063927
65.140 37.369743
65.145 37.594501
65.150 37.346394
65.155 37.645111
65.160 38.132561
65.165 38.370434
65.170 38.726318
65.175 39.081608
65.180 39.676506
65.185 40.168121
65.190 39.977493
65.195 39.310207
65.200 38.252544
65.205 37.430599
65.210 36.950649
65.215 37.485886
65.220 38.352882
65.225 38.486237
65.230 39.703957
65.235 39.644135
65.240 39.689964
65.245 39.293659
65.250 38.643658
65.255 37.989075
65.260 38.390827
65.265 39.130974
65.270 39.429852
65.275 40.102745
65.280 40.705399
65.285 41.23082
65.290 41.887402
65.295 40.837761
65.300 39.28952
65.305 38.854713
65.310 38.223568
65.315 38.244946
65.320 38.028194
65.325 37.921024
65.330 38.348389
65.335 38.705757
65.340 39.593365
65.345 40.231983
65.350 40.468647
65.355 40.571121
65.360 40.066116
65.365 40.047424
65.370 41.385765
65.375 42.441605
65.380 42.673332
65.385 42.607342
65.390 43.201401
65.395 43.731754
65.400 43.672798
65.405 42.307411
65.410 41.705444
65.415 41.741436
65.420 41.275379
65.425 40.706486
65.430 40.78244
65.435 41.222881
65.440 41.374538
65.445 40.986568
65.450 40.201569
65.455 40.155128
65.460 39.744236
65.465 39.000561
65.470 38.635105
65.475 38.233299
65.480 38.750374
65.485 39.030651
65.490 39.331898
65.495 39.781937
65.500 40.973804
65.505 41.203899
65.510 42.069462
65.515 42.349117
65.520 42.378342
65.525 41.747444
65.530 41.388092
65.535 41.128483
65.540 41.265797
65.545 40.494061
65.550 39.26162
65.555 39.439171
65.560 40.530369
65.565 40.233509
65.570 39.839252
65.575 39.031322
65.580 39.834412
65.585 39.577572
65.590 38.564621
65.595 37.356026
65.600 37.974049
65.605 38.58316
65.610 38.3759
65.615 37.420433
65.620 37.824512
65.625 38.003448
65.630 37.638557
65.635 36.7458
65.640 35.703381
65.645 35.566044
65.650 35.029568
65.655 33.896114
65.660 34.241322
65.665 34.002777
65.670 33.543312
65.675 33.660728
65.680 32.52354
65.685 32.3671
65.690 32.499866
65.695 32.0835
65.700 32.057068
65.705 31.712677
65.710 31.591259
65.715 31.645378
65.720 30.748005
65.725 30.220776
65.730 29.79534
65.735 29.739944
65.740 29.548262
65.745 29.101358
65.750 29.49696
65.755 30.264301
65.760 30.550676
65.765 30.879423
65.770 30.437435
65.775 30.579409
65.780 30.953327
65.785 30.09
65.790 29.57513
65.795 29.410604
65.800 28.626549
65.805 28.668991
65.810 28.063734
65.815 27.354193
65.820 27.405151
65.825 27.269115
65.830 26.3599
65.835 25.83321
65.840 25.811928
65.845 25.478621
65.850 24.634783
65.855 23.817507
65.860 23.82065
65.865 23.873865
65.870 23.576876
65.875 23.272596
65.880 23.594145
65.885 23.845589
65.890 23.96887
65.895 23.400564
65.900 23.158392
65.905 23.38427
65.910 23.326523
65.915 23.166439
65.920 23.077444
65.925 22.181046
65.930 22.187086
65.935 22.849897
65.940 22.5292
65.945 21.894541
65.950 21.724098
65.955 21.331087
65.960 22.021057
65.965 21.637438
65.970 21.569817
65.975 21.918579
65.980 22.080179
65.985 22.198498
65.990 22.042938
65.995 21.658995
66.000 21.623495
66.005 21.073244
66.010 20.723516
66.015 20.145493
66.020 19.798838
66.025 20.262142
66.030 20.494286
66.035 19.884844
66.040 19.510775
66.045 19.691977
66.050 19.809158
66.055 19.615381
66.060 18.954319
66.065 18.496601
66.070 18.55105
66.075 18.188972
66.080 17.749456
66.085 17.855993
66.090 18.464571
66.095 18.467768
66.100 18.863775
66.105 18.490025
66.110 18.200268
66.115 18.407217
66.120 18.673153
66.125 18.617987
66.130 18.816467
66.135 18.943756
66.140 19.913359
66.145 20.303419
66.150 20.596064
66.155 20.512377
66.160 20.269003
66.165 20.07897
66.170 19.384092
66.175 18.297853
66.180 18.135887
66.185 17.916466
66.190 17.541925
66.195 17.391344
66.200 17.128271
66.205 17.218113
66.210 17.572483
66.215 17.648916
66.220 17.197149
66.225 17.189528
66.230 17.378817
66.235 17.136971
66.240 17.069315
66.245 17.278854
66.250 17.432457
66.255 17.626005
66.260 17.858229
66.265 17.670471
66.270 17.91917
66.275 18.41782
66.280 18.612785
66.285 18.602678
66.290 18.708336
66.295 18.408558
66.300 18.632925
66.305 18.928608
66.310 18.730797
66.315 19.120821
66.320 19.00732
66.325 18.765368
66.330 18.718903
66.335 18.544552
66.340 18.048397
66.345 17.907969
66.350 17.485334
66.355 17.913425
66.360 18.202507
66.365 18.471037
66.370 18.070187
66.375 17.941027
66.380 17.922636
66.385 17.656721
66.390 17.090109
66.395 17.019213
66.400 17.064062
66.405 17.482088
66.410 18.049604
66.415 17.814707
66.420 17.619551
66.425 18.126547
66.430 17.692638
66.435 17.586536
66.440 17.796413
66.445 17.952284
66.450 18.348595
66.455 18.497065
66.460 18.192518
66.465 18.602579
66.470 18.486795
66.475 18.206852
66.480 18.21307
66.485 18.633799
66.490 18.777765
66.495 18.662968
66.500 18.491365
66.505 18.672001
66.510 18.841869
66.515 19.00404
66.520 18.378199
66.525 17.924303
66.530 18.007694
66.535 18.180422
66.540 18.190317
66.545 17.919889
66.550 17.547216
66.555 17.484798
66.560 17.755793
66.565 17.630932
66.570 17.58946
66.575 17.273319
66.580 16.981844
66.585 16.845367
66.590 16.859539
66.595 16.713551
66.600 16.986591
66.605 17.074762
66.610 17.645338
66.615 17.831312
66.620 17.610617
66.625 18.098841
66.630 18.256048
66.635 18.404535
66.640 18.609514
66.645 18.638584
66.650 18.458212
66.655 19.003078
66.660 18.733971
66.665 18.813398
66.670 18.670815
66.675 18.058933
66.680 18.476809
66.685 19.057413
66.690 18.717009
66.695 18.586416
66.700 18.260286
66.705 18.274025
66.710 18.183443
66.715 17.480646
66.720 17.083532
66.725 17.492414
66.730 17.754179
66.735 18.106918
66.740 18.309444
66.745 18.371029
66.750 19.069769
66.755 18.886072
66.760 18.151114
66.765 18.181374
66.770 17.613918
66.775 17.207264
66.780 16.696964
66.785 16.224546
66.790 16.508615
66.795 17.086105
66.800 16.9596
66.805 17.384857
66.810 17.764381
66.815 18.128885
66.820 18.19804
66.825 18.207119
66.830 18.273418
66.835 18.530424
66.840 18.343803
66.845 18.360691
66.850 18.490816
66.855 18.219973
66.860 18.551697
66.865 18.401272
66.870 17.837698
66.875 17.614161
66.880 17.500301
66.885 17.325594
66.890 17.654858
66.895 17.69051
66.900 17.829462
66.905 18.813066
66.910 19.384018
66.915 19.398502
66.920 19.81905
66.925 19.982759
66.930 19.430805
66.935 19.398632
66.940 18.745218
66.945 18.522182
66.950 19.036512
66.955 18.721525
66.960 18.399925
66.965 18.412237
66.970 18.176628
66.975 17.930391
66.980 18.360096
66.985 18.231205
66.990 18.558891
66.995 19.239737
67.000 19.076073
67.005 19.064032
67.010 19.664585
67.015 18.990412
67.020 18.789557
67.025 18.237709
67.030 17.858337
67.035 18.115746
67.040 18.346399
67.045 18.195024
67.050 17.867828
67.055 18.218689
67.060 17.952641
67.065 17.943724
67.070 18.161032
67.075 18.302128
67.080 18.569958
67.085 18.002087
67.090 17.634577
67.095 17.703703
67.100 17.561924
67.105 17.22608
67.110 17.402517
67.115 16.97213
67.120 17.982912
67.125 18.396904
67.130 18.646399
67.135 18.633772
67.140 18.750238
67.145 18.514853
67.150 18.78002
67.155 18.439013
67.160 18.229559
67.165 18.424229
67.170 18.479921
67.175 18.643265
67.180 18.598005
67.185 18.506557
67.190 18.417391
67.195 18.514555
67.200 18.338791
67.205 18.293766
67.210 17.357807
67.215 17.259867
67.220 17.625492
67.225 17.883745
67.230 17.772701
67.235 17.859158
67.240 17.402769
67.245 18.12464
67.250 18.208172
67.255 17.612679
67.260 18.192476
67.265 18.178196
67.270 18.548225
67.275 18.975695
67.280 18.573921
67.285 18.794397
67.290 18.986782
67.295 18.105368
67.300 18.322159
67.305 18.544075
67.310 18.3967
67.315 18.293276
67.320 18.284763
67.325 17.846426
67.330 17.48336
67.335 17.083746
67.340 16.459705
67.345 16.798923
67.350 17.330133
67.355 17.165178
67.360 18.044916
67.365 18.840267
67.370 18.948994
67.375 19.239929
67.380 19.044352
67.385 18.932156
67.390 19.622192
67.395 20.025715
67.400 19.700369
67.405 19.62114
67.410 19.555922
67.415 19.760273
67.420 19.680822
67.425 19.243782
67.430 18.713619
67.435 18.478622
67.440 18.457098
67.445 18.843931
67.450 18.791452
67.455 18.047495
67.460 17.537226
67.465 17.741594
67.470 17.819334
67.475 17.721157
67.480 17.874422
67.485 17.649361
67.490 17.749542
67.495 17.865128
67.500 17.804712
67.505 17.717842
67.510 17.617323
67.515 16.701103
67.520 16.981644
67.525 16.906109
67.530 16.954458
67.535 17.564638
67.540 18.050316
67.545 18.449881
67.550 18.265305
67.555 18.209192
67.560 18.438879
67.565 17.917517
67.570 17.310768
67.575 16.925304
67.580 16.609079
67.585 17.058769
67.590 17.541872
67.595 17.207624
67.600 17.723598
67.605 17.716434
67.610 18.051498
67.615 18.438044
67.620 18.913527
67.625 18.890251
67.630 19.443098
67.635 19.752987
67.640 20.064924
67.645 20.122934
67.650 20.466812
67.655 19.993908
67.660 19.989853
67.665 20.464378
67.670 20.295757
67.675 19.465948
67.680 18.938286
67.685 18.739504
67.690 18.38452
67.695 18.012804
67.700 17.402887
67.705 17.196369
67.710 16.900177
67.715 16.461851
67.720 16.404589
67.725 16.572437
67.730 16.442635
67.735 15.84691
67.740 15.982564
67.745 16.621195
67.750 16.51412
67.755 16.394121
67.760 16.898869
67.765 17.883076
67.770 18.883646
67.775 19.293108
67.780 19.586317
67.785 20.067993
67.790 20.099182
67.795 19.99432
67.800 19.451799
67.805 19.016619
67.810 18.760302
67.815 18.210169
67.820 18.451521
67.825 18.190414
67.830 18.316973
67.835 18.371502
67.840 18.330528
67.845 18.457802
67.850 18.702852
67.855 18.400486
67.860 18.610216
67.865 18.372639
67.870 18.367504
67.875 18.527925
67.880 18.735006
67.885 18.84285
67.890 19.113813
67.895 19.096003
67.900 19.471794
67.905 19.534157
67.910 19.772148
67.915 20.072351
67.920 20.155428
67.925 20.285707
67.930 20.519611
67.935 20.517883
67.940 20.65274
67.945 20.399937
67.950 20.02387
67.955 19.805313
67.960 19.410667
67.965 19.021488
67.970 18.765118
67.975 18.500185
67.980 18.528294
67.985 18.344486
67.990 18.860975
67.995 18.995983
68.000 18.993858
68.005 18.885973
68.010 19.039339
68.015 19.178101
68.020 19.210379
68.025 18.910837
68.030 19.066946
68.035 19.435726
68.040 18.92255
68.045 18.884369
68.050 18.632286
68.055 18.613895
68.060 18.317636
68.065 18.170794
68.070 17.386545
68.075 17.295849
68.080 17.094986
68.085 17.438812
68.090 17.358999
68.095 17.453001
68.100 17.299637
68.105 18.741156
68.110 19.253803
68.115 19.103374
68.120 19.02953
68.125 19.777617
68.130 19.962631
68.135 19.870138
68.140 19.121288
68.145 18.799412
68.150 19.189293
68.155 19.481897
68.160 19.414585
68.165 19.676115
68.170 20.024281
68.175 20.216452
68.180 20.438457
68.185 19.907541
68.190 20.042236
68.195 19.341835
68.200 19.012447
68.205 19.53372
68.210 19.916372
68.215 20.823246
68.220 21.558802
68.225 22.210155
68.230 22.592752
68.235 23.162884
68.240 23.047396
68.245 23.298733
68.250 22.837248
68.255 22.110716
68.260 21.170671
68.265 21.54768
68.270 21.788897
68.275 22.057526
68.280 22.273464
68.285 23.042599
68.290 23.742432
68.295 24.351549
68.300 24.452587
68.305 24.114157
68.310 23.833252
68.315 24.201893
68.320 24.039072
68.325 24.419769
68.330 24.760666
68.335 25.098629
68.340 25.642906
68.345 25.841846
68.350 26.050522
68.355 26.277449
68.360 25.720638
68.365 25.256187
68.370 25.008221
68.375 24.946127
68.380 25.386131
68.385 25.883436
68.390 27.094257
68.395 27.502691
68.400 27.420973
68.405 27.709198
68.410 27.939156
68.415 28.541065
68.420 29.033834
68.425 28.803501
68.430 29.19849
68.435 29.6842
68.440 30.282213
68.445 30.181747
68.450 30.335691
68.455 31.014166
68.460 31.60364
68.465 32.075691
68.470 32.499172
68.475 32.986141
68.480 33.426083
68.485 32.92897
68.490 32.318409
68.495 31.836489
68.500 31.801895
68.505 32.063995
68.510 31.932549
68.515 32.241016
68.520 32.10178
68.525 31.805967
68.530 32.104652
68.535 32.273018
68.540 32.403694
68.545 32.351349
68.550 31.899633
68.555 32.430439
68.560 33.548042
68.565 33.921459
68.570 33.663342
68.575 33.379387
68.580 33.773144
68.585 34.155857
68.590 34.196804
68.595 33.809521
68.600 34.323647
68.605 35.008572
68.610 36.05143
68.615 36.795605
68.620 37.129299
68.625 37.466297
68.630 37.774822
68.635 37.881691
68.640 37.637978
68.645 37.723061
68.650 37.646778
68.655 38.093964
68.660 38.205315
68.665 37.595932
68.670 37.930954
68.675 37.774963
68.680 37.403332
68.685 36.803299
68.690 36.122856
68.695 35.929852
68.700 35.609352
68.705 34.819317
68.710 34.28783
68.715 33.884556
68.720 34.113564
68.725 34.355984
68.730 34.972122
68.735 35.204655
68.740 35.880489
68.745 36.531136
68.750 37.276901
68.755 37.611332
68.760 37.418262
68.765 36.941383
68.770 37.779812
68.775 37.372242
68.780 36.50745
68.785 35.660469
68.790 34.389236
68.795 33.89085
68.800 33.470547
68.805 32.200462
68.810 31.665787
68.815 31.722893
68.820 31.308867
68.825 31.748785
68.830 32.959934
68.835 33.011768
68.840 33.154625
68.845 33.895054
68.850 34.294086
68.855 35.124363
68.860 35.172676
68.865 34.5158
68.870 34.447838
68.875 34.138462
68.880 32.9758
68.885 32.598328
68.890 31.972414
68.895 31.587164
68.900 31.254927
68.905 31.285105
68.910 31.031738
68.915 31.075863
68.920 30.576586
68.925 30.366114
68.930 29.744888
68.935 29.240149
68.940 29.185457
68.945 29.56687
68.950 29.933544
68.955 30.223778
68.960 30.077534
68.965 30.571184
68.970 30.499157
68.975 30.152128
68.980 30.008078
68.985 29.839525
68.990 29.011227
68.995 28.892941
69.000 28.570629
69.005 28.350126
69.010 28.295485
69.015 27.150982
69.020 26.932755
69.025 27.121634
69.030 26.724085
69.035 26.450788
69.040 26.053013
69.045 25.554054
69.050 25.843838
69.055 26.209394
69.060 26.858564
69.065 27.537579
69.070 26.716202
69.075 26.639097
69.080 26.757524
69.085 26.248039
69.090 25.865379
69.095 25.545492
69.100 26.104069
69.105 26.633566
69.110 26.091745
69.115 25.465094
69.120 25.236181
69.125 24.848305
69.130 23.846352
69.135 22.584215
69.140 22.08774
69.145 22.462795
69.150 22.684229
69.155 23.049236
69.160 23.368473
69.165 23.490557
69.170 23.338161
69.175 22.799213
69.180 22.577864
69.185 22.615835
69.190 22.183275
69.195 21.702129
69.200 21.823336
69.205 21.979752
69.210 22.665148
69.215 23.044226
69.220 22.681129
69.225 22.649723
69.230 22.833244
69.235 22.276262
69.240 21.862804
69.245 20.531124
69.250 19.620903
69.255 18.974331
69.260 18.271349
69.265 17.572634
69.270 17.694078
69.275 18.054426
69.280 18.760977
69.285 19.021074
69.290 19.345987
69.295 19.571121
69.300 19.739941
69.305 19.459597
69.310 19.031395
69.315 18.750109
69.320 18.804686
69.325 18.918144
69.330 19.239479
69.335 18.979271
69.340 19.371166
69.345 19.536373
69.350 19.10725
69.355 18.90517
69.360 19.188652
69.365 19.497345
69.370 19.674822
69.375 19.305046
69.380 19.198689
69.385 19.684752
69.390 19.15988
69.395 18.420811
69.400 18.026249
69.405 17.723265
69.410 18.064806
69.415 18.210318
69.420 18.13365
69.425 18.899988
69.430 19.285883
69.435 19.462513
69.440 19.822346
69.445 19.318933
69.450 19.57184
69.455 19.551477
69.460 19.124392
69.465 19.411488
69.470 19.792456
69.475 19.682577
69.480 19.697222
69.485 19.447851
69.490 19.675871
69.495 19.699492
69.500 19.566711
69.505 19.404459
69.510 19.789423
69.515 20.207592
69.520 20.061863
69.525 20.081829
69.530 19.730013
69.535 19.427053
69.540 19.18935
69.545 18.807304
69.550 18.765453
69.555 18.633902
69.560 18.649071
69.565 18.906733
69.570 18.745857
69.575 18.182949
69.580 17.472166
69.585 16.960264
69.590 16.376356
69.595 16.096548
69.600 15.90983
69.605 15.921019
69.610 16.056574
69.615 16.683403
69.620 17.233414
69.625 17.344328
69.630 17.736376
69.635 17.362616
69.640 17.440067
69.645 17.465132
69.650 17.29858
69.655 17.385344
69.660 17.174255
69.665 17.238916
69.670 17.980543
69.675 18.177523
69.680 18.440916
69.685 18.533731
69.690 18.816502
69.695 19.417934
69.700 19.411604
69.705 19.43874
69.710 19.54656
69.715 18.759933
69.720 18.590675
69.725 18.572798
69.730 18.901684
69.735 18.960327
69.740 18.871374
69.745 18.992722
69.750 19.722076
69.755 20.065399
69.760 19.659233
69.765 19.067335
69.770 18.892591
69.775 18.192356
69.780 18.212723
69.785 18.202362
69.790 18.260607
69.795 18.099421
69.800 18.078026
69.805 17.996323
69.810 18.023769
69.815 18.166931
69.820 17.789282
69.825 17.395409
69.830 18.126328
69.835 18.091745
69.840 18.399042
69.845 18.477867
69.850 18.058613
69.855 18.458393
69.860 18.317642
69.865 17.856188
69.870 17.949396
69.875 18.047115
69.880 17.87171
69.885 18.133339
69.890 18.223526
69.895 18.725389
69.900 18.772511
69.905 18.818634
69.910 18.8458
69.915 18.541481
69.920 18.01236
69.925 17.788591
69.930 17.310812
69.935 18.068275
69.940 18.175028
69.945 18.432877
69.950 19.65925
69.955 20.046581
69.960 20.027496
69.965 20.105034
69.970 19.318943
69.975 18.361897
69.980 18.050659
69.985 17.564541
69.990 17.715517
69.995 17.939602
70.000 17.704597
70.005 17.896935
70.010 18.094103
70.015 17.319643
70.020 17.280144
70.025 16.742695
70.030 17.000713
70.035 16.661465
70.040 16.535633
70.045 16.813469
70.050 16.932875
70.055 16.557777
70.060 16.604612
70.065 16.984892
70.070 17.603706
70.075 17.694983
70.080 17.547857
70.085 17.924688
70.090 17.981186
70.095 17.619408
70.100 17.038477
70.105 16.76226
70.110 16.386065
70.115 16.509893
70.120 16.986986
70.125 17.371296
70.130 17.241081
70.135 17.317646
70.140 17.643084
70.145 18.417009
70.150 18.716143
70.155 18.36025
70.160 18.150318
70.165 18.78495
70.170 18.785164
70.175 18.554525
70.180 18.094858
70.185 17.670053
70.190 17.660511
70.195 18.006706
70.200 17.51543
70.205 17.477325
70.210 17.67617
70.215 18.434742
70.220 18.947157
70.225 18.519882
70.230 18.359156
70.235 18.402342
70.240 17.985115
70.245 17.57976
70.250 17.476303
70.255 17.397095
70.260 17.768702
70.265 18.436459
70.270 18.698629
70.275 19.649765
70.280 19.853716
70.285 20.231403
70.290 20.603052
70.295 20.487951
70.300 19.64691
70.305 19.216497
70.310 18.633471
70.315 18.601835
70.320 17.78755
70.325 17.191591
70.330 17.574215
70.335 17.778257
70.340 18.119677
70.345 17.821459
70.350 17.277893
70.355 17.585285
70.360 18.33934
70.365 18.404419
70.370 18.752953
70.375 18.23385
70.380 18.990524
70.385 19.690632
70.390 19.190838
70.395 18.611532
70.400 18.239525
70.405 18.0814
70.410 18.66913
70.415 18.169308
70.420 17.759094
70.425 18.081587
70.430 18.394423
70.435 18.65897
70.440 18.763927
70.445 18.358717
70.450 18.138693
70.455 18.644621
70.460 18.856083
70.465 18.774364
70.470 18.506792
70.475 18.301762
70.480 18.513176
70.485 19.544525
70.490 19.23097
70.495 18.7251
70.500 18.442001
70.505 18.022261
70.510 17.684824
70.515 17.790171
70.520 16.360666
70.525 15.943278
70.530 16.614416
70.535 16.399015
70.540 16.783175
70.545 17.197231
70.550 17.34124
70.555 17.921492
70.560 18.026989
70.565 17.289568
70.570 17.475677
70.575 17.32233
70.580 16.760477
70.585 15.962437
70.590 15.820191
70.595 15.535745
70.600 15.697623
70.605 15.83709
70.610 15.545508
70.615 16.742353
70.620 17.376301
70.625 17.54393
70.630 17.573832
70.635 17.621828
70.640 17.393452
70.645 17.537697
70.650 16.417282
70.655 16.848108
70.660 17.769552
70.665 18.051508
70.670 18.484436
70.675 18.802296
70.680 19.268896
70.685 20.083879
70.690 19.546537
70.695 19.575138
70.700 19.458498
70.705 19.308046
70.710 19.501507
70.715 18.955975
70.720 18.344973
70.725 17.476851
70.730 17.112146
70.735 16.863783
70.740 16.621708
70.745 16.236691
70.750 15.64678
70.755 16.051792
70.760 16.772625
70.765 17.321283
70.770 17.359961
70.775 17.79648
70.780 18.363909
70.785 18.551449
70.790 18.4331
70.795 18.12821
70.800 17.343567
70.805 16.993689
70.810 16.388311
70.815 16.565493
70.820 17.700809
70.825 17.867035
70.830 18.218166
70.835 18.850655
70.840 19.454668
70.845 19.539244
70.850 19.41991
70.855 19.884195
70.860 20.356237
70.865 20.715645
70.870 20.709978
70.875 19.832113
70.880 19.645927
70.885 19.525932
70.890 18.734287
70.895 17.833555
70.900 17.415693
70.905 17.68659
70.910 17.696198
70.915 17.577112
70.920 16.882227
70.925 16.661892
70.930 16.372274
70.935 16.37088
70.940 16.434723
70.945 16.623171
70.950 16.605583
70.955 16.588619
70.960 16.664549
70.965 16.817608
70.970 16.597467
70.975 16.739019
70.980 16.645889
70.985 16.342512
70.990 16.936415
70.995 16.901152
71.000 17.188404
71.005 17.612747
71.010 17.630964
71.015 18.185492
71.020 18.155634
71.025 18.028095
71.030 18.520016
71.035 18.525045
71.040 18.272964
71.045 18.265024
71.050 18.349073
71.055 18.144855
71.060 17.369154
71.065 17.278461
71.070 17.225454
71.075 17.024572
71.080 17.197899
71.085 17.391888
71.090 17.727198
71.095 17.858599
71.100 17.938154
71.105 17.821329
71.110 17.847603
71.115 17.319714
71.120 17.368366
71.125 17.615337
71.130 17.960716
71.135 18.203909
71.140 18.381027
71.145 18.440361
71.150 18.365643
71.155 18.416361
71.160 18.467093
71.165 17.823742
71.170 17.372683
71.175 16.76189
71.180 16.708282
71.185 16.790911
71.190 16.511494
71.195 16.087517
71.200 16.221252
71.205 16.893042
71.210 17.458689
71.215 17.183075
71.220 16.955667
71.225 17.079121
71.230 17.695431
71.235 17.873819
71.240 17.815029
71.245 18.219662
71.250 19.013597
71.255 19.540663
71.260 19.81855
71.265 19.797289
71.270 19.605381
71.275 19.046085
71.280 18.567221
71.285 18.08869
71.290 17.977314
71.295 17.572805
71.300 16.944418
71.305 17.388004
71.310 17.359982
71.315 17.225624
71.320 17.275713
71.325 17.521782
71.330 17.970924
71.335 18.062683
71.340 18.023476
71.345 18.073709
71.350 18.031485
71.355 17.792471
71.360 17.735044
71.365 17.528334
71.370 17.091444
71.375 17.540709
71.380 17.986994
71.385 18.044378
71.390 17.23522
71.395 16.819204
71.400 17.853094
71.405 18.144753
71.410 17.731495
71.415 17.629059
71.420 18.078196
71.425 19.092043
71.430 19.054472
71.435 18.541273
71.440 18.325642
71.445 18.085192
71.450 18.051777
71.455 18.347858
71.460 18.377514
71.465 18.129629
71.470 17.854883
71.475 18.429544
71.480 18.874664
71.485 18.993095
71.490 18.137659
71.495 18.009151
71.500 18.396238
71.505 18.40312
71.510 17.669819
71.515 17.376263
71.520 17.034924
71.525 17.416515
71.530 17.241642
71.535 17.250017
71.540 17.395733
71.545 17.505123
71.550 17.399754
71.555 17.659208
71.560 17.255249
71.565 17.104469
71.570 16.831667
71.575 16.885105
71.580 16.485163
71.585 16.334246
71.590 16.702974
71.595 17.100803
71.600 17.205187
71.605 17.515223
71.610 17.515581
71.615 17.855885
71.620 18.077656
71.625 17.610931
71.630 17.576756
71.635 17.512186
71.640 16.899971
71.645 17.1231
71.650 17.06539
71.655 16.916746
71.660 16.334328
71.665 15.806766
71.670 16.185867
71.675 16.645962
71.680 16.29932
71.685 16.274418
71.690 16.635006
71.695 17.234762
71.700 17.509987
71.705 17.558531
71.710 17.993996
71.715 18.345512
71.720 18.21282
71.725 17.861595
71.730 17.836863
71.735 17.34623
71.740 16.980471
71.745 16.464497
71.750 16.675753
71.755 16.752569
71.760 17.288347
71.765 17.374384
71.770 17.6679
71.775 17.436878
71.780 18.032944
71.785 17.797449
71.790 17.271954
71.795 16.908678
71.800 16.29892
71.805 15.275064
71.810 15.176621
71.815 14.977715
71.820 15.155582
71.825 15.179916
71.830 15.555191
71.835 16.334255
71.840 16.893934
71.845 17.022718
71.850 17.242294
71.855 17.424257
71.860 18.146099
71.865 18.193205
71.870 18.035904
71.875 18.041317
71.880 17.902086
71.885 17.842848
71.890 17.39842
71.895 16.266592
71.900 16.418266
71.905 16.508062
71.910 16.646345
71.915 16.674194
71.920 16.933933
71.925 17.782476
71.930 18.294819
71.935 18.080978
71.940 17.784447
71.945 17.120838
71.950 16.547602
71.955 16.275997
71.960 15.858986
71.965 15.592458
71.970 16.036154
71.975 16.374701
71.980 17.547121
71.985 17.847843
71.990 17.798519
71.995 18.045763
72.000 17.623903
72.005 17.07725
72.010 16.86097
72.015 16.225994
72.020 15.929632
72.025 15.871317
72.030 15.249959
72.035 15.963043
72.040 16.225916
72.045 16.428242
72.050 16.838814
72.055 17.084747
72.060 17.766001
72.065 18.444942
72.070 18.730476
72.075 18.777529
72.080 18.36141
72.085 18.517429
72.090 18.338028
72.095 18.069399
72.100 18.121927
72.105 18.610821
72.110 18.7687
72.115 18.79952
72.120 18.535744
72.125 18.565035
72.130 18.30018
72.135 17.576113
72.140 16.878149
72.145 17.135208
72.150 17.379633
72.155 17.400581
72.160 17.650469
72.165 17.928795
72.170 18.034367
72.175 18.547077
72.180 17.77824
72.185 17.708332
72.190 17.593271
72.195 17.352314
72.200 16.522873
72.205 16.375523
72.210 16.138186
72.215 15.921999
72.220 15.709634
72.225 16.132917
72.230 16.121058
72.235 16.279165
72.240 16.047794
72.245 16.983139
72.250 17.85685
72.255 17.495018
72.260 16.957642
72.265 17.298019
72.270 17.641939
72.275 17.221052
72.280 16.213978
72.285 15.732235
72.290 16.058365
72.295 16.584877
72.300 16.884758
72.305 16.938284
72.310 17.772261
72.315 18.695108
72.320 19.359194
72.325 19.005442
72.330 18.893625
72.335 18.81521
72.340 18.569866
72.345 18.274977
72.350 17.245853
72.355 17.132084
72.360 17.101831
72.365 16.659647
72.370 16.7612
72.375 17.105404
72.380 17.560133
72.385 17.655056
72.390 17.341124
72.395 17.327808
72.400 16.980946
72.405 16.611517
72.410 16.355396
72.415 16.010576
72.420 16.146584
72.425 15.771247
72.430 16.475805
72.435 16.690338
72.440 16.222982
72.445 15.826413
72.450 16.036667
72.455 16.712627
72.460 16.495401
72.465 16.45302
72.470 16.589241
72.475 16.790695
72.480 17.223181
72.485 16.657436
72.490 16.898884
72.495 17.222416
72.500 16.857513
72.505 17.479134
72.510 17.899712
72.515 17.976807
72.520 18.208241
72.525 18.413965
72.530 18.669794
72.535 18.87752
72.540 18.583759
72.545 18.510767
72.550 18.834763
72.555 18.654167
72.560 18.343632
72.565 17.884575
72.570 17.646152
72.575 17.478527
72.580 17.590729
72.585 17.672262
72.590 17.621372
72.595 17.914577
72.600 17.987057
72.605 17.938021
72.610 17.958851
72.615 17.776316
72.620 17.300621
72.625 16.873741
72.630 16.690943
72.635 16.592173
72.640 16.20163
72.645 16.415718
72.650 16.724117
72.655 16.631214
72.660 16.335609
72.665 16.49024
72.670 16.665106
72.675 16.816872
72.680 15.912301
72.685 15.691216
72.690 15.841869
72.695 16.139324
72.700 15.58442
72.705 15.875675
72.710 15.82489
72.715 16.009956
72.720 15.961168
72.725 15.46767
72.730 15.885135
72.735 15.619148
72.740 15.478872
72.745 15.796586
72.750 15.521556
72.755 15.934437
72.760 16.593878
72.765 16.65556
72.770 17.190641
72.775 17.130493
72.780 17.0686
72.785 17.251059
72.790 17.188351
72.795 16.27054
72.800 16.454863
72.805 16.078159
72.810 15.961122
72.815 16.134737
72.820 15.789017
72.825 15.809315
72.830 16.623463
72.835 16.8701
72.840 17.342487
72.845 17.238541
72.850 16.985844
72.855 17.530748
72.860 17.48065
72.865 16.791094
72.870 16.400883
72.875 16.199471
72.880 16.342127
72.885 16.615606
72.890 16.484053
72.895 16.477789
72.900 16.35128
72.905 16.506992
72.910 16.57353
72.915 16.45965
72.920 15.888659
72.925 15.405154
72.930 15.120573
72.935 15.853127
72.940 16.173258
72.945 16.526129
72.950 16.780756
72.955 17.389219
72.960 18.348051
72.965 18.287397
72.970 17.812901
72.975 17.84527
72.980 17.566172
72.985 17.581203
72.990 17.436596
72.995 17.262573
73.000 17.35988
