!@!!GADDS PLOTSO FILE: Chi integration type
!@!!Title/SampleName: map-17d
!@!!Comment: ?
!@!!User: Bruker Instrument Administrator
!@!!Site: University of Illinois Chicago
!@!!Frame: map-17d_01_000.gfrm
!@!!Wavelengths    1.54184   1.54056   1.54439
!@!!Frame angles: 2Theta: 63.000 Omega: 50.000 Phi: 0.000 Chi: 90.000
!@!!Integration range: 2Theta: 53.000 to 73.000  Gamma: -105.000 to -75.000
!@!!Integration method: bin normalized
!@!N
!@!SS
!@!M
!@!L 0.0 0.0 0.0 0.0
!@!XDegrees
!@!YCounts
53.000 7.974545
53.005 7.790065
53.010 7.964319
53.015 8.027208
53.020 7.956083
53.025 7.65712
53.030 7.75398
53.035 7.880761
53.040 7.75837
53.045 7.726664
53.050 7.5221
53.055 7.459355
53.060 8.228786
53.065 8.526249
53.070 8.866049
53.075 9.187436
53.080 9.240794
53.085 9.610065
53.090 9.981017
53.095 9.73938
53.100 9.59017
53.105 9.314483
53.110 9.095127
53.115 8.717055
53.120 8.897396
53.125 8.529631
53.130 7.94544
53.135 7.621911
53.140 7.565593
53.145 8.137892
53.150 7.903262
53.155 7.542048
53.160 7.828537
53.165 8.329411
53.170 8.588972
53.175 8.355477
53.180 8.337386
53.185 8.841075
53.190 9.128159
53.195 9.017385
53.200 9.033514
53.205 8.961477
53.210 9.000849
53.215 8.894496
53.220 8.862335
53.225 8.633631
53.230 8.491519
53.235 8.862613
53.240 8.719856
53.245 8.6756
53.250 8.505819
53.255 8.257495
53.260 8.421711
53.265 8.22512
53.270 8.303078
53.275 8.305025
53.280 8.128366
53.285 8.140895
53.290 8.043903
53.295 7.742905
53.300 7.809457
53.305 7.494553
53.310 7.554952
53.315 7.647652
53.320 7.526879
53.325 7.651365
53.330 7.993528
53.335 7.83978
53.340 8.203034
53.345 8.372949
53.350 8.552786
53.355 9.069763
53.360 9.051702
53.365 8.789331
53.370 8.773019
53.375 8.355335
53.380 8.704745
53.385 8.099006
53.390 8.123345
53.395 8.529028
53.400 8.994465
53.405 9.554973
53.410 9.867626
53.415 9.977571
53.420 10.01807
53.425 9.675488
53.430 9.214531
53.435 8.533154
53.440 8.207773
53.445 7.871339
53.450 7.430007
53.455 7.627586
53.460 7.948526
53.465 8.253422
53.470 8.637482
53.475 8.598995
53.480 8.738673
53.485 8.89896
53.490 9.095287
53.495 8.95185
53.500 8.821657
53.505 8.438768
53.510 8.747861
53.515 9.020164
53.520 8.918273
53.525 8.410755
53.530 8.887264
53.535 9.20239
53.540 9.531949
53.545 9.306024
53.550 9.579857
53.555 10.05994
53.560 10.02454
53.565 9.451097
53.570 9.133966
53.575 9.122406
53.580 8.685225
53.585 8.306518
53.590 8.070375
53.595 8.351827
53.600 8.700358
53.605 8.884141
53.610 9.081429
53.615 9.384318
53.620 9.82036
53.625 10.219662
53.630 10.509687
53.635 10.564308
53.640 10.272396
53.645 10.163087
53.650 10.206596
53.655 10.00487
53.660 9.707193
53.665 9.219417
53.670 8.741495
53.675 8.837424
53.680 8.819459
53.685 8.909181
53.690 8.991153
53.695 8.82734
53.700 9.225908
53.705 9.636414
53.710 9.60276
53.715 9.581918
53.720 9.671622
53.725 9.915236
53.730 10.109076
53.735 9.971037
53.740 9.804819
53.745 9.977218
53.750 9.828527
53.755 9.768984
53.760 9.646396
53.765 9.522231
53.770 9.795314
53.775 9.912119
53.780 10.14307
53.785 10.292598
53.790 9.905639
53.795 10.136782
53.800 10.438201
53.805 10.591741
53.810 10.928242
53.815 11.309793
53.820 11.120707
53.825 11.045809
53.830 11.277472
53.835 10.996229
53.840 10.790668
53.845 10.173903
53.850 9.437451
53.855 9.917027
53.860 10.046809
53.865 9.468849
53.870 9.316324
53.875 9.386479
53.880 9.516344
53.885 9.444445
53.890 9.527369
53.895 9.450867
53.900 9.590332
53.905 9.464799
53.910 9.061179
53.915 9.422176
53.920 9.55917
53.925 9.250216
53.930 9.34017
53.935 9.47123
53.940 9.814099
53.945 9.868937
53.950 9.919891
53.955 9.87286
53.960 9.817635
53.965 9.795051
53.970 9.723001
53.975 9.243749
53.980 9.536634
53.985 9.55552
53.990 9.497634
53.995 9.468368
54.000 9.419106
54.005 9.747005
54.010 10.076004
54.015 9.926399
54.020 9.64585
54.025 9.603575
54.030 9.52544
54.035 9.85656
54.040 9.920906
54.045 9.785046
54.050 9.744077
54.055 9.638514
54.060 9.827797
54.065 9.364455
54.070 8.818417
54.075 8.983677
54.080 9.287684
54.085 9.399574
54.090 9.438013
54.095 9.269941
54.100 9.566596
54.105 9.77357
54.110 9.690157
54.115 9.180916
54.120 9.018952
54.125 9.130416
54.130 9.221831
54.135 9.252339
54.140 8.934222
54.145 8.946593
54.150 9.284397
54.155 9.461843
54.160 9.713473
54.165 9.571078
54.170 9.189137
54.175 8.785717
54.180 8.387818
54.185 8.319535
54.190 8.991628
54.195 8.736111
54.200 8.771336
54.205 8.75018
54.210 9.243441
54.215 9.12549
54.220 8.683396
54.225 8.21321
54.230 8.47649
54.235 8.901256
54.240 8.927752
54.245 8.814799
54.250 9.128675
54.255 9.199253
54.260 9.552628
54.265 9.248222
54.270 9.044461
54.275 9.326032
54.280 9.641363
54.285 9.87935
54.290 10.071695
54.295 9.994189
54.300 10.668863
54.305 11.065987
54.310 11.116869
54.315 11.381864
54.320 11.436873
54.325 11.32112
54.330 11.189979
54.335 10.623773
54.340 10.6307
54.345 10.525328
54.350 10.263362
54.355 10.334374
54.360 10.504624
54.365 10.715673
54.370 10.493458
54.375 10.000698
54.380 9.971235
54.385 9.650117
54.390 9.408102
54.395 9.325057
54.400 9.424132
54.405 9.676056
54.410 10.111146
54.415 9.917877
54.420 10.247486
54.425 9.98187
54.430 9.706427
54.435 9.610206
54.440 9.771745
54.445 9.849676
54.450 9.83307
54.455 9.49043
54.460 9.856861
54.465 9.93655
54.470 9.377352
54.475 8.927668
54.480 8.603448
54.485 8.820635
54.490 9.187391
54.495 8.974869
54.500 9.129116
54.505 9.593961
54.510 9.692414
54.515 9.778374
54.520 9.738041
54.525 9.659443
54.530 10.020151
54.535 10.516309
54.540 10.378655
54.545 9.81874
54.550 9.921306
54.555 9.835931
54.560 9.663137
54.565 9.332588
54.570 8.81872
54.575 8.908183
54.580 9.605788
54.585 9.242357
54.590 8.983379
54.595 8.923882
54.600 8.683115
54.605 9.352587
54.610 9.607668
54.615 9.45635
54.620 9.869987
54.625 10.083858
54.630 10.067711
54.635 10.237465
54.640 9.76399
54.645 9.802198
54.650 9.866897
54.655 9.842957
54.660 10.075661
54.665 10.453776
54.670 10.246321
54.675 10.85577
54.680 11.476031
54.685 11.533474
54.690 11.996397
54.695 11.717152
54.700 11.538527
54.705 11.724464
54.710 10.922086
54.715 10.500271
54.720 10.538416
54.725 10.193999
54.730 10.158131
54.735 10.117474
54.740 10.331028
54.745 10.646002
54.750 10.173
54.755 9.873638
54.760 10.085156
54.765 10.190115
54.770 10.257807
54.775 10.406236
54.780 10.694718
54.785 11.246241
54.790 11.371021
54.795 11.253166
54.800 11.009969
54.805 10.805486
54.810 10.15796
54.815 10.168377
54.820 10.337232
54.825 10.393454
54.830 10.678538
54.835 10.671599
54.840 10.442492
54.845 10.72377
54.850 10.563719
54.855 10.057302
54.860 9.755548
54.865 9.707178
54.870 10.131149
54.875 10.366136
54.880 10.474195
54.885 10.456117
54.890 11.019435
54.895 11.465958
54.900 11.585693
54.905 11.782646
54.910 11.996153
54.915 12.170578
54.920 12.409716
54.925 12.077547
54.930 11.680702
54.935 11.029205
54.940 10.324081
54.945 9.976855
54.950 9.962437
54.955 9.894076
54.960 10.212574
54.965 10.3567
54.970 10.597845
54.975 10.842029
54.980 10.880723
54.985 11.350562
54.990 11.325659
54.995 11.492351
55.000 11.800934
55.005 11.47628
55.010 11.476427
55.015 11.140162
55.020 10.586686
55.025 10.43445
55.030 10.136438
55.035 10.372555
55.040 10.487769
55.045 10.397984
55.050 10.678864
55.055 11.120615
55.060 10.617771
55.065 10.22425
55.070 9.995759
55.075 10.364382
55.080 10.712598
55.085 10.198229
55.090 10.531689
55.095 11.911596
55.100 12.338618
55.105 12.555398
55.110 12.157766
55.115 11.801469
55.120 12.219137
55.125 11.440363
55.130 10.603456
55.135 10.468098
55.140 10.794522
55.145 10.905855
55.150 10.62184
55.155 10.494401
55.160 10.788147
55.165 10.761208
55.170 10.840122
55.175 10.930105
55.180 11.619325
55.185 11.947258
55.190 11.939498
55.195 11.822157
55.200 12.02008
55.205 11.889187
55.210 11.704637
55.215 11.547175
55.220 11.291128
55.225 11.196352
55.230 10.982131
55.235 10.837363
55.240 10.831667
55.245 11.028148
55.250 10.697082
55.255 10.33481
55.260 10.261002
55.265 10.37133
55.270 10.053908
55.275 9.716524
55.280 9.285577
55.285 9.363201
55.290 9.62009
55.295 10.10043
55.300 10.487267
55.305 10.622194
55.310 10.570943
55.315 10.671379
55.320 10.988038
55.325 10.57094
55.330 9.863477
55.335 9.671229
55.340 9.910663
55.345 10.250322
55.350 10.202301
55.355 10.348235
55.360 10.744609
55.365 11.169169
55.370 10.968498
55.375 10.514468
55.380 10.450416
55.385 10.879485
55.390 10.991449
55.395 11.217072
55.400 11.059367
55.405 11.352841
55.410 11.250824
55.415 11.006678
55.420 10.510393
55.425 10.593871
55.430 10.42739
55.435 10.19481
55.440 9.905693
55.445 9.87863
55.450 9.820885
55.455 9.636316
55.460 8.837817
55.465 8.822961
55.470 9.060163
55.475 9.49182
55.480 9.570967
55.485 9.874674
55.490 10.196591
55.495 10.101089
55.500 9.937792
55.505 9.792472
55.510 9.885215
55.515 9.903835
55.520 9.610036
55.525 9.64923
55.530 10.183063
55.535 10.509536
55.540 10.335014
55.545 10.578938
55.550 10.795016
55.555 10.935229
55.560 10.64799
55.565 10.162536
55.570 10.20273
55.575 10.281154
55.580 10.238897
55.585 10.61646
55.590 10.471436
55.595 10.711645
55.600 10.819989
55.605 10.921153
55.610 11.106394
55.615 10.838943
55.620 10.729882
55.625 11.039451
55.630 10.49881
55.635 10.385242
55.640 9.891974
55.645 9.342759
55.650 8.89929
55.655 8.673794
55.660 8.587412
55.665 9.047128
55.670 9.207383
55.675 9.66124
55.680 9.867579
55.685 9.796398
55.690 9.503282
55.695 9.288784
55.700 9.426097
55.705 9.84071
55.710 10.001801
55.715 10.376637
55.720 10.754638
55.725 11.1182
55.730 11.366259
55.735 11.198315
55.740 10.588592
55.745 10.436337
55.750 10.381218
55.755 10.51554
55.760 10.751407
55.765 11.066781
55.770 11.649965
55.775 11.940906
55.780 11.844067
55.785 12.283785
55.790 11.764367
55.795 11.510499
55.800 11.468871
55.805 11.305421
55.810 11.50925
55.815 11.32462
55.820 11.393783
55.825 11.642451
55.830 11.670481
55.835 11.49924
55.840 11.091561
55.845 11.071594
55.850 11.638595
55.855 11.975746
55.860 12.400496
55.865 12.417853
55.870 12.578017
55.875 12.473311
55.880 12.754165
55.885 12.68441
55.890 12.355501
55.895 12.517841
55.900 12.438288
55.905 12.477678
55.910 12.112854
55.915 11.54881
55.920 11.094546
55.925 10.610052
55.930 10.511513
55.935 10.39306
55.940 10.435555
55.945 10.366338
55.950 10.587994
55.955 10.97059
55.960 11.347637
55.965 11.335689
55.970 11.592713
55.975 12.32308
55.980 13.107774
55.985 12.917747
55.990 13.053226
55.995 13.265217
56.000 13.114846
56.005 12.564247
56.010 12.169815
56.015 11.605364
56.020 11.519074
56.025 10.913803
56.030 10.637132
56.035 10.853253
56.040 11.25232
56.045 11.291383
56.050 11.315664
56.055 11.296954
56.060 11.137182
56.065 11.090387
56.070 10.635463
56.075 10.35646
56.080 10.461066
56.085 10.672325
56.090 10.701771
56.095 10.974419
56.100 10.89371
56.105 11.125147
56.110 11.107675
56.115 11.127207
56.120 11.002041
56.125 11.318585
56.130 11.660216
56.135 11.467368
56.140 11.49692
56.145 11.425591
56.150 11.414715
56.155 11.469215
56.160 11.065621
56.165 10.789834
56.170 11.23769
56.175 11.260447
56.180 10.957793
56.185 10.795132
56.190 10.552663
56.195 10.583831
56.200 10.539151
56.205 10.103208
56.210 10.462297
56.215 10.909068
56.220 10.978165
56.225 11.462689
56.230 11.778163
56.235 11.739001
56.240 11.932423
56.245 11.730867
56.250 11.380626
56.255 11.187357
56.260 10.979764
56.265 11.159125
56.270 11.303642
56.275 11.309566
56.280 11.62539
56.285 12.028229
56.290 12.187336
56.295 12.143312
56.300 12.108819
56.305 12.405839
56.310 12.718472
56.315 12.350368
56.320 12.700283
56.325 12.732778
56.330 12.251958
56.335 12.156794
56.340 11.876125
56.345 11.810849
56.350 11.909515
56.355 11.707571
56.360 11.981511
56.365 12.315761
56.370 12.231514
56.375 12.018114
56.380 11.688983
56.385 11.430993
56.390 11.391576
56.395 11.33968
56.400 11.898956
56.405 12.501025
56.410 12.676334
56.415 12.830705
56.420 13.248969
56.425 13.250044
56.430 13.637089
56.435 13.155819
56.440 12.681947
56.445 12.535619
56.450 12.660388
56.455 12.23294
56.460 12.476325
56.465 11.850445
56.470 11.566965
56.475 12.03013
56.480 12.281343
56.485 12.420753
56.490 12.706738
56.495 13.132306
56.500 13.454978
56.505 13.227384
56.510 12.776495
56.515 12.956252
56.520 12.430127
56.525 12.280102
56.530 11.359168
56.535 11.11817
56.540 11.456303
56.545 11.621798
56.550 11.354359
56.555 11.284569
56.560 10.978909
56.565 11.449509
56.570 11.375869
56.575 11.321981
56.580 11.288915
56.585 11.429513
56.590 11.999382
56.595 12.330971
56.600 12.5539
56.605 12.66335
56.610 12.83779
56.615 12.685298
56.620 12.50987
56.625 12.092855
56.630 11.845302
56.635 12.037359
56.640 11.958667
56.645 11.906922
56.650 11.926515
56.655 11.888721
56.660 12.142834
56.665 12.472392
56.670 12.275737
56.675 12.17735
56.680 12.000017
56.685 12.178512
56.690 12.241395
56.695 12.274108
56.700 11.647508
56.705 11.893353
56.710 12.1017
56.715 12.000533
56.720 12.096248
56.725 11.878407
56.730 11.880809
56.735 12.341893
56.740 12.006148
56.745 12.195639
56.750 12.611177
56.755 12.53501
56.760 12.833794
56.765 12.76265
56.770 12.241184
56.775 12.097966
56.780 12.200414
56.785 12.26302
56.790 12.678774
56.795 12.777424
56.800 12.142497
56.805 12.287691
56.810 12.748161
56.815 12.545967
56.820 11.733882
56.825 11.109344
56.830 11.004112
56.835 11.690747
56.840 11.714067
56.845 11.253342
56.850 11.289458
56.855 11.770732
56.860 11.739087
56.865 11.741975
56.870 12.159619
56.875 12.163528
56.880 11.786372
56.885 11.329566
56.890 11.070595
56.895 10.960843
56.900 10.648088
56.905 10.456906
56.910 10.64098
56.915 11.050096
56.920 11.152642
56.925 11.280827
56.930 11.407447
56.935 11.560645
56.940 11.669991
56.945 11.461921
56.950 11.445094
56.955 12.0609
56.960 12.13704
56.965 12.323917
56.970 12.357985
56.975 12.068974
56.980 12.118286
56.985 11.714625
56.990 11.589905
56.995 11.755312
57.000 11.896621
57.005 11.549218
57.010 11.383431
57.015 11.948545
57.020 12.640338
57.025 12.612439
57.030 12.12244
57.035 11.552143
57.040 12.138284
57.045 11.88354
57.050 11.550714
57.055 11.64083
57.060 11.847987
57.065 12.491489
57.070 12.502462
57.075 12.215627
57.080 12.396023
57.085 12.127738
57.090 12.102103
57.095 12.231191
57.100 11.903041
57.105 11.988592
57.110 12.159591
57.115 12.268559
57.120 12.475065
57.125 12.007905
57.130 11.72982
57.135 12.214597
57.140 12.465123
57.145 12.242508
57.150 11.837715
57.155 11.336334
57.160 11.244343
57.165 11.285426
57.170 11.128078
57.175 11.386217
57.180 11.45928
57.185 11.798082
57.190 11.753041
57.195 11.65946
57.200 11.927873
57.205 11.918814
57.210 11.902717
57.215 11.924687
57.220 11.774328
57.225 12.140972
57.230 12.329477
57.235 12.677166
57.240 12.358511
57.245 12.080519
57.250 12.205928
57.255 12.243961
57.260 12.586427
57.265 12.435431
57.270 12.220633
57.275 12.229889
57.280 12.135672
57.285 12.04386
57.290 12.594756
57.295 12.57355
57.300 12.751282
57.305 12.868526
57.310 13.033995
57.315 13.018014
57.320 12.825802
57.325 12.886847
57.330 13.034352
57.335 13.070242
57.340 13.33964
57.345 13.490886
57.350 13.701231
57.355 14.062888
57.360 13.742604
57.365 13.59459
57.370 13.454177
57.375 13.112301
57.380 13.267581
57.385 13.211971
57.390 12.77978
57.395 12.326783
57.400 12.30713
57.405 12.420114
57.410 12.473948
57.415 12.06902
57.420 12.006843
57.425 11.947146
57.430 12.086528
57.435 11.777976
57.440 11.671268
57.445 11.428967
57.450 11.710313
57.455 12.30413
57.460 12.193143
57.465 12.501884
57.470 12.592875
57.475 12.409731
57.480 12.586751
57.485 12.585279
57.490 12.607599
57.495 13.220548
57.500 13.0734
57.505 13.515254
57.510 13.786042
57.515 14.077324
57.520 14.028115
57.525 13.750811
57.530 13.351088
57.535 13.110668
57.540 12.400232
57.545 12.175577
57.550 12.190071
57.555 12.479604
57.560 12.870102
57.565 13.182579
57.570 13.096824
57.575 13.08787
57.580 13.106311
57.585 12.761322
57.590 12.472133
57.595 12.166525
57.600 12.362549
57.605 12.274912
57.610 12.549221
57.615 12.535656
57.620 12.591678
57.625 12.577788
57.630 12.678551
57.635 12.299274
57.640 12.461293
57.645 12.101506
57.650 11.985083
57.655 12.004298
57.660 11.850021
57.665 11.700647
57.670 12.007574
57.675 12.652587
57.680 12.995979
57.685 13.30797
57.690 13.570775
57.695 13.921862
57.700 13.98471
57.705 14.010827
57.710 13.367515
57.715 13.297237
57.720 13.352774
57.725 13.379489
57.730 13.412154
57.735 13.786525
57.740 13.945585
57.745 14.275768
57.750 14.112036
57.755 14.048017
57.760 14.094829
57.765 13.779988
57.770 13.052355
57.775 12.648695
57.780 13.074932
57.785 13.810101
57.790 13.5123
57.795 13.138939
57.800 13.658413
57.805 14.063251
57.810 14.219189
57.815 13.864596
57.820 13.684322
57.825 13.844296
57.830 13.784501
57.835 13.497077
57.840 13.889542
57.845 14.00475
57.850 13.953106
57.855 13.761128
57.860 13.94111
57.865 13.628477
57.870 13.485612
57.875 13.659111
57.880 13.861414
57.885 13.495532
57.890 13.510261
57.895 13.147941
57.900 13.405852
57.905 13.210797
57.910 12.22357
57.915 11.932233
57.920 11.885065
57.925 11.683753
57.930 11.470732
57.935 11.618878
57.940 11.791719
57.945 11.662805
57.950 11.393189
57.955 11.423165
57.960 11.397328
57.965 11.881151
57.970 11.820964
57.975 12.189294
57.980 12.663164
57.985 13.072769
57.990 13.026732
57.995 13.108324
58.000 12.814718
58.005 13.033184
58.010 13.196981
58.015 13.271067
58.020 13.324633
58.025 13.863214
58.030 14.253406
58.035 14.559013
58.040 14.859904
58.045 14.985921
58.050 15.146339
58.055 15.093631
58.060 14.601934
58.065 14.002986
58.070 13.603665
58.075 12.52164
58.080 12.138144
58.085 11.893229
58.090 11.941793
58.095 11.739065
58.100 11.853338
58.105 12.083158
58.110 12.483294
58.115 12.820962
58.120 13.514976
58.125 13.888481
58.130 14.3399
58.135 14.587647
58.140 14.802179
58.145 15.137204
58.150 14.984533
58.155 14.100292
58.160 14.009401
58.165 13.67515
58.170 13.785757
58.175 13.454376
58.180 13.329303
58.185 12.900482
58.190 12.85417
58.195 12.852493
58.200 13.431112
58.205 13.898102
58.210 14.321974
58.215 14.705112
58.220 15.258588
58.225 15.464304
58.230 15.364728
58.235 15.479304
58.240 15.616709
58.245 15.846629
58.250 15.740713
58.255 16.210432
58.260 16.753342
58.265 16.887836
58.270 16.456709
58.275 16.524353
58.280 16.653028
58.285 16.889458
58.290 16.716944
58.295 17.008661
58.300 17.189806
58.305 17.718269
58.310 17.624758
58.315 18.094431
58.320 17.656084
58.325 17.43437
58.330 17.395563
58.335 17.57633
58.340 17.233116
58.345 17.139811
58.350 17.118258
58.355 17.941532
58.360 17.902323
58.365 17.887779
58.370 18.427935
58.375 18.287148
58.380 18.249678
58.385 18.233829
58.390 18.438299
58.395 18.674784
58.400 18.334179
58.405 17.56328
58.410 17.993814
58.415 18.591805
58.420 18.959858
58.425 19.131962
58.430 19.190701
58.435 19.774765
58.440 20.235434
58.445 20.450573
58.450 20.064627
58.455 20.206636
58.460 19.73321
58.465 19.606367
58.470 20.007898
58.475 19.956234
58.480 19.398243
58.485 19.261986
58.490 18.702343
58.495 19.1007
58.500 19.506628
58.505 19.293034
58.510 19.538696
58.515 19.862328
58.520 20.399656
58.525 20.588608
58.530 20.257977
58.535 20.316154
58.540 20.215052
58.545 19.638025
58.550 19.080906
58.555 18.703709
58.560 19.124773
58.565 19.862755
58.570 20.143568
58.575 20.434935
58.580 21.458965
58.585 22.40205
58.590 22.60729
58.595 22.175123
58.600 21.451097
58.605 21.286398
58.610 21.131908
58.615 20.688623
58.620 20.56826
58.625 20.213879
58.630 20.181152
58.635 20.273985
58.640 19.866585
58.645 19.691038
58.650 19.414249
58.655 18.764658
58.660 18.548994
58.665 18.806011
58.670 18.583309
58.675 18.248983
58.680 17.806673
58.685 18.325935
58.690 18.642824
58.695 19.26088
58.700 19.084269
58.705 18.857721
58.710 19.255602
58.715 19.176914
58.720 18.584663
58.725 17.907475
58.730 16.678801
58.735 16.407534
58.740 16.30785
58.745 15.950016
58.750 16.127304
58.755 16.317772
58.760 16.770546
58.765 16.996014
58.770 17.588808
58.775 18.287804
58.780 18.632942
58.785 18.129618
58.790 17.607857
58.795 17.55649
58.800 17.708099
58.805 17.509951
58.810 16.828787
58.815 16.802692
58.820 16.990719
58.825 16.977343
58.830 17.04874
58.835 17.100546
58.840 16.992481
58.845 17.306932
58.850 17.216646
58.855 17.357115
58.860 17.21487
58.865 17.114346
58.870 16.9252
58.875 16.553823
58.880 16.329144
58.885 16.347839
58.890 16.327452
58.895 16.234537
58.900 16.088442
58.905 15.260946
58.910 15.660607
58.915 16.209961
58.920 16.072081
58.925 15.827477
58.930 15.595516
58.935 15.93473
58.940 16.822952
58.945 16.392456
58.950 16.06341
58.955 15.809322
58.960 16.19545
58.965 16.287031
58.970 15.583096
58.975 14.858787
58.980 14.539909
58.985 14.19157
58.990 13.971574
58.995 14.115108
59.000 14.248036
59.005 15.231373
59.010 16.088476
59.015 15.970249
59.020 16.047932
59.025 16.139503
59.030 15.939628
59.035 15.579772
59.040 15.520582
59.045 15.318143
59.050 15.648155
59.055 15.009723
59.060 14.696093
59.065 14.729356
59.070 15.11453
59.075 14.974777
59.080 14.86937
59.085 15.296027
59.090 16.068886
59.095 16.462646
59.100 16.733763
59.105 16.344257
59.110 15.711384
59.115 14.673463
59.120 13.705419
59.125 13.471687
59.130 13.357065
59.135 13.30239
59.140 13.335325
59.145 13.390042
59.150 13.812995
59.155 14.559102
59.160 14.908885
59.165 15.130929
59.170 15.429882
59.175 15.807765
59.180 15.866998
59.185 15.903612
59.190 15.071634
59.195 14.823998
59.200 14.257637
59.205 13.621582
59.210 13.690074
59.215 13.525243
59.220 13.409664
59.225 14.009889
59.230 14.179599
59.235 14.754717
59.240 14.628619
59.245 14.084571
59.250 14.557734
59.255 14.494915
59.260 14.70222
59.265 14.51339
59.270 13.608135
59.275 13.697472
59.280 14.115077
59.285 13.802334
59.290 13.793988
59.295 13.810286
59.300 14.076155
59.305 14.903612
59.310 14.959378
59.315 14.827525
59.320 14.955946
59.325 15.255121
59.330 14.671915
59.335 14.287711
59.340 13.794951
59.345 13.239208
59.350 12.987636
59.355 13.326254
59.360 12.591248
59.365 12.884098
59.370 13.196522
59.375 13.408323
59.380 13.261971
59.385 13.388764
59.390 13.120358
59.395 13.150975
59.400 13.413011
59.405 13.583501
59.410 13.374736
59.415 13.844179
59.420 13.899486
59.425 14.330448
59.430 14.723629
59.435 14.310169
59.440 14.17148
59.445 14.662426
59.450 14.597368
59.455 14.340678
59.460 13.738794
59.465 13.313301
59.470 13.422431
59.475 13.29521
59.480 12.605146
59.485 12.627571
59.490 12.768314
59.495 12.956508
59.500 13.324554
59.505 13.053494
59.510 12.900692
59.515 12.82869
59.520 12.533078
59.525 12.554875
59.530 12.33168
59.535 11.867476
59.540 12.041265
59.545 12.846654
59.550 13.731242
59.555 14.097424
59.560 14.658157
59.565 15.287558
59.570 15.383688
59.575 15.423629
59.580 15.126348
59.585 14.996158
59.590 14.952426
59.595 14.430219
59.600 13.89363
59.605 13.869177
59.610 13.67848
59.615 13.100482
59.620 12.830284
59.625 12.588434
59.630 12.188587
59.635 12.373294
59.640 12.528431
59.645 12.523091
59.650 12.929376
59.655 13.029955
59.660 12.746222
59.665 12.66852
59.670 12.997101
59.675 13.572041
59.680 13.785404
59.685 13.873981
59.690 14.032509
59.695 14.594604
59.700 14.865506
59.705 14.473995
59.710 14.013434
59.715 13.945875
59.720 13.795465
59.725 13.439829
59.730 13.378177
59.735 13.31079
59.740 12.923984
59.745 12.707875
59.750 13.137045
59.755 12.786351
59.760 12.925886
59.765 12.873241
59.770 12.94321
59.775 13.027437
59.780 13.136611
59.785 12.917439
59.790 13.741293
59.795 13.893662
59.800 13.713059
59.805 13.513194
59.810 13.70437
59.815 13.689034
59.820 13.896333
59.825 13.64774
59.830 13.626948
59.835 13.891682
59.840 14.293509
59.845 14.05044
59.850 13.770679
59.855 13.378853
59.860 13.203087
59.865 13.18182
59.870 12.873977
59.875 13.345835
59.880 13.928089
59.885 13.572608
59.890 13.582407
59.895 13.136601
59.900 12.750699
59.905 12.369192
59.910 11.5335
59.915 11.343369
59.920 11.641125
59.925 11.950901
59.930 12.359011
59.935 12.592381
59.940 12.951393
59.945 13.232893
59.950 12.954967
59.955 13.026644
59.960 12.956586
59.965 12.973475
59.970 12.967419
59.975 13.185482
59.980 13.147573
59.985 13.63711
59.990 13.753086
59.995 13.501884
60.000 13.575781
60.005 13.697346
60.010 13.736873
60.015 14.163477
60.020 13.892298
60.025 13.7311
60.030 13.656857
60.035 13.44634
60.040 13.411247
60.045 13.536684
60.050 13.527539
60.055 13.765383
60.060 13.672069
60.065 13.576087
60.070 13.662434
60.075 13.632282
60.080 13.281116
60.085 13.134042
60.090 13.136398
60.095 13.223367
60.100 13.589733
60.105 13.623308
60.110 13.444221
60.115 13.173536
60.120 13.202184
60.125 13.198879
60.130 13.24224
60.135 13.538811
60.140 13.219507
60.145 13.318334
60.150 13.561452
60.155 13.581125
60.160 13.72139
60.165 13.49172
60.170 13.302333
60.175 13.586737
60.180 13.605039
60.185 13.707148
60.190 13.840917
60.195 13.715921
60.200 13.600308
60.205 13.155023
60.210 13.038542
60.215 12.861784
60.220 12.524244
60.225 12.357945
60.230 12.670414
60.235 12.815194
60.240 12.832221
60.245 13.179557
60.250 13.462273
60.255 13.779119
60.260 13.683173
60.265 13.242873
60.270 13.231774
60.275 13.190128
60.280 13.085329
60.285 12.902123
60.290 12.350986
60.295 12.028642
60.300 12.083069
60.305 12.311637
60.310 12.367827
60.315 12.484852
60.320 12.922875
60.325 13.196854
60.330 13.624929
60.335 13.440005
60.340 13.536191
60.345 13.767028
60.350 13.393908
60.355 13.344877
60.360 13.507316
60.365 13.969339
60.370 14.058442
60.375 14.085947
60.380 13.805055
60.385 13.698158
60.390 13.433421
60.395 13.242299
60.400 12.352286
60.405 12.094709
60.410 11.9856
60.415 11.971539
60.420 11.865253
60.425 11.704775
60.430 11.807048
60.435 11.729201
60.440 11.655454
60.445 12.067178
60.450 12.313887
60.455 12.507746
60.460 12.765446
60.465 13.160069
60.470 13.856953
60.475 13.731254
60.480 13.080143
60.485 12.932969
60.490 13.126033
60.495 13.664522
60.500 13.67243
60.505 13.598248
60.510 14.085713
60.515 14.363317
60.520 14.469679
60.525 14.272345
60.530 13.729976
60.535 13.604247
60.540 13.383872
60.545 13.246793
60.550 13.360209
60.555 13.472219
60.560 13.627622
60.565 13.455697
60.570 13.606173
60.575 13.925013
60.580 13.634663
60.585 13.790825
60.590 13.783366
60.595 13.847116
60.600 14.147006
60.605 13.278518
60.610 12.861184
60.615 12.708354
60.620 12.401331
60.625 12.588548
60.630 12.309198
60.635 12.145221
60.640 12.20168
60.645 12.308788
60.650 12.626513
60.655 12.500847
60.660 11.90434
60.665 11.801376
60.670 12.064962
60.675 12.856292
60.680 13.141725
60.685 13.169209
60.690 13.291455
60.695 13.587391
60.700 13.691025
60.705 14.118109
60.710 14.193189
60.715 14.178065
60.720 14.25318
60.725 14.321903
60.730 14.503914
60.735 14.800658
60.740 14.375549
60.745 14.189653
60.750 13.919476
60.755 13.709436
60.760 13.772208
60.765 13.990327
60.770 13.744579
60.775 13.414176
60.780 12.756668
60.785 12.780489
60.790 12.608161
60.795 12.331438
60.800 11.950702
60.805 11.618116
60.810 11.630936
60.815 11.919422
60.820 12.100276
60.825 12.616407
60.830 12.774708
60.835 13.024546
60.840 13.41136
60.845 13.694193
60.850 14.10919
60.855 14.175015
60.860 14.213127
60.865 14.283869
60.870 13.793314
60.875 13.685904
60.880 13.579768
60.885 13.167889
60.890 12.562454
60.895 12.205993
60.900 12.201715
60.905 12.542548
60.910 12.506121
60.915 12.404448
60.920 12.797494
60.925 13.053625
60.930 12.922125
60.935 12.728932
60.940 12.565875
60.945 12.985918
60.950 13.272511
60.955 13.2869
60.960 13.7863
60.965 14.214937
60.970 14.543184
60.975 14.606132
60.980 14.117531
60.985 13.629287
60.990 13.505664
60.995 13.163857
61.000 12.697472
61.005 12.507019
61.010 12.707215
61.015 12.853385
61.020 12.208332
61.025 11.53389
61.030 11.734055
61.035 12.086856
61.040 12.245771
61.045 12.328615
61.050 12.101276
61.055 13.050714
61.060 13.560852
61.065 13.523347
61.070 13.665241
61.075 13.604857
61.080 13.218443
61.085 13.68023
61.090 13.93936
61.095 13.820478
61.100 13.824592
61.105 13.645622
61.110 13.133587
61.115 13.144897
61.120 12.913806
61.125 12.457184
61.130 13.062372
61.135 12.660661
61.140 12.53943
61.145 12.906178
61.150 12.679159
61.155 12.558757
61.160 12.807031
61.165 12.351327
61.170 12.18423
61.175 12.240132
61.180 12.092639
61.185 12.007894
61.190 12.103534
61.195 12.038314
61.200 12.162871
61.205 12.855518
61.210 13.568334
61.215 14.078858
61.220 14.741425
61.225 15.111005
61.230 15.26869
61.235 14.700488
61.240 14.060586
61.245 13.653067
61.250 13.518997
61.255 13.010839
61.260 12.609126
61.265 12.887434
61.270 13.549742
61.275 13.497307
61.280 12.995513
61.285 12.808925
61.290 12.894525
61.295 12.951787
61.300 12.361935
61.305 12.494774
61.310 12.841255
61.315 12.972001
61.320 12.850028
61.325 13.053943
61.330 12.996497
61.335 12.833692
61.340 12.826937
61.345 12.299095
61.350 12.258209
61.355 12.088974
61.360 11.787663
61.365 11.887704
61.370 11.725999
61.375 11.242897
61.380 11.8722
61.385 11.879082
61.390 12.278062
61.395 12.50718
61.400 13.071855
61.405 13.785658
61.410 13.766376
61.415 13.569558
61.420 14.069263
61.425 13.753905
61.430 13.374018
61.435 12.925633
61.440 12.646949
61.445 13.141706
61.450 12.9811
61.455 12.823178
61.460 12.708761
61.465 12.358135
61.470 12.103368
61.475 12.423321
61.480 13.310007
61.485 13.733561
61.490 13.85919
61.495 14.429671
61.500 14.830751
61.505 15.103008
61.510 15.15094
61.515 14.692625
61.520 14.490271
61.525 14.164485
61.530 13.553306
61.535 13.390418
61.540 13.369029
61.545 12.988877
61.550 12.949665
61.555 12.917489
61.560 12.726404
61.565 12.964699
61.570 13.592681
61.575 13.827744
61.580 13.93887
61.585 13.598597
61.590 13.748291
61.595 14.008615
61.600 14.181401
61.605 13.880994
61.610 14.123966
61.615 14.217465
61.620 14.128854
61.625 14.34855
61.630 14.557573
61.635 14.395246
61.640 14.594518
61.645 14.059364
61.650 13.611251
61.655 13.654618
61.660 13.350313
61.665 13.077528
61.670 12.762924
61.675 12.480101
61.680 12.295603
61.685 12.134714
61.690 11.823442
61.695 11.796483
61.700 11.874911
61.705 12.038038
61.710 12.127776
61.715 12.556575
61.720 13.058084
61.725 13.200192
61.730 13.236577
61.735 13.089341
61.740 13.13895
61.745 13.276941
61.750 12.866207
61.755 12.622802
61.760 12.913243
61.765 12.974248
61.770 13.125103
61.775 13.027341
61.780 12.475624
61.785 13.078186
61.790 13.403047
61.795 13.544321
61.800 13.626749
61.805 13.691779
61.810 14.059142
61.815 14.839939
61.820 14.666827
61.825 14.522967
61.830 14.158897
61.835 14.434164
61.840 14.576382
61.845 14.41969
61.850 13.971726
61.855 14.466252
61.860 14.852168
61.865 14.97298
61.870 15.036429
61.875 14.898723
61.880 15.310714
61.885 15.509066
61.890 15.168642
61.895 14.333134
61.900 14.707444
61.905 14.747743
61.910 15.229535
61.915 14.759356
61.920 14.403233
61.925 14.138583
61.930 14.372535
61.935 14.096638
61.940 13.708023
61.945 13.200225
61.950 12.745225
61.955 12.670677
61.960 12.591972
61.965 12.257771
61.970 12.22662
61.975 12.633026
61.980 12.654733
61.985 13.061893
61.990 13.32316
61.995 13.29124
62.000 13.360597
62.005 12.992207
62.010 13.036868
62.015 12.918888
62.020 13.128829
62.025 12.701625
62.030 12.475101
62.035 12.819505
62.040 12.564672
62.045 12.347633
62.050 12.340323
62.055 12.033171
62.060 12.184259
62.065 12.388687
62.070 12.420428
62.075 12.62777
62.080 12.50712
62.085 12.744815
62.090 13.294546
62.095 13.639277
62.100 13.776122
62.105 14.116299
62.110 14.743018
62.115 14.422256
62.120 13.770125
62.125 14.083887
62.130 14.608687
62.135 14.415966
62.140 14.149163
62.145 13.941907
62.150 14.413094
62.155 14.606037
62.160 14.186164
62.165 13.880029
62.170 14.20596
62.175 14.750811
62.180 14.637502
62.185 14.680799
62.190 14.602278
62.195 14.207788
62.200 13.971993
62.205 13.5067
62.210 12.728714
62.215 13.124729
62.220 12.95538
62.225 13.157095
62.230 13.596498
62.235 13.66449
62.240 14.098089
62.245 14.2534
62.250 13.780043
62.255 13.743283
62.260 13.473087
62.265 13.439118
62.270 13.24319
62.275 13.136204
62.280 13.240696
62.285 13.467577
62.290 13.702621
62.295 13.710587
62.300 13.394689
62.305 13.151036
62.310 12.665187
62.315 12.405523
62.320 12.841114
62.325 12.524853
62.330 13.035631
62.335 12.908434
62.340 13.109718
62.345 13.176182
62.350 12.796931
62.355 12.173745
62.360 12.481791
62.365 12.314423
62.370 12.351002
62.375 12.619337
62.380 12.776315
62.385 13.411176
62.390 13.992492
62.395 13.881627
62.400 13.936271
62.405 13.924666
62.410 13.972333
62.415 14.18195
62.420 14.080368
62.425 13.672095
62.430 13.653463
62.435 13.56674
62.440 13.720759
62.445 13.865029
62.450 14.113556
62.455 13.85763
62.460 14.051052
62.465 14.006397
62.470 14.148388
62.475 14.168996
62.480 14.24823
62.485 14.270154
62.490 14.220922
62.495 14.268658
62.500 14.332445
62.505 14.423026
62.510 14.609919
62.515 14.51656
62.520 14.162171
62.525 14.1369
62.530 14.122579
62.535 13.75783
62.540 13.545171
62.545 13.68107
62.550 13.569032
62.555 13.440755
62.560 13.135924
62.565 13.086944
62.570 14.043085
62.575 14.004032
62.580 13.421732
62.585 12.70857
62.590 12.677544
62.595 12.822906
62.600 12.759739
62.605 12.132631
62.610 11.882401
62.615 11.905108
62.620 12.199344
62.625 12.6463
62.630 12.911751
62.635 12.768929
62.640 13.212067
62.645 13.75532
62.650 14.453615
62.655 14.854259
62.660 15.064633
62.665 14.695236
62.670 14.751586
62.675 14.82615
62.680 14.677738
62.685 14.542728
62.690 14.526757
62.695 14.590249
62.700 14.961282
62.705 14.542305
62.710 14.559472
62.715 15.057118
62.720 15.24719
62.725 14.660927
62.730 14.82401
62.735 15.28184
62.740 15.544262
62.745 14.959216
62.750 14.580936
62.755 14.04672
62.760 14.263905
62.765 13.379745
62.770 13.00893
62.775 13.009956
62.780 13.324974
62.785 13.368351
62.790 13.707711
62.795 13.67639
62.800 13.924368
62.805 13.511469
62.810 13.24297
62.815 13.227906
62.820 13.133949
62.825 13.048319
62.830 13.435256
62.835 13.35601
62.840 14.017045
62.845 14.28523
62.850 14.103155
62.855 14.226617
62.860 14.414434
62.865 14.190062
62.870 14.54668
62.875 14.653176
62.880 14.745953
62.885 14.561983
62.890 14.161528
62.895 13.856035
62.900 13.894912
62.905 13.7879
62.910 13.078334
62.915 12.825747
62.920 12.535945
62.925 12.804883
62.930 13.040954
62.935 13.285058
62.940 13.704222
62.945 13.74548
62.950 13.719338
62.955 13.806247
62.960 13.847823
62.965 13.862872
62.970 14.179571
62.975 14.212061
62.980 14.43784
62.985 14.704884
62.990 15.075501
62.995 14.838575
63.000 15.161553
63.005 15.006716
63.010 14.962017
63.015 15.299016
63.020 15.887054
63.025 16.258821
63.030 16.016438
63.035 15.162587
63.040 14.521893
63.045 14.243254
63.050 14.377087
63.055 14.520995
63.060 14.238103
63.065 14.677479
63.070 15.241721
63.075 15.547039
63.080 15.5204
63.085 15.053077
63.090 14.816635
63.095 14.565003
63.100 14.521413
63.105 14.661598
63.110 14.096615
63.115 13.852182
63.120 13.670135
63.125 12.931609
63.130 12.816623
63.135 12.519826
63.140 12.016401
63.145 12.036433
63.150 12.40569
63.155 12.6875
63.160 13.02261
63.165 13.207279
63.170 13.447554
63.175 13.849422
63.180 14.189467
63.185 13.583026
63.190 13.583074
63.195 13.676609
63.200 13.841866
63.205 13.703549
63.210 13.632935
63.215 13.501193
63.220 13.680326
63.225 13.74143
63.230 13.799119
63.235 13.472387
63.240 13.09533
63.245 13.023155
63.250 13.237926
63.255 14.038988
63.260 14.433318
63.265 14.323084
63.270 14.525002
63.275 14.998091
63.280 15.081682
63.285 14.980206
63.290 14.856677
63.295 14.401501
63.300 14.648989
63.305 14.932532
63.310 15.133189
63.315 15.505634
63.320 15.725251
63.325 15.185036
63.330 15.304134
63.335 15.202839
63.340 15.014135
63.345 14.472691
63.350 14.026976
63.355 13.677481
63.360 13.706501
63.365 14.219145
63.370 14.495424
63.375 14.906408
63.380 15.429487
63.385 15.947871
63.390 16.626221
63.395 16.861986
63.400 17.035963
63.405 16.917341
63.410 16.485111
63.415 16.088741
63.420 16.208384
63.425 16.443563
63.430 16.244682
63.435 15.187162
63.440 14.973068
63.445 15.009468
63.450 15.354453
63.455 15.727718
63.460 15.437811
63.465 15.582265
63.470 16.468052
63.475 16.617363
63.480 16.718666
63.485 16.770245
63.490 16.174175
63.495 15.973513
63.500 16.385651
63.505 15.839355
63.510 15.5941
63.515 15.58689
63.520 15.455632
63.525 15.473223
63.530 15.562243
63.535 15.347368
63.540 15.582907
63.545 15.34403
63.550 15.018963
63.555 14.730387
63.560 14.428425
63.565 14.086388
63.570 13.722258
63.575 13.590471
63.580 13.708938
63.585 13.802649
63.590 13.784097
63.595 13.634764
63.600 13.801365
63.605 13.822073
63.610 14.096372
63.615 14.517657
63.620 14.666925
63.625 15.20782
63.630 15.360898
63.635 15.984994
63.640 15.939271
63.645 16.018866
63.650 16.119644
63.655 16.716888
63.660 17.146624
63.665 17.325119
63.670 16.961805
63.675 17.133898
63.680 16.82634
63.685 16.798513
63.690 16.766516
63.695 16.132378
63.700 16.312599
63.705 16.315466
63.710 16.489855
63.715 16.538599
63.720 16.457146
63.725 15.864851
63.730 16.118856
63.735 16.023924
63.740 15.572706
63.745 14.858941
63.750 14.656528
63.755 14.707174
63.760 15.327486
63.765 15.328875
63.770 15.689093
63.775 16.538254
63.780 17.671738
63.785 18.175152
63.790 17.86709
63.795 17.564478
63.800 17.637299
63.805 17.491041
63.810 17.411732
63.815 17.211115
63.820 17.245018
63.825 17.193663
63.830 17.392849
63.835 17.543081
63.840 17.382708
63.845 17.249842
63.850 17.025911
63.855 17.387268
63.860 18.409643
63.865 18.379574
63.870 18.043695
63.875 18.057093
63.880 18.462019
63.885 18.722578
63.890 18.620604
63.895 18.227509
63.900 18.774801
63.905 19.356365
63.910 20.428659
63.915 20.021118
63.920 19.819527
63.925 19.517088
63.930 19.794445
63.935 19.87138
63.940 20.164742
63.945 20.064785
63.950 20.946777
63.955 21.81583
63.960 23.002569
63.965 23.367937
63.970 23.528328
63.975 23.428133
63.980 22.57107
63.985 22.814814
63.990 22.646318
63.995 22.613041
64.000 23.223782
64.005 23.202513
64.010 23.011814
64.015 23.532516
64.020 23.071375
64.025 22.565821
64.030 22.104729
64.035 21.297726
64.040 21.29859
64.045 21.195929
64.050 21.772614
64.055 22.528887
64.060 22.366972
64.065 22.188255
64.070 22.455389
64.075 22.878691
64.080 22.937498
64.085 22.475452
64.090 22.114069
64.095 22.541527
64.100 23.094435
64.105 23.406591
64.110 23.591358
64.115 23.514053
64.120 23.023743
64.125 22.70459
64.130 22.786692
64.135 23.209858
64.140 23.052769
64.145 23.070675
64.150 24.165344
64.155 24.483809
64.160 24.943615
64.165 24.561419
64.170 24.047688
64.175 23.357376
64.180 22.979967
64.185 22.410475
64.190 22.26446
64.195 21.96608
64.200 22.300638
64.205 22.269295
64.210 22.04731
64.215 22.061106
64.220 22.460962
64.225 22.63718
64.230 22.207272
64.235 21.743366
64.240 21.188999
64.245 21.547356
64.250 21.375082
64.255 20.915506
64.260 20.793766
64.265 21.244242
64.270 21.919361
64.275 21.96822
64.280 22.086723
64.285 22.379623
64.290 22.805733
64.295 23.280199
64.300 23.275223
64.305 22.334257
64.310 21.881968
64.315 22.46134
64.320 22.380661
64.325 21.976267
64.330 21.53793
64.335 20.562666
64.340 20.679499
64.345 21.160049
64.350 20.172956
64.355 20.258314
64.360 19.980892
64.365 20.033028
64.370 21.035164
64.375 21.586498
64.380 21.41124
64.385 21.369013
64.390 21.382677
64.395 21.520702
64.400 21.444811
64.405 21.030926
64.410 21.030579
64.415 20.740868
64.420 20.716185
64.425 20.19591
64.430 20.388359
64.435 20.554329
64.440 20.506477
64.445 20.074392
64.450 20.396635
64.455 20.643064
64.460 20.891672
64.465 20.874342
64.470 20.178652
64.475 19.717525
64.480 20.359632
64.485 20.688148
64.490 20.882401
64.495 21.182077
64.500 21.381952
64.505 21.56596
64.510 21.262291
64.515 21.29948
64.520 20.584635
64.525 20.145531
64.530 19.806622
64.535 19.683998
64.540 20.051785
64.545 20.456369
64.550 20.028479
64.555 20.386543
64.560 20.32089
64.565 20.684143
64.570 20.907091
64.575 20.407749
64.580 20.208546
64.585 19.892176
64.590 20.01181
64.595 19.726103
64.600 19.036619
64.605 17.954697
64.610 18.141863
64.615 18.074064
64.620 17.958588
64.625 17.898726
64.630 17.986086
64.635 17.9681
64.640 18.124195
64.645 18.025385
64.650 17.994164
64.655 17.775103
64.660 17.898607
64.665 18.214418
64.670 18.181488
64.675 18.369036
64.680 18.20203
64.685 18.063606
64.690 17.972075
64.695 17.760778
64.700 17.464092
64.705 17.537565
64.710 17.528406
64.715 17.963346
64.720 18.275352
64.725 18.236315
64.730 18.092606
64.735 18.382336
64.740 18.60342
64.745 18.955002
64.750 18.594978
64.755 18.936375
64.760 18.825697
64.765 19.269884
64.770 18.902441
64.775 18.637495
64.780 18.207598
64.785 18.026472
64.790 17.371967
64.795 17.093576
64.800 16.691185
64.805 16.957899
64.810 16.950169
64.815 17.444664
64.820 17.684584
64.825 18.197027
64.830 18.731873
64.835 18.816566
64.840 18.699055
64.845 18.84717
64.850 18.825073
64.855 18.644306
64.860 18.239595
64.865 18.404453
64.870 18.309149
64.875 18.612959
64.880 18.066942
64.885 18.070164
64.890 18.262739
64.895 18.075794
64.900 17.850046
64.905 18.002377
64.910 17.815557
64.915 17.903383
64.920 18.117344
64.925 18.56571
64.930 19.228182
64.935 19.335382
64.940 19.312105
64.945 19.852846
64.950 20.061373
64.955 19.693951
64.960 19.253431
64.965 19.454113
64.970 20.376144
64.975 20.822519
64.980 20.273176
64.985 21.45565
64.990 22.446981
64.995 23.25181
65.000 23.08831
65.005 22.44833
65.010 22.100058
65.015 22.608355
65.020 22.500988
65.025 22.25761
65.030 21.931206
65.035 21.794313
65.040 21.582706
65.045 21.912041
65.050 22.155535
65.055 21.121908
65.060 21.250608
65.065 21.245979
65.070 21.062002
65.075 21.050259
65.080 21.029913
65.085 21.010584
65.090 21.154219
65.095 21.400698
65.100 21.81134
65.105 22.188807
65.110 22.194448
65.115 22.334024
65.120 21.699627
65.125 21.722811
65.130 20.926243
65.135 20.542498
65.140 20.488224
65.145 20.343864
65.150 20.117083
65.155 20.208858
65.160 19.740761
65.165 19.62384
65.170 19.382418
65.175 19.087484
65.180 19.201406
65.185 19.046221
65.190 18.781401
65.195 18.91036
65.200 18.907486
65.205 18.737759
65.210 18.136599
65.215 17.932383
65.220 17.890001
65.225 18.337519
65.230 18.485254
65.235 18.544207
65.240 18.982935
65.245 19.353205
65.250 19.286877
65.255 19.220022
65.260 19.273491
65.265 18.667948
65.270 19.119894
65.275 19.133631
65.280 18.883018
65.285 18.897917
65.290 18.585346
65.295 18.029646
65.300 18.124306
65.305 17.468327
65.310 17.193449
65.315 17.360975
65.320 17.493525
65.325 17.488955
65.330 17.905787
65.335 17.712896
65.340 17.296297
65.345 17.622194
65.350 17.47537
65.355 16.960588
65.360 16.929041
65.365 16.856785
65.370 16.691397
65.375 16.4088
65.380 16.365606
65.385 16.044456
65.390 16.085463
65.395 16.292368
65.400 16.433268
65.405 16.462055
65.410 16.715963
65.415 16.717405
65.420 16.995411
65.425 17.151478
65.430 16.369848
65.435 16.227524
65.440 16.769865
65.445 16.743908
65.450 16.883961
65.455 16.796705
65.460 17.097227
65.465 17.546499
65.470 17.330236
65.475 17.107719
65.480 17.063532
65.485 16.674845
65.490 16.410875
65.495 15.846029
65.500 15.77472
65.505 15.807949
65.510 15.296539
65.515 15.041698
65.520 14.939038
65.525 15.313674
65.530 15.912033
65.535 16.104664
65.540 15.890837
65.545 16.547066
65.550 16.858864
65.555 17.21244
65.560 17.101379
65.565 16.973259
65.570 17.071415
65.575 17.114294
65.580 16.7887
65.585 16.69702
65.590 16.722961
65.595 16.709835
65.600 16.690695
65.605 16.760248
65.610 16.984535
65.615 17.250704
65.620 17.492022
65.625 17.413916
65.630 17.307436
65.635 17.364124
65.640 17.680248
65.645 17.94799
65.650 17.559143
65.655 17.162458
65.660 17.214949
65.665 17.343332
65.670 16.708849
65.675 16.354719
65.680 16.649548
65.685 17.446802
65.690 17.690897
65.695 18.239376
65.700 17.974552
65.705 19.039606
65.710 19.239725
65.715 18.814659
65.720 18.051092
65.725 18.140635
65.730 17.835058
65.735 18.207781
65.740 17.22854
65.745 17.228186
65.750 17.455439
65.755 17.958767
65.760 18.422209
65.765 18.747961
65.770 19.419941
65.775 19.885479
65.780 20.16284
65.785 20.424984
65.790 20.119457
65.795 20.304745
65.800 20.4716
65.805 20.592995
65.810 20.913811
65.815 20.974197
65.820 20.787228
65.825 20.941763
65.830 20.978487
65.835 21.280699
65.840 21.070705
65.845 21.066006
65.850 21.028086
65.855 21.576525
65.860 22.043701
65.865 22.201382
65.870 22.112364
65.875 22.105545
65.880 22.342972
65.885 22.511934
65.890 22.738699
65.895 22.61475
65.900 23.568748
65.905 23.77692
65.910 23.554276
65.915 23.400507
65.920 23.557665
65.925 24.215876
65.930 24.666281
65.935 24.482544
65.940 24.964472
65.945 25.26232
65.950 25.133444
65.955 25.275614
65.960 25.150318
65.965 25.252462
65.970 24.69137
65.975 24.291565
65.980 25.226973
65.985 25.681688
65.990 26.112976
65.995 26.569448
66.000 26.590151
66.005 26.613377
66.010 26.410566
66.015 26.075859
66.020 26.50503
66.025 25.704454
66.030 25.630981
66.035 26.970985
66.040 27.169744
66.045 27.771784
66.050 28.013912
66.055 27.789602
66.060 28.199051
66.065 28.093643
66.070 26.31443
66.075 26.407379
66.080 26.063248
66.085 25.923361
66.090 26.167507
66.095 26.642262
66.100 27.027802
66.105 27.480442
66.110 27.509871
66.115 28.275476
66.120 28.212133
66.125 28.534971
66.130 27.982994
66.135 27.808928
66.140 28.866032
66.145 29.835316
66.150 29.844572
66.155 29.747534
66.160 29.035997
66.165 29.62907
66.170 29.674063
66.175 28.852039
66.180 27.99683
66.185 27.136948
66.190 27.170971
66.195 27.607677
66.200 27.411947
66.205 27.069456
66.210 27.340605
66.215 27.489344
66.220 27.748423
66.225 28.091845
66.230 27.782261
66.235 27.625252
66.240 27.152971
66.245 26.653748
66.250 26.817497
66.255 26.827539
66.260 27.180975
66.265 27.748219
66.270 27.60853
66.275 27.891685
66.280 27.727041
66.285 27.957468
66.290 27.852959
66.295 26.645414
66.300 25.890289
66.305 26.458378
66.310 26.79174
66.315 26.297338
66.320 25.562662
66.325 25.630159
66.330 25.89341
66.335 25.65233
66.340 24.487488
66.345 23.78447
66.350 23.329964
66.355 22.864405
66.360 22.839632
66.365 22.843853
66.370 22.996725
66.375 22.887287
66.380 22.920893
66.385 23.117182
66.390 22.537323
66.395 22.211739
66.400 22.212877
66.405 22.332085
66.410 22.698509
66.415 22.647749
66.420 22.694269
66.425 23.243038
66.430 22.836008
66.435 22.428524
66.440 21.946615
66.445 20.325459
66.450 19.785797
66.455 19.178848
66.460 18.687696
66.465 18.844585
66.470 18.503403
66.475 18.752317
66.480 19.738447
66.485 20.245548
66.490 20.592218
66.495 20.325155
66.500 19.875975
66.505 20.205967
66.510 20.179142
66.515 19.077471
66.520 18.379189
66.525 18.141827
66.530 18.337751
66.535 18.188829
66.540 17.853292
66.545 17.745481
66.550 18.054953
66.555 18.095142
66.560 17.955553
66.565 17.766153
66.570 17.506996
66.575 17.292406
66.580 17.160599
66.585 17.226879
66.590 17.573246
66.595 17.785456
66.600 17.797325
66.605 18.115402
66.610 17.775167
66.615 17.466991
66.620 16.690844
66.625 15.760054
66.630 14.984916
66.635 14.752851
66.640 14.404987
66.645 14.590838
66.650 14.670972
66.655 14.903378
66.660 15.355854
66.665 15.717749
66.670 15.62489
66.675 15.451663
66.680 15.128898
66.685 15.303914
66.690 15.354221
66.695 15.92529
66.700 16.243176
66.705 16.386259
66.710 16.589176
66.715 16.98056
66.720 17.070999
66.725 16.920856
66.730 16.49036
66.735 15.723173
66.740 15.466532
66.745 15.121534
66.750 14.806392
66.755 14.743155
66.760 15.479153
66.765 15.931496
66.770 16.750448
66.775 16.936798
66.780 17.578806
66.785 17.514563
66.790 17.059977
66.795 16.283167
66.800 15.55486
66.805 15.594742
66.810 15.676345
66.815 15.408977
66.820 15.521002
66.825 15.564732
66.830 15.907307
66.835 15.450846
66.840 15.113127
66.845 15.251617
66.850 14.924994
66.855 14.952061
66.860 15.270289
66.865 15.256857
66.870 15.884792
66.875 15.88615
66.880 15.962879
66.885 16.100567
66.890 15.917465
66.895 15.904722
66.900 15.629004
66.905 15.44466
66.910 15.483953
66.915 15.390308
66.920 15.362058
66.925 15.486089
66.930 15.850793
66.935 15.977108
66.940 15.416488
66.945 15.066246
66.950 14.564598
66.955 14.580736
66.960 14.35465
66.965 13.773346
66.970 13.570161
66.975 13.895948
66.980 14.305026
66.985 14.764639
66.990 14.732464
66.995 14.75966
67.000 14.165283
67.005 14.631526
67.010 14.898154
67.015 14.726249
67.020 14.69417
67.025 14.802582
67.030 15.122419
67.035 16.314226
67.040 16.396046
67.045 16.264469
67.050 15.853571
67.055 15.824781
67.060 15.784987
67.065 14.973158
67.070 14.015262
67.075 13.991077
67.080 14.331161
67.085 15.005323
67.090 14.87324
67.095 14.593376
67.100 15.338148
67.105 15.176257
67.110 14.725088
67.115 14.390231
67.120 14.229181
67.125 14.23632
67.130 14.436392
67.135 14.455044
67.140 14.420178
67.145 14.658886
67.150 14.260563
67.155 14.200336
67.160 14.641458
67.165 14.525392
67.170 14.204728
67.175 14.292054
67.180 14.475143
67.185 14.982856
67.190 14.660958
67.195 14.418468
67.200 14.448466
67.205 15.192682
67.210 15.557536
67.215 15.449687
67.220 15.497946
67.225 16.122561
67.230 16.429869
67.235 16.509029
67.240 16.457817
67.245 16.254768
67.250 16.304243
67.255 16.612455
67.260 16.083118
67.265 15.706294
67.270 15.080532
67.275 14.121381
67.280 13.440236
67.285 13.323207
67.290 13.173627
67.295 13.254547
67.300 13.15509
67.305 13.209356
67.310 13.896052
67.315 14.159147
67.320 13.70012
67.325 13.467006
67.330 14.4098
67.335 14.887493
67.340 15.018134
67.345 15.884417
67.350 16.25079
67.355 16.770113
67.360 16.689671
67.365 15.884757
67.370 15.496076
67.375 15.653299
67.380 14.988834
67.385 15.033405
67.390 14.637611
67.395 14.495872
67.400 14.710662
67.405 14.690839
67.410 14.174678
67.415 14.428231
67.420 14.494261
67.425 14.866306
67.430 15.025575
67.435 15.077408
67.440 15.25671
67.445 15.366516
67.450 15.174118
67.455 14.365937
67.460 14.206324
67.465 13.799642
67.470 13.800937
67.475 14.011132
67.480 14.102044
67.485 14.198927
67.490 14.71797
67.495 14.821279
67.500 15.204864
67.505 15.299499
67.510 15.35954
67.515 15.364121
67.520 15.095462
67.525 15.232245
67.530 15.369038
67.535 15.137979
67.540 15.084188
67.545 15.452471
67.550 15.434627
67.555 16.128319
67.560 15.906057
67.565 15.922092
67.570 16.052023
67.575 16.001074
67.580 15.813286
67.585 16.188059
67.590 15.76254
67.595 15.876678
67.600 15.496561
67.605 15.388697
67.610 14.986909
67.615 14.485676
67.620 14.250568
67.625 14.939765
67.630 15.558138
67.635 15.597031
67.640 16.068792
67.645 16.38308
67.650 16.452642
67.655 15.931957
67.660 14.633159
67.665 14.477489
67.670 14.35128
67.675 14.100006
67.680 13.944452
67.685 14.236208
67.690 14.424295
67.695 14.894676
67.700 14.395054
67.705 14.522125
67.710 14.36729
67.715 14.232409
67.720 13.567702
67.725 13.902695
67.730 13.826129
67.735 13.937104
67.740 13.911428
67.745 13.691998
67.750 14.070925
67.755 14.096407
67.760 13.434271
67.765 13.388331
67.770 13.482135
67.775 13.824119
67.780 14.02262
67.785 14.100103
67.790 14.561131
67.795 14.426053
67.800 14.793884
67.805 14.813457
67.810 14.436312
67.815 14.303963
67.820 14.740095
67.825 15.129867
67.830 15.7215
67.835 15.744694
67.840 15.374578
67.845 15.675877
67.850 15.824974
67.855 15.256458
67.860 15.064906
67.865 14.831031
67.870 14.532422
67.875 14.709553
67.880 14.366803
67.885 14.015633
67.890 13.597014
67.895 13.444855
67.900 13.826886
67.905 13.935456
67.910 14.066659
67.915 14.120557
67.920 14.314891
67.925 14.445677
67.930 14.62768
67.935 14.467381
67.940 14.575586
67.945 14.674045
67.950 15.250465
67.955 15.75321
67.960 16.049246
67.965 15.792538
67.970 15.703196
67.975 15.718879
67.980 15.707426
67.985 15.503094
67.990 15.326964
67.995 15.424231
68.000 15.771472
68.005 15.818453
68.010 15.726184
68.015 15.623714
68.020 15.307835
68.025 15.038124
68.030 14.71168
68.035 14.746171
68.040 14.817515
68.045 15.306615
68.050 15.518606
68.055 15.496645
68.060 15.487906
68.065 15.915122
68.070 15.004096
68.075 15.245541
68.080 15.225084
68.085 15.379472
68.090 15.437756
68.095 15.275423
68.100 15.055567
68.105 16.26329
68.110 15.950603
68.115 15.243399
68.120 15.07795
68.125 14.897587
68.130 14.860491
68.135 14.922728
68.140 14.299829
68.145 14.339635
68.150 15.024701
68.155 15.1477
68.160 15.44678
68.165 15.525789
68.170 15.831087
68.175 15.603629
68.180 15.255754
68.185 14.759417
68.190 14.808489
68.195 15.466323
68.200 15.28645
68.205 15.107795
68.210 15.110651
68.215 15.13939
68.220 15.167751
68.225 15.09304
68.230 14.855967
68.235 15.02322
68.240 14.77668
68.245 15.140125
68.250 15.494671
68.255 15.789933
68.260 15.794164
68.265 15.253759
68.270 15.407576
68.275 15.375081
68.280 15.266518
68.285 15.079301
68.290 14.941956
68.295 14.858144
68.300 15.113012
68.305 15.02729
68.310 15.071219
68.315 15.390741
68.320 15.722426
68.325 15.585253
68.330 15.62431
68.335 15.511324
68.340 15.410218
68.345 15.860857
68.350 15.25148
68.355 14.847547
68.360 15.422439
68.365 15.436569
68.370 15.682411
68.375 15.984816
68.380 15.916826
68.385 16.530626
68.390 16.801168
68.395 16.279716
68.400 16.255316
68.405 15.915495
68.410 16.038044
68.415 15.848184
68.420 15.832223
68.425 15.615345
68.430 15.956436
68.435 16.068825
68.440 16.248022
68.445 15.977828
68.450 16.183023
68.455 15.89369
68.460 15.450192
68.465 15.064188
68.470 15.37391
68.475 15.482583
68.480 15.391306
68.485 15.236092
68.490 15.506042
68.495 16.109472
68.500 15.758771
68.505 15.414767
68.510 15.677351
68.515 16.018675
68.520 16.128368
68.525 16.252306
68.530 16.25688
68.535 16.315231
68.540 16.297956
68.545 16.128353
68.550 15.791799
68.555 16.255014
68.560 16.340147
68.565 16.418049
68.570 17.005848
68.575 16.885592
68.580 17.119574
68.585 17.504494
68.590 17.219318
68.595 16.452122
68.600 16.059206
68.605 15.78085
68.610 15.694254
68.615 15.244226
68.620 14.800229
68.625 14.070736
68.630 14.70669
68.635 14.808845
68.640 15.209764
68.645 15.709837
68.650 15.840179
68.655 16.137472
68.660 16.824162
68.665 16.862335
68.670 17.219357
68.675 16.542801
68.680 16.03421
68.685 15.997182
68.690 16.383362
68.695 17.34561
68.700 17.579969
68.705 17.529215
68.710 18.044146
68.715 18.204262
68.720 18.166058
68.725 16.976669
68.730 15.972816
68.735 16.002895
68.740 15.77466
68.745 15.487151
68.750 15.366847
68.755 15.792481
68.760 16.518618
68.765 16.659605
68.770 17.275129
68.775 17.445059
68.780 18.014549
68.785 18.183792
68.790 17.349745
68.795 17.464388
68.800 17.497868
68.805 16.942152
68.810 17.3419
68.815 17.28056
68.820 17.487602
68.825 18.12055
68.830 17.676239
68.835 17.591661
68.840 18.105301
68.845 17.582399
68.850 17.736443
68.855 18.184711
68.860 17.923162
68.865 18.329578
68.870 18.711861
68.875 18.389702
68.880 18.524229
68.885 18.396275
68.890 18.13839
68.895 18.56543
68.900 17.807457
68.905 17.474754
68.910 17.740408
68.915 17.456642
68.920 17.318005
68.925 17.589447
68.930 17.895309
68.935 17.978889
68.940 17.830505
68.945 17.595474
68.950 18.298885
68.955 18.199095
68.960 18.188499
68.965 17.813114
68.970 18.706099
68.975 19.055151
68.980 18.907608
68.985 19.030695
68.990 19.020597
68.995 18.595665
69.000 18.859861
69.005 19.064657
69.010 18.99526
69.015 19.290087
69.020 19.109076
69.025 18.833977
69.030 19.17667
69.035 19.398886
69.040 19.47164
69.045 19.968569
69.050 20.410316
69.055 20.492952
69.060 20.964968
69.065 21.60305
69.070 21.032339
69.075 20.628002
69.080 20.679955
69.085 20.929214
69.090 21.943562
69.095 22.027054
69.100 21.825567
69.105 22.425241
69.110 23.004404
69.115 23.088997
69.120 23.04851
69.125 22.893362
69.130 23.258055
69.135 23.163801
69.140 23.398945
69.145 23.198124
69.150 23.271561
69.155 23.978247
69.160 23.206621
69.165 22.680735
69.170 23.166576
69.175 23.375103
69.180 23.679335
69.185 23.488857
69.190 23.295792
69.195 24.36335
69.200 24.956696
69.205 24.88566
69.210 24.763836
69.215 24.399626
69.220 24.420296
69.225 24.898457
69.230 25.293777
69.235 24.860815
69.240 24.728617
69.245 24.714222
69.250 24.964128
69.255 24.820677
69.260 24.065601
69.265 24.04002
69.270 24.553577
69.275 25.457815
69.280 25.896927
69.285 26.251184
69.290 26.483814
69.295 26.987198
69.300 27.435371
69.305 27.687595
69.310 27.055632
69.315 27.152458
69.320 27.785822
69.325 28.350817
69.330 28.044626
69.335 27.379236
69.340 27.302763
69.345 27.395914
69.350 27.182369
69.355 25.981176
69.360 25.570061
69.365 24.931059
69.370 25.029606
69.375 24.60372
69.380 24.159935
69.385 23.76366
69.390 24.377439
69.395 24.076986
69.400 24.052092
69.405 23.330309
69.410 23.224586
69.415 23.924919
69.420 23.992548
69.425 23.02084
69.430 22.671492
69.435 22.831951
69.440 23.154568
69.445 23.260225
69.450 22.650988
69.455 22.749687
69.460 23.258856
69.465 23.297287
69.470 23.626287
69.475 23.508953
69.480 23.904358
69.485 24.218168
69.490 24.549316
69.495 23.720818
69.500 23.44129
69.505 22.907953
69.510 23.195074
69.515 22.90649
69.520 22.547487
69.525 22.04924
69.530 22.37051
69.535 22.597029
69.540 22.479515
69.545 21.886059
69.550 21.701265
69.555 21.20742
69.560 21.105036
69.565 21.007267
69.570 21.106098
69.575 21.838022
69.580 22.330557
69.585 22.348055
69.590 22.083334
69.595 22.05308
69.600 22.155357
69.605 21.648819
69.610 21.259619
69.615 20.832029
69.620 20.880447
69.625 21.305557
69.630 21.020382
69.635 20.459476
69.640 20.74229
69.645 20.135386
69.650 19.48118
69.655 18.34264
69.660 17.878119
69.665 17.789618
69.670 17.717579
69.675 17.754326
69.680 18.071306
69.685 17.948399
69.690 18.455694
69.695 18.96344
69.700 18.87528
69.705 18.589695
69.710 18.548588
69.715 18.256556
69.720 18.537687
69.725 18.87188
69.730 18.568392
69.735 18.843601
69.740 19.224224
69.745 18.920582
69.750 18.77799
69.755 18.613642
69.760 19.170301
69.765 19.169455
69.770 19.228102
69.775 18.799265
69.780 18.482092
69.785 18.454176
69.790 17.816296
69.795 17.34901
69.800 17.856476
69.805 17.503929
69.810 17.497183
69.815 17.630339
69.820 17.417177
69.825 17.718927
69.830 16.796925
69.835 16.013092
69.840 15.374808
69.845 15.303312
69.850 15.660895
69.855 15.85059
69.860 15.918677
69.865 15.837742
69.870 16.460634
69.875 17.136501
69.880 16.68005
69.885 16.607515
69.890 16.437527
69.895 16.12042
69.900 16.361547
69.905 15.701912
69.910 16.041782
69.915 16.741999
69.920 15.806599
69.925 15.841414
69.930 15.62479
69.935 15.97767
69.940 16.02346
69.945 15.540709
69.950 15.469049
69.955 16.024771
69.960 15.681448
69.965 16.303965
69.970 15.953538
69.975 15.898515
69.980 15.98807
69.985 16.557583
69.990 17.070696
69.995 17.179535
70.000 16.81459
70.005 16.731857
70.010 16.869282
70.015 16.227304
70.020 14.898001
70.025 14.305106
70.030 14.444711
70.035 14.071101
70.040 13.703217
70.045 13.191545
70.050 13.055779
70.055 12.895823
70.060 12.655487
70.065 12.663102
70.070 13.026349
70.075 13.595757
70.080 13.925997
70.085 14.048096
70.090 14.361502
70.095 14.534907
70.100 14.7279
70.105 14.485295
70.110 14.448491
70.115 14.801053
70.120 15.466119
70.125 16.031813
70.130 16.481314
70.135 17.09745
70.140 17.408037
70.145 17.402863
70.150 17.067118
70.155 17.078991
70.160 16.577032
70.165 16.622688
70.170 16.180538
70.175 16.114086
70.180 16.631519
70.185 17.099705
70.190 17.064241
70.195 17.557882
70.200 16.806349
70.205 16.342033
70.210 16.00835
70.215 15.483426
70.220 14.757436
70.225 14.221933
70.230 13.91567
70.235 14.079698
70.240 14.223678
70.245 14.207958
70.250 14.401739
70.255 14.766908
70.260 15.091669
70.265 15.049079
70.270 15.429169
70.275 15.829035
70.280 15.120461
70.285 15.00097
70.290 14.468097
70.295 14.130219
70.300 14.667074
70.305 14.742402
70.310 15.231879
70.315 15.887214
70.320 15.741825
70.325 16.228216
70.330 16.092915
70.335 15.511436
70.340 14.564919
70.345 14.044564
70.350 13.799326
70.355 14.295906
70.360 14.745833
70.365 14.818551
70.370 15.175676
70.375 15.43756
70.380 15.8701
70.385 16.627214
70.390 16.194641
70.395 15.880485
70.400 15.764044
70.405 15.936539
70.410 16.046127
70.415 15.81321
70.420 15.967319
70.425 16.187172
70.430 16.650747
70.435 16.77478
70.440 16.754375
70.445 16.942276
70.450 16.710285
70.455 16.181591
70.460 16.064718
70.465 16.159544
70.470 16.211184
70.475 16.313068
70.480 15.617448
70.485 15.429694
70.490 15.263647
70.495 14.982274
70.500 14.931083
70.505 15.031501
70.510 14.672813
70.515 15.507534
70.520 16.069624
70.525 16.069464
70.530 15.543188
70.535 15.283496
70.540 15.034826
70.545 15.047102
70.550 14.575438
70.555 14.584292
70.560 14.64182
70.565 14.429576
70.570 14.341618
70.575 14.293079
70.580 14.470464
70.585 14.328999
70.590 14.491976
70.595 14.514496
70.600 15.203828
70.605 15.262373
70.610 15.190347
70.615 15.309211
70.620 15.395833
70.625 14.834917
70.630 14.583761
70.635 14.206882
70.640 14.180873
70.645 14.373787
70.650 14.284341
70.655 14.617064
70.660 15.002331
70.665 15.173523
70.670 15.501921
70.675 16.064901
70.680 15.633504
70.685 15.086375
70.690 14.931003
70.695 14.83987
70.700 15.13931
70.705 15.424012
70.710 15.182876
70.715 16.067753
70.720 16.398005
70.725 17.055853
70.730 17.950453
70.735 17.714457
70.740 17.419178
70.745 16.840452
70.750 16.205235
70.755 15.918813
70.760 15.009861
70.765 14.350181
70.770 14.173495
70.775 14.246448
70.780 14.221278
70.785 13.878869
70.790 13.841366
70.795 13.82868
70.800 13.611456
70.805 13.559216
70.810 13.647742
70.815 14.182932
70.820 14.743552
70.825 14.761213
70.830 14.991199
70.835 15.09967
70.840 15.374972
70.845 15.585109
70.850 15.198161
70.855 14.748528
70.860 14.894732
70.865 14.59958
70.870 14.20276
70.875 13.726173
70.880 12.98068
70.885 13.567559
70.890 13.848566
70.895 13.842463
70.900 14.12576
70.905 14.621386
70.910 14.58601
70.915 15.199189
70.920 14.581543
70.925 14.420875
70.930 14.30627
70.935 14.127637
70.940 13.985127
70.945 14.154543
70.950 13.993635
70.955 14.324056
70.960 14.961363
70.965 14.795831
70.970 14.880033
70.975 14.718254
70.980 14.679203
70.985 14.621385
70.990 13.975427
70.995 13.722267
71.000 14.192579
71.005 14.460533
71.010 14.44564
71.015 14.994964
71.020 15.115647
71.025 14.665642
71.030 14.484125
71.035 14.389452
71.040 14.154751
71.045 14.238709
71.050 14.236442
71.055 14.581213
71.060 14.579266
71.065 14.256274
71.070 13.95864
71.075 13.778017
71.080 13.618053
71.085 12.861401
71.090 12.440344
71.095 12.763746
71.100 12.614705
71.105 12.86832
71.110 12.366965
71.115 12.034489
71.120 12.664877
71.125 13.376885
71.130 13.624176
71.135 13.777628
71.140 13.677247
71.145 14.062409
71.150 14.285668
71.155 13.663576
71.160 13.051785
71.165 13.119294
71.170 13.363294
71.175 13.256054
71.180 13.143972
71.185 13.499111
71.190 13.550996
71.195 14.110229
71.200 14.044815
71.205 13.825212
71.210 14.509454
71.215 14.628366
71.220 14.249412
71.225 13.765829
71.230 13.939559
71.235 14.028313
71.240 14.23717
71.245 13.925945
71.250 14.059852
71.255 14.509159
71.260 15.153182
71.265 15.124683
71.270 15.152259
71.275 15.116696
71.280 14.875664
71.285 14.582582
71.290 14.462753
71.295 13.833265
71.300 13.530464
71.305 13.001429
71.310 13.206195
71.315 13.472855
71.320 13.759603
71.325 14.145265
71.330 14.896204
71.335 14.874272
71.340 15.385198
71.345 15.631917
71.350 15.220033
71.355 15.015985
71.360 14.550658
71.365 14.035742
71.370 14.475003
71.375 14.204464
71.380 14.002632
71.385 14.121659
71.390 14.52623
71.395 14.798142
71.400 15.096822
71.405 14.69594
71.410 15.069096
71.415 15.393604
71.420 16.071613
71.425 15.769608
71.430 15.713839
71.435 15.61188
71.440 15.4736
71.445 15.107771
71.450 14.550436
71.455 14.067509
71.460 14.157295
71.465 14.437854
71.470 14.618494
71.475 14.619055
71.480 14.756348
71.485 14.854054
71.490 14.687825
71.495 14.633412
71.500 14.63518
71.505 14.450099
71.510 14.49448
71.515 14.661519
71.520 15.01005
71.525 15.407109
71.530 15.242824
71.535 15.020762
71.540 15.261851
71.545 14.924212
71.550 15.112686
71.555 15.469954
71.560 15.124558
71.565 14.936438
71.570 14.377334
71.575 13.915974
71.580 14.57179
71.585 14.356679
71.590 13.607786
71.595 13.771948
71.600 13.850101
71.605 14.052628
71.610 14.371665
71.615 13.794032
71.620 13.398842
71.625 13.324254
71.630 13.664421
71.635 14.18398
71.640 14.403422
71.645 14.403378
71.650 14.359562
71.655 14.797034
71.660 14.70826
71.665 14.034441
71.670 14.095993
71.675 14.141312
71.680 13.765759
71.685 13.613598
71.690 13.575731
71.695 13.727561
71.700 13.63448
71.705 13.163392
71.710 13.170267
71.715 13.364668
71.720 13.3325
71.725 13.444722
71.730 13.536142
71.735 13.414902
71.740 13.515091
71.745 13.739614
71.750 14.188104
71.755 14.267843
71.760 14.042074
71.765 14.282199
71.770 14.731666
71.775 14.978073
71.780 14.604007
71.785 14.605077
71.790 14.477357
71.795 14.428779
71.800 14.657673
71.805 14.452474
71.810 14.284085
71.815 13.778477
71.820 14.015989
71.825 14.404577
71.830 13.895466
71.835 13.832692
71.840 13.834556
71.845 14.067091
71.850 14.217468
71.855 13.667999
71.860 13.897097
71.865 14.256966
71.870 14.165114
71.875 14.211906
71.880 14.470432
71.885 14.702618
71.890 14.513047
71.895 14.513519
71.900 14.437039
71.905 14.265351
71.910 14.186914
71.915 13.743291
71.920 13.85353
71.925 13.855447
71.930 14.000751
71.935 14.001317
71.940 14.342837
71.945 14.526058
71.950 14.704856
71.955 14.403469
71.960 14.457047
71.965 14.806706
71.970 15.144382
71.975 14.864748
71.980 14.653446
71.985 14.946898
71.990 15.29148
71.995 14.872987
72.000 14.30414
72.005 13.801695
72.010 13.771588
72.015 13.936728
72.020 13.921784
72.025 13.605442
72.030 13.637626
72.035 13.333074
72.040 13.339621
72.045 12.88701
72.050 12.453171
72.055 12.582816
72.060 12.830322
72.065 13.194283
72.070 13.593393
72.075 13.567117
72.080 14.264189
72.085 14.812719
72.090 14.656241
72.095 14.311902
72.100 14.093856
72.105 13.98868
72.110 13.757065
72.115 12.942087
72.120 12.733949
72.125 12.071185
72.130 12.280231
72.135 12.404043
72.140 12.643234
72.145 12.856402
72.150 13.636577
72.155 14.039205
72.160 14.450264
72.165 14.509107
72.170 14.324517
72.175 14.629784
72.180 14.432089
72.185 13.8961
72.190 13.810372
72.195 14.263745
72.200 14.285506
72.205 14.429057
72.210 14.557171
72.215 14.346328
72.220 14.148849
72.225 14.141227
72.230 14.719819
72.235 15.020601
72.240 14.764221
72.245 14.546119
72.250 14.855945
72.255 15.063623
72.260 14.302715
72.265 13.682731
72.270 13.284431
72.275 13.155522
72.280 13.592278
72.285 13.780122
72.290 13.673373
72.295 13.753887
72.300 14.176498
72.305 14.235433
72.310 14.170082
72.315 14.044615
72.320 14.386016
72.325 15.112761
72.330 15.194215
72.335 14.996652
72.340 15.275102
72.345 14.875507
72.350 14.762764
72.355 14.506351
72.360 13.840492
72.365 13.847144
72.370 13.8842
72.375 13.959774
72.380 14.804309
72.385 14.820499
72.390 14.904106
72.395 15.573462
72.400 15.787881
72.405 16.03887
72.410 15.968502
72.415 15.479665
72.420 15.39587
72.425 15.361387
72.430 14.997365
72.435 15.252836
72.440 14.996451
72.445 14.895292
72.450 14.517347
72.455 13.927003
72.460 14.03875
72.465 13.9776
72.470 13.782331
72.475 13.754879
72.480 13.711855
72.485 14.196576
72.490 14.468513
72.495 14.404651
72.500 14.441297
72.505 14.269444
72.510 14.278267
72.515 14.752634
72.520 15.03226
72.525 15.039218
72.530 14.837057
72.535 15.110201
72.540 15.07947
72.545 14.74866
72.550 14.404123
72.555 13.71247
72.560 13.910873
72.565 13.48016
72.570 13.024521
72.575 13.273839
72.580 13.118188
72.585 13.091854
72.590 13.407242
72.595 13.285522
72.600 12.997717
72.605 12.839817
72.610 12.478627
72.615 12.417091
72.620 12.796172
72.625 13.287465
72.630 13.644847
72.635 13.900299
72.640 13.777799
72.645 13.970024
72.650 14.117854
72.655 13.420547
72.660 12.950477
72.665 12.72408
72.670 13.178771
72.675 13.643312
72.680 13.864331
72.685 13.824164
72.690 14.49534
72.695 14.536545
72.700 14.944674
72.705 14.925931
72.710 15.092316
72.715 15.127636
72.720 14.841339
72.725 14.96874
72.730 15.1547
72.735 14.649739
72.740 14.106798
72.745 14.205205
72.750 14.479291
72.755 14.028861
72.760 13.228137
72.765 13.062963
72.770 13.357813
72.775 13.488015
72.780 12.796941
72.785 13.082819
72.790 13.540007
72.795 13.52696
72.800 13.755215
72.805 13.274987
72.810 12.969956
72.815 12.904225
72.820 13.10835
72.825 12.737827
72.830 12.79313
72.835 12.969532
72.840 13.79441
72.845 14.534072
72.850 14.488861
72.855 14.676109
72.860 15.100656
72.865 14.718556
72.870 14.302726
72.875 14.083909
72.880 13.854878
72.885 13.269913
72.890 12.88604
72.895 12.553548
72.900 12.359849
72.905 12.01263
72.910 12.026977
72.915 12.268394
72.920 12.754969
72.925 12.818971
72.930 12.6786
72.935 12.964603
72.940 13.087781
72.945 12.963459
72.950 12.778904
72.955 12.330729
72.960 12.388722
72.965 12.865422
72.970 12.991157
72.975 12.544121
72.980 12.316993
72.985 12.471315
72.990 12.542256
72.995 11.978231
73.000 11.495625
