!@!!GADDS PLOTSO FILE: Chi integration type
!@!!Title/SampleName: map-52
!@!!Comment: ?
!@!!User: Bruker Instrument Administrator
!@!!Site: University of Illinois Chicago
!@!!Frame: map-52_01_000.gfrm
!@!!Wavelengths    1.54184   1.54056   1.54439
!@!!Frame angles: 2Theta: 63.000 Omega: 50.000 Phi: 0.000 Chi: 90.000
!@!!Integration range: 2Theta: 53.000 to 73.000  Gamma: -105.000 to -75.000
!@!!Integration method: bin normalized
!@!N
!@!SS
!@!M
!@!L 0.0 0.0 0.0 0.0
!@!XDegrees
!@!YCounts
53.000 9.456229
53.005 9.365569
53.010 9.210524
53.015 9.384624
53.020 9.225465
53.025 8.960508
53.030 8.639158
53.035 7.600196
53.040 7.145939
53.045 7.081374
53.050 7.237269
53.055 7.397335
53.060 7.67987
53.065 7.927819
53.070 8.330843
53.075 8.680722
53.080 8.483301
53.085 8.442813
53.090 8.237268
53.095 7.716497
53.100 7.909702
53.105 8.26548
53.110 8.051232
53.115 8.148793
53.120 7.969052
53.125 8.192551
53.130 8.195484
53.135 7.767179
53.140 7.588764
53.145 7.560101
53.150 7.442662
53.155 7.622923
53.160 7.628269
53.165 7.515833
53.170 7.574912
53.175 7.593816
53.180 7.88596
53.185 7.654667
53.190 7.47961
53.195 7.275407
53.200 7.458508
53.205 7.760656
53.210 7.593152
53.215 7.314938
53.220 7.255195
53.225 7.576717
53.230 8.130331
53.235 8.16776
53.240 8.195791
53.245 8.607336
53.250 9.126926
53.255 9.215126
53.260 9.211363
53.265 9.282145
53.270 9.442861
53.275 9.526561
53.280 9.284999
53.285 8.933134
53.290 9.205313
53.295 9.277728
53.300 8.794517
53.305 8.414188
53.310 8.451748
53.315 8.561796
53.320 8.797618
53.325 8.433454
53.330 8.511774
53.335 8.957567
53.340 8.946493
53.345 8.893801
53.350 8.868846
53.355 8.736708
53.360 8.949996
53.365 8.649671
53.370 8.55504
53.375 8.408082
53.380 8.130692
53.385 8.316805
53.390 8.408305
53.395 8.446399
53.400 8.443344
53.405 8.335563
53.410 8.335543
53.415 8.107224
53.420 8.029832
53.425 7.682377
53.430 7.554976
53.435 7.711952
53.440 8.014369
53.445 8.372357
53.450 8.372762
53.455 8.389894
53.460 8.85535
53.465 9.107474
53.470 9.019619
53.475 9.113994
53.480 9.437319
53.485 9.93679
53.490 9.922392
53.495 9.809298
53.500 9.776896
53.505 9.765822
53.510 9.269055
53.515 8.577867
53.520 8.356891
53.525 8.188623
53.530 7.895024
53.535 7.540792
53.540 7.2585
53.545 7.267545
53.550 7.368435
53.555 7.735493
53.560 7.806617
53.565 7.787407
53.570 7.976721
53.575 8.229879
53.580 8.350491
53.585 8.463586
53.590 8.295834
53.595 8.256028
53.600 8.506026
53.605 8.460481
53.610 8.510448
53.615 8.344848
53.620 8.468826
53.625 8.908744
53.630 8.996842
53.635 9.408595
53.640 9.58367
53.645 9.746961
53.650 10.076697
53.655 9.912837
53.660 9.894856
53.665 9.738659
53.670 9.657413
53.675 9.626984
53.680 9.637735
53.685 9.439148
53.690 9.835202
53.695 9.840087
53.700 9.938746
53.705 9.946665
53.710 9.788834
53.715 9.488387
53.720 9.239409
53.725 9.000769
53.730 9.153706
53.735 9.028366
53.740 8.739924
53.745 8.925629
53.750 9.133214
53.755 9.541574
53.760 8.795633
53.765 8.547244
53.770 8.866573
53.775 8.995051
53.780 9.331944
53.785 9.285611
53.790 9.085902
53.795 9.477739
53.800 9.837891
53.805 9.62615
53.810 9.850833
53.815 8.796832
53.820 8.696052
53.825 8.546195
53.830 8.054789
53.835 7.949729
53.840 8.215926
53.845 8.047184
53.850 8.040548
53.855 7.765507
53.860 8.04436
53.865 8.492212
53.870 8.651095
53.875 8.702163
53.880 9.042857
53.885 9.846089
53.890 9.973257
53.895 10.092393
53.900 9.829015
53.905 9.339111
53.910 9.773816
53.915 10.086395
53.920 9.953752
53.925 9.753489
53.930 9.641642
53.935 9.676907
53.940 9.137828
53.945 8.792844
53.950 8.444862
53.955 8.547314
53.960 8.71151
53.965 8.567304
53.970 9.085238
53.975 9.328226
53.980 9.584306
53.985 9.472793
53.990 9.52775
53.995 9.50664
54.000 9.242207
54.005 8.915609
54.010 8.897754
54.015 8.762338
54.020 9.278853
54.025 9.575195
54.030 10.131824
54.035 10.221482
54.040 10.268096
54.045 10.027011
54.050 9.76453
54.055 9.509939
54.060 9.149861
54.065 9.229699
54.070 9.588675
54.075 9.380802
54.080 9.593849
54.085 9.576991
54.090 9.784828
54.095 9.603061
54.100 9.636378
54.105 10.142002
54.110 10.634171
54.115 10.797819
54.120 10.807946
54.125 10.809639
54.130 10.740419
54.135 10.517065
54.140 9.991529
54.145 9.855549
54.150 9.985171
54.155 10.152517
54.160 10.422165
54.165 11.073191
54.170 11.040252
54.175 11.651743
54.180 11.785168
54.185 11.6616
54.190 11.164301
54.195 10.726194
54.200 10.161146
54.205 9.448711
54.210 8.856073
54.215 8.464416
54.220 8.470643
54.225 8.780532
54.230 8.768291
54.235 8.931738
54.240 9.727898
54.245 9.848924
54.250 9.901321
54.255 9.611314
54.260 10.059381
54.265 10.476062
54.270 10.898396
54.275 11.26389
54.280 11.804408
54.285 12.230247
54.290 12.43578
54.295 11.847851
54.300 11.356664
54.305 11.176848
54.310 10.714409
54.315 10.099457
54.320 9.864923
54.325 9.589699
54.330 9.931622
54.335 10.546672
54.340 10.484976
54.345 10.517935
54.350 10.642985
54.355 10.73173
54.360 10.360463
54.365 10.153449
54.370 10.062638
54.375 9.96246
54.380 10.031393
54.385 10.408244
54.390 10.709975
54.395 11.111527
54.400 10.919015
54.405 10.682104
54.410 10.51584
54.415 10.046298
54.420 9.833184
54.425 10.204455
54.430 10.548949
54.435 10.630955
54.440 11.039454
54.445 11.046861
54.450 11.195941
54.455 11.251775
54.460 11.140012
54.465 10.948606
54.470 10.83621
54.475 10.58047
54.480 10.757601
54.485 10.609958
54.490 10.338581
54.495 9.914248
54.500 9.755378
54.505 9.524349
54.510 9.706192
54.515 9.853292
54.520 9.685383
54.525 9.479894
54.530 9.899816
54.535 9.96803
54.540 10.283863
54.545 9.84096
54.550 9.757926
54.555 10.111842
54.560 10.014668
54.565 9.479555
54.570 9.422086
54.575 9.663574
54.580 9.903693
54.585 9.712443
54.590 9.692613
54.595 10.095509
54.600 10.562775
54.605 9.968426
54.610 9.746118
54.615 10.004951
54.620 10.3276
54.625 10.221309
54.630 9.746976
54.635 9.787906
54.640 9.818539
54.645 9.398029
54.650 9.019579
54.655 9.078003
54.660 9.146583
54.665 9.462496
54.670 9.472217
54.675 9.247522
54.680 9.900781
54.685 9.87688
54.690 9.838957
54.695 9.723406
54.700 9.579853
54.705 9.76344
54.710 9.935458
54.715 9.583055
54.720 9.242133
54.725 9.292019
54.730 9.776913
54.735 9.641918
54.740 10.085061
54.745 10.725265
54.750 11.431771
54.755 11.744513
54.760 11.723818
54.765 11.519245
54.770 11.005799
54.775 10.31389
54.780 9.845357
54.785 9.448511
54.790 9.324397
54.795 9.300229
54.800 9.106863
54.805 9.701901
54.810 9.620525
54.815 9.405221
54.820 9.829473
54.825 10.263056
54.830 9.988279
54.835 10.091809
54.840 10.081762
54.845 10.544559
54.850 10.923969
54.855 10.591615
54.860 10.40577
54.865 10.800154
54.870 10.895814
54.875 10.853502
54.880 10.702737
54.885 10.40273
54.890 10.131336
54.895 10.546234
54.900 10.45391
54.905 10.442462
54.910 11.035924
54.915 11.476773
54.920 11.891059
54.925 12.424895
54.930 12.336657
54.935 12.662691
54.940 12.733909
54.945 12.126569
54.950 11.919914
54.955 11.933944
54.960 11.824935
54.965 11.683727
54.970 11.699759
54.975 11.78729
54.980 11.818467
54.985 11.896449
54.990 11.758981
54.995 11.196828
55.000 10.829319
55.005 10.744571
55.010 10.638788
55.015 10.161838
55.020 9.571216
55.025 9.60546
55.030 9.810758
55.035 9.84438
55.040 9.53829
55.045 9.510779
55.050 9.545541
55.055 10.071906
55.060 10.184335
55.065 10.505816
55.070 10.790682
55.075 11.003798
55.080 11.197454
55.085 11.438148
55.090 11.546511
55.095 11.800189
55.100 11.590266
55.105 11.539099
55.110 11.430988
55.115 11.404696
55.120 11.565002
55.125 10.58093
55.130 10.450919
55.135 10.904943
55.140 11.290132
55.145 11.785049
55.150 11.452554
55.155 11.357348
55.160 11.858628
55.165 11.788908
55.170 11.685998
55.175 11.382388
55.180 11.796799
55.185 12.503929
55.190 12.557694
55.195 12.482076
55.200 12.294288
55.205 11.858201
55.210 11.639854
55.215 11.15919
55.220 10.544571
55.225 9.871118
55.230 9.609716
55.235 9.498313
55.240 10.12551
55.245 10.706788
55.250 10.588669
55.255 11.157787
55.260 11.759041
55.265 12.279136
55.270 12.307771
55.275 11.812832
55.280 11.543743
55.285 11.60329
55.290 11.729856
55.295 11.336872
55.300 11.077465
55.305 10.554241
55.310 10.823221
55.315 10.822174
55.320 10.381285
55.325 10.222941
55.330 10.237823
55.335 10.267584
55.340 10.352304
55.345 10.048256
55.350 9.689634
55.355 9.619721
55.360 9.807876
55.365 9.713526
55.370 10.316417
55.375 10.453634
55.380 10.555987
55.385 11.08795
55.390 11.154761
55.395 10.774877
55.400 11.159711
55.405 10.791855
55.410 10.898221
55.415 10.996731
55.420 11.102114
55.425 11.291972
55.430 11.503293
55.435 11.200046
55.440 11.117724
55.445 11.009504
55.450 10.959263
55.455 11.103291
55.460 11.22553
55.465 11.360264
55.470 11.427108
55.475 11.509434
55.480 11.409544
55.485 10.841946
55.490 10.705173
55.495 10.289571
55.500 9.960877
55.505 9.76129
55.510 9.514565
55.515 10.107684
55.520 10.244361
55.525 9.775614
55.530 9.42376
55.535 9.848278
55.540 10.039628
55.545 10.176692
55.550 10.12179
55.555 10.536166
55.560 11.233531
55.565 11.674548
55.570 11.123473
55.575 11.228021
55.580 11.30342
55.585 11.270311
55.590 11.349274
55.595 11.178722
55.600 10.966314
55.605 11.325055
55.610 11.043354
55.615 10.494759
55.620 10.180414
55.625 10.158863
55.630 10.052279
55.635 10.059178
55.640 9.923276
55.645 10.188232
55.650 10.500215
55.655 10.430834
55.660 10.725958
55.665 11.362367
55.670 11.061524
55.675 10.76684
55.680 10.634828
55.685 10.84234
55.690 10.886825
55.695 10.610683
55.700 10.407213
55.705 10.898663
55.710 11.163393
55.715 11.221308
55.720 10.595836
55.725 10.534631
55.730 10.654903
55.735 10.672352
55.740 10.456896
55.745 9.972708
55.750 9.98684
55.755 10.333284
55.760 10.35363
55.765 10.403117
55.770 9.997267
55.775 10.435514
55.780 10.849355
55.785 11.058116
55.790 10.685017
55.795 10.24283
55.800 9.838092
55.805 10.113503
55.810 10.334797
55.815 10.630466
55.820 10.623985
55.825 11.043733
55.830 11.523135
55.835 11.825763
55.840 11.941709
55.845 11.727542
55.850 11.600003
55.855 11.638448
55.860 11.575984
55.865 11.325096
55.870 10.95474
55.875 11.023863
55.880 11.678387
55.885 12.147504
55.890 12.01963
55.895 12.588673
55.900 13.355805
55.905 13.755888
55.910 13.398979
55.915 12.903195
55.920 12.858453
55.925 13.207413
55.930 12.689904
55.935 12.415046
55.940 12.434242
55.945 12.794878
55.950 12.521303
55.955 12.244557
55.960 12.192329
55.965 12.599412
55.970 12.752365
55.975 13.210229
55.980 13.491119
55.985 13.572987
55.990 13.670407
55.995 13.114116
56.000 12.910825
56.005 12.455498
56.010 11.780019
56.015 11.708572
56.020 11.356683
56.025 11.044779
56.030 11.113638
56.035 11.173489
56.040 11.634548
56.045 11.801637
56.050 11.440576
56.055 11.520224
56.060 11.947356
56.065 12.240474
56.070 12.273264
56.075 11.403202
56.080 10.986176
56.085 11.142096
56.090 11.213268
56.095 11.288225
56.100 11.191978
56.105 11.137966
56.110 11.608699
56.115 11.718084
56.120 11.386122
56.125 10.931299
56.130 10.370261
56.135 10.248375
56.140 10.464252
56.145 10.951806
56.150 10.756494
56.155 11.20884
56.160 11.653863
56.165 11.663005
56.170 11.699787
56.175 11.747402
56.180 11.578453
56.185 12.08063
56.190 12.05954
56.195 11.996621
56.200 11.854715
56.205 11.329541
56.210 11.139874
56.215 11.136939
56.220 11.070845
56.225 11.498368
56.230 11.87846
56.235 12.351763
56.240 12.730437
56.245 12.771712
56.250 12.661
56.255 12.695991
56.260 12.279531
56.265 12.290728
56.270 11.864524
56.275 11.498732
56.280 11.410037
56.285 11.163485
56.290 10.98795
56.295 11.108789
56.300 10.948834
56.305 11.097054
56.310 11.2796
56.315 11.346723
56.320 11.624713
56.325 11.966744
56.330 11.919373
56.335 12.092616
56.340 12.555609
56.345 12.702444
56.350 12.928308
56.355 12.988956
56.360 13.069958
56.365 13.334086
56.370 13.563631
56.375 13.281091
56.380 13.233591
56.385 12.767566
56.390 12.341958
56.395 12.144832
56.400 11.832531
56.405 11.54918
56.410 11.456156
56.415 11.48486
56.420 11.437029
56.425 11.119221
56.430 11.315455
56.435 11.486649
56.440 11.302381
56.445 11.412001
56.450 11.633561
56.455 11.98584
56.460 11.950381
56.465 11.431396
56.470 11.159259
56.475 11.30488
56.480 11.769326
56.485 11.575578
56.490 11.956657
56.495 12.317515
56.500 12.646002
56.505 12.709832
56.510 12.424491
56.515 12.149104
56.520 12.632579
56.525 12.517638
56.530 12.066507
56.535 12.018478
56.540 12.384512
56.545 12.464972
56.550 12.457557
56.555 12.307676
56.560 12.200863
56.565 12.325678
56.570 12.558103
56.575 12.519549
56.580 12.471769
56.585 12.344331
56.590 11.930832
56.595 12.729103
56.600 13.015997
56.605 12.977908
56.610 13.29619
56.615 13.486995
56.620 13.839637
56.625 14.066477
56.630 13.652889
56.635 13.576571
56.640 13.341609
56.645 13.275779
56.650 13.301712
56.655 13.741437
56.660 14.435226
56.665 15.053254
56.670 14.861264
56.675 14.797921
56.680 14.670056
56.685 14.126874
56.690 13.389335
56.695 12.536446
56.700 11.900999
56.705 11.917038
56.710 11.834173
56.715 11.931904
56.720 12.362129
56.725 12.35259
56.730 12.131379
56.735 12.832474
56.740 13.386508
56.745 13.506896
56.750 13.221685
56.755 12.787989
56.760 12.879178
56.765 12.974165
56.770 12.296407
56.775 11.926334
56.780 11.971511
56.785 12.269693
56.790 12.617065
56.795 13.476042
56.800 13.5923
56.805 13.628219
56.810 13.693128
56.815 13.684173
56.820 13.510489
56.825 13.611264
56.830 13.405263
56.835 13.434988
56.840 13.051171
56.845 13.103953
56.850 12.860763
56.855 12.90279
56.860 12.435319
56.865 12.289145
56.870 13.022995
56.875 13.189849
56.880 13.439418
56.885 13.602094
56.890 13.446096
56.895 13.390018
56.900 12.70962
56.905 11.704785
56.910 11.690682
56.915 11.479616
56.920 11.189798
56.925 11.527316
56.930 11.590248
56.935 12.212333
56.940 12.547524
56.945 12.287201
56.950 12.308089
56.955 12.426233
56.960 12.405123
56.965 12.485569
56.970 12.287434
56.975 12.532804
56.980 13.20532
56.985 13.833921
56.990 13.99871
56.995 13.636206
57.000 13.393127
57.005 12.929821
57.010 12.61526
57.015 11.930135
57.020 10.998522
57.025 11.080958
57.030 11.256739
57.035 11.412923
57.040 11.96384
57.045 12.047144
57.050 12.303745
57.055 12.655993
57.060 12.253324
57.065 12.083528
57.070 12.082491
57.075 11.671775
57.080 12.184548
57.085 12.668244
57.090 12.538115
57.095 12.807631
57.100 12.746633
57.105 12.405324
57.110 11.955852
57.115 11.426243
57.120 11.341218
57.125 11.990745
57.130 12.490555
57.135 12.664582
57.140 12.895475
57.145 14.007863
57.150 14.190193
57.155 13.880323
57.160 13.512747
57.165 13.372019
57.170 13.378133
57.175 13.489895
57.180 13.428713
57.185 13.753284
57.190 13.791586
57.195 13.476749
57.200 13.581751
57.205 14.097902
57.210 14.847206
57.215 14.736606
57.220 14.208188
57.225 14.290144
57.230 14.392776
57.235 13.72016
57.240 13.32815
57.245 12.655592
57.250 12.611886
57.255 12.925504
57.260 13.008612
57.265 13.171204
57.270 13.510274
57.275 13.93333
57.280 13.864235
57.285 13.855043
57.290 13.573531
57.295 13.387923
57.300 13.574632
57.305 13.699313
57.310 13.108722
57.315 12.080313
57.320 11.94518
57.325 12.322816
57.330 12.126406
57.335 11.593979
57.340 11.467532
57.345 12.159046
57.350 13.508964
57.355 13.37761
57.360 12.922194
57.365 13.444957
57.370 13.564404
57.375 13.660789
57.380 13.284736
57.385 12.994537
57.390 13.238813
57.395 13.938139
57.400 13.839584
57.405 14.030022
57.410 14.306808
57.415 14.242299
57.420 14.406181
57.425 14.350326
57.430 13.851697
57.435 14.028324
57.440 14.63917
57.445 14.4863
57.450 14.477393
57.455 13.815802
57.460 13.684116
57.465 14.128507
57.470 13.85625
57.475 13.513658
57.480 13.383666
57.485 13.274142
57.490 14.389985
57.495 14.554245
57.500 14.27769
57.505 13.913774
57.510 13.482104
57.515 13.280711
57.520 13.637983
57.525 13.216171
57.530 13.402834
57.535 13.909489
57.540 14.250108
57.545 14.141405
57.550 14.615435
57.555 14.533428
57.560 14.242413
57.565 13.643322
57.570 13.704432
57.575 13.754716
57.580 14.108336
57.585 14.075265
57.590 14.155036
57.595 14.063104
57.600 13.457361
57.605 13.459682
57.610 12.865634
57.615 12.250434
57.620 12.199989
57.625 12.581275
57.630 12.941709
57.635 13.485519
57.640 13.680586
57.645 14.304753
57.650 14.641858
57.655 14.730162
57.660 14.131065
57.665 13.944578
57.670 13.863515
57.675 13.354187
57.680 13.181625
57.685 12.978798
57.690 13.04053
57.695 12.979059
57.700 13.729813
57.705 14.105387
57.710 14.283016
57.715 14.753278
57.720 14.835139
57.725 14.815132
57.730 15.009276
57.735 14.301345
57.740 13.924365
57.745 13.717332
57.750 13.702042
57.755 13.937602
57.760 13.656689
57.765 14.037333
57.770 14.671649
57.775 14.975555
57.780 14.80866
57.785 14.365215
57.790 14.126789
57.795 14.304167
57.800 13.978058
57.805 13.44006
57.810 13.440213
57.815 14.110568
57.820 14.055938
57.825 14.007778
57.830 13.987903
57.835 13.858221
57.840 13.798832
57.845 13.779113
57.850 13.735717
57.855 14.517416
57.860 14.610123
57.865 14.636636
57.870 15.272033
57.875 15.395761
57.880 15.64245
57.885 15.521588
57.890 15.471272
57.895 15.505263
57.900 15.993548
57.905 15.942168
57.910 15.930367
57.915 16.045914
57.920 16.358679
57.925 16.142794
57.930 16.247835
57.935 15.372833
57.940 14.557033
57.945 14.360375
57.950 13.958789
57.955 13.775723
57.960 13.915246
57.965 13.823006
57.970 14.037392
57.975 14.698631
57.980 14.381068
57.985 14.235067
57.990 14.290019
57.995 14.080019
58.000 14.536757
58.005 14.850518
58.010 15.151535
58.015 16.081701
58.020 16.122051
58.025 15.998048
58.030 15.80594
58.035 15.196804
58.040 14.560353
58.045 14.250857
58.050 13.693485
58.055 13.810431
58.060 13.830625
58.065 13.3968
58.070 13.672763
58.075 14.089869
58.080 14.189948
58.085 14.637761
58.090 14.560133
58.095 14.579014
58.100 15.721694
58.105 15.783464
58.110 15.493271
58.115 15.437814
58.120 15.058482
58.125 15.054295
58.130 14.8414
58.135 14.645092
58.140 14.450748
58.145 14.016347
58.150 13.437757
58.155 13.596152
58.160 13.332903
58.165 12.920212
58.170 12.65582
58.175 12.518613
58.180 12.449876
58.185 12.669144
58.190 12.399399
58.195 12.857182
58.200 13.230967
58.205 13.45044
58.210 13.746295
58.215 14.37507
58.220 14.800852
58.225 15.180842
58.230 14.974227
58.235 14.812358
58.240 14.87711
58.245 14.990186
58.250 14.523838
58.255 14.327696
58.260 14.156467
58.265 14.462368
58.270 14.35679
58.275 13.905252
58.280 13.719148
58.285 13.599699
58.290 12.795233
58.295 12.398666
58.300 12.325528
58.305 12.594167
58.310 12.534644
58.315 12.660541
58.320 13.084075
58.325 13.954461
58.330 14.134191
58.335 14.178144
58.340 14.064745
58.345 13.832032
58.350 14.302688
58.355 14.410696
58.360 14.360438
58.365 14.544466
58.370 14.405707
58.375 14.755227
58.380 14.909646
58.385 14.271708
58.390 14.237962
58.395 13.918931
58.400 13.954011
58.405 13.980889
58.410 13.817387
58.415 13.761065
58.420 13.568198
58.425 12.930333
58.430 12.70113
58.435 12.54649
58.440 12.400405
58.445 12.746817
58.450 13.038935
58.455 13.569604
58.460 14.518672
58.465 14.985988
58.470 15.338795
58.475 15.654856
58.480 15.727998
58.485 15.951976
58.490 15.745107
58.495 15.389054
58.500 15.127361
58.505 14.757877
58.510 14.819854
58.515 14.980021
58.520 14.607258
58.525 15.061087
58.530 15.228098
58.535 15.138476
58.540 15.626848
58.545 15.561425
58.550 14.954886
58.555 15.142589
58.560 14.967132
58.565 14.714007
58.570 14.888727
58.575 14.706949
58.580 15.003131
58.585 15.390276
58.590 15.563993
58.595 15.660153
58.600 15.570838
58.605 15.578074
58.610 15.451372
58.615 15.501158
58.620 15.694004
58.625 15.420915
58.630 15.133876
58.635 15.237912
58.640 15.026652
58.645 14.819036
58.650 14.426435
58.655 14.204303
58.660 14.414848
58.665 14.741472
58.670 14.820824
58.675 15.37871
58.680 15.970017
58.685 16.479094
58.690 16.930498
58.695 17.54047
58.700 17.826288
58.705 17.651825
58.710 16.816864
58.715 16.241404
58.720 15.933254
58.725 15.55679
58.730 15.221018
58.735 14.798553
58.740 14.81997
58.745 14.779075
58.750 14.599831
58.755 14.45407
58.760 14.817011
58.765 14.614617
58.770 14.67889
58.775 14.918223
58.780 15.675359
58.785 15.669129
58.790 15.928807
58.795 15.884463
58.800 16.135195
58.805 16.192255
58.810 16.187759
58.815 15.555183
58.820 15.922619
58.825 15.796104
58.830 15.305179
58.835 14.388741
58.840 14.842324
58.845 14.785216
58.850 14.467278
58.855 14.125132
58.860 13.655766
58.865 13.89538
58.870 14.425989
58.875 14.137669
58.880 14.400342
58.885 14.698651
58.890 15.258842
58.895 15.66974
58.900 15.176146
58.905 14.882882
58.910 14.129579
58.915 13.758831
58.920 13.91118
58.925 13.414363
58.930 13.757958
58.935 13.815462
58.940 14.408722
58.945 14.721576
58.950 15.029296
58.955 15.284961
58.960 15.51059
58.965 15.482501
58.970 15.819084
58.975 14.99068
58.980 15.09936
58.985 15.097992
58.990 14.573253
58.995 14.661754
59.000 14.592809
59.005 15.213586
59.010 15.554048
59.015 15.816984
59.020 15.832231
59.025 15.723425
59.030 15.617628
59.035 15.44888
59.040 15.22386
59.045 15.769877
59.050 15.851582
59.055 15.553604
59.060 15.509991
59.065 15.50483
59.070 15.803686
59.075 16.064009
59.080 15.96755
59.085 15.68518
59.090 15.836722
59.095 16.13483
59.100 16.480415
59.105 15.962733
59.110 15.971465
59.115 15.864023
59.120 16.368185
59.125 16.653347
59.130 16.831987
59.135 16.962238
59.140 17.385187
59.145 16.961992
59.150 16.803303
59.155 16.213463
59.160 16.620342
59.165 16.800489
59.170 16.575466
59.175 15.915302
59.180 16.653849
59.185 17.249903
59.190 17.424475
59.195 16.822065
59.200 16.75202
59.205 17.131809
59.210 17.459066
59.215 17.141392
59.220 16.479654
59.225 16.366344
59.230 16.615862
59.235 16.055393
59.240 15.465866
59.245 15.349491
59.250 15.878636
59.255 16.437798
59.260 16.634321
59.265 16.485916
59.270 17.071651
59.275 17.468599
59.280 17.739437
59.285 17.460358
59.290 17.500084
59.295 17.774672
59.300 17.72147
59.305 17.273537
59.310 17.043537
59.315 17.26029
59.320 17.719309
59.325 17.367157
59.330 17.796326
59.335 18.296555
59.340 18.003361
59.345 18.32304
59.350 17.954781
59.355 17.905621
59.360 17.826839
59.365 17.643156
59.370 17.607763
59.375 17.977562
59.380 17.89669
59.385 17.833364
59.390 17.531832
59.395 17.57902
59.400 17.519146
59.405 18.0611
59.410 18.12298
59.415 17.929373
59.420 17.484137
59.425 17.608847
59.430 17.698311
59.435 17.395645
59.440 17.151232
59.445 17.187809
59.450 17.537916
59.455 17.921438
59.460 18.457596
59.465 19.021706
59.470 18.533892
59.475 18.152822
59.480 18.400328
59.485 18.378212
59.490 18.661425
59.495 18.799313
59.500 18.368399
59.505 18.408215
59.510 18.594112
59.515 18.724518
59.520 18.35008
59.525 17.20793
59.530 16.132309
59.535 15.680299
59.540 15.697506
59.545 15.828444
59.550 15.328109
59.555 15.59845
59.560 16.328693
59.565 16.683512
59.570 17.624338
59.575 17.822239
59.580 18.20919
59.585 18.622107
59.590 18.686869
59.595 19.14397
59.600 19.291689
59.605 18.622755
59.610 18.776133
59.615 18.42675
59.620 18.574129
59.625 18.525755
59.630 18.398577
59.635 18.73971
59.640 19.473709
59.645 19.5972
59.650 19.186869
59.655 18.842178
59.660 18.735777
59.665 18.794361
59.670 18.388672
59.675 18.382164
59.680 18.328875
59.685 18.810759
59.690 18.602968
59.695 18.680597
59.700 19.306101
59.705 19.759254
59.710 19.893805
59.715 20.029856
59.720 19.701645
59.725 20.108068
59.730 20.399248
59.735 20.135056
59.740 20.543461
59.745 20.388388
59.750 20.376484
59.755 21.095083
59.760 21.430635
59.765 20.826632
59.770 20.365536
59.775 20.226112
59.780 20.0368
59.785 19.910688
59.790 19.379145
59.795 19.307621
59.800 19.433233
59.805 19.556038
59.810 19.103504
59.815 18.696053
59.820 18.567593
59.825 18.752829
59.830 18.797403
59.835 18.832819
59.840 19.121954
59.845 19.577961
59.850 19.884871
59.855 19.41923
59.860 19.320778
59.865 18.985758
59.870 19.058205
59.875 19.171551
59.880 19.033978
59.885 19.04068
59.890 19.908766
59.895 20.099617
59.900 20.091679
59.905 19.950317
59.910 20.107084
59.915 20.635077
59.920 20.911697
59.925 21.083652
59.930 20.972492
59.935 21.071112
59.940 21.373606
59.945 20.89114
59.950 20.462999
59.955 20.245419
59.960 20.301765
59.965 20.637276
59.970 21.054684
59.975 21.167583
59.980 21.079914
59.985 21.2115
59.990 21.682224
59.995 21.568684
60.000 21.59334
60.005 21.54455
60.010 21.772587
60.015 22.033897
60.020 22.102549
60.025 21.413843
60.030 21.010996
60.035 20.618362
60.040 20.709967
60.045 20.776474
60.050 21.180786
60.055 21.429445
60.060 22.289686
60.065 22.927872
60.070 23.288506
60.075 22.736984
60.080 22.366438
60.085 22.211277
60.090 21.530455
60.095 20.470367
60.100 20.441093
60.105 21.198631
60.110 21.582102
60.115 21.475475
60.120 21.401993
60.125 22.198763
60.130 22.906466
60.135 23.03653
60.140 22.206347
60.145 22.314665
60.150 22.570707
60.155 22.577002
60.160 22.229902
60.165 22.073318
60.170 22.042389
60.175 22.33503
60.180 22.049696
60.185 22.446289
60.190 22.741302
60.195 22.598114
60.200 22.312584
60.205 21.975437
60.210 21.715042
60.215 21.916702
60.220 20.901253
60.225 20.702612
60.230 20.643009
60.235 20.809708
60.240 21.383675
60.245 21.123121
60.250 21.664827
60.255 21.415304
60.260 20.556799
60.265 20.553198
60.270 20.711769
60.275 20.843273
60.280 21.55341
60.285 21.436365
60.290 22.148785
60.295 22.710508
60.300 22.579679
60.305 21.92004
60.310 21.258516
60.315 20.971233
60.320 20.52894
60.325 19.905172
60.330 20.464411
60.335 21.096804
60.340 21.237186
60.345 21.299101
60.350 20.78372
60.355 20.280275
60.360 20.342791
60.365 19.368942
60.370 18.932722
60.375 19.10371
60.380 19.47234
60.385 19.828615
60.390 20.432844
60.395 20.881411
60.400 20.785784
60.405 20.465439
60.410 20.309099
60.415 19.69698
60.420 19.110823
60.425 19.297024
60.430 19.521166
60.435 19.856583
60.440 20.059349
60.445 19.725433
60.450 19.646109
60.455 19.657495
60.460 19.092621
60.465 18.938852
60.470 19.297663
60.475 19.617113
60.480 19.520615
60.485 20.164557
60.490 20.621351
60.495 21.416235
60.500 21.727503
60.505 21.484184
60.510 21.240416
60.515 21.556025
60.520 21.463518
60.525 21.03253
60.530 19.931156
60.535 19.758049
60.540 19.824091
60.545 19.350706
60.550 18.971144
60.555 19.0721
60.560 18.941225
60.565 18.4895
60.570 17.687302
60.575 17.483606
60.580 17.823416
60.585 17.781742
60.590 17.655249
60.595 18.133062
60.600 18.496469
60.605 18.483747
60.610 18.9093
60.615 19.208801
60.620 19.149532
60.625 18.6639
60.630 18.709381
60.635 19.134579
60.640 18.944502
60.645 18.636782
60.650 18.54739
60.655 18.153509
60.660 18.264256
60.665 18.039219
60.670 17.646265
60.675 17.977131
60.680 17.426916
60.685 17.153023
60.690 17.239973
60.695 17.299034
60.700 17.565521
60.705 18.367373
60.710 19.045713
60.715 19.292551
60.720 19.453201
60.725 19.632959
60.730 19.641888
60.735 19.701628
60.740 19.155382
60.745 18.613239
60.750 18.24725
60.755 17.994493
60.760 18.43705
60.765 18.634109
60.770 18.74288
60.775 18.772448
60.780 19.601492
60.785 19.680193
60.790 20.226055
60.795 20.077627
60.800 19.52499
60.805 19.104006
60.810 18.895224
60.815 18.430328
60.820 18.835188
60.825 18.472153
60.830 18.44058
60.835 18.47608
60.840 18.441332
60.845 18.043095
60.850 18.178427
60.855 17.813103
60.860 17.427439
60.865 16.563351
60.870 15.930305
60.875 15.646561
60.880 15.767384
60.885 15.056181
60.890 15.433929
60.895 15.971333
60.900 16.446314
60.905 16.92202
60.910 17.327852
60.915 17.896235
60.920 18.888186
60.925 18.79878
60.930 18.749407
60.935 19.110552
60.940 19.383936
60.945 19.2038
60.950 18.254692
60.955 18.007158
60.960 18.301762
60.965 18.084429
60.970 18.375519
60.975 18.360809
60.980 17.945478
60.985 18.235172
60.990 17.842146
60.995 17.291285
61.000 17.386473
61.005 16.828688
61.010 16.463551
61.015 16.734009
61.020 16.656908
61.025 16.404894
61.030 16.596819
61.035 16.265596
61.040 16.555508
61.045 16.611513
61.050 16.725306
61.055 16.447609
61.060 16.376177
61.065 16.498844
61.070 16.110876
61.075 16.138239
61.080 16.200821
61.085 15.790354
61.090 15.723077
61.095 15.61381
61.100 15.145479
61.105 15.833523
61.110 15.604845
61.115 15.620561
61.120 15.754068
61.125 16.318357
61.130 16.703535
61.135 17.021788
61.140 16.475239
61.145 16.695927
61.150 16.703499
61.155 16.725906
61.160 17.437878
61.165 17.105825
61.170 17.397282
61.175 17.726851
61.180 17.612923
61.185 17.503515
61.190 17.5131
61.195 17.318905
61.200 17.64006
61.205 17.570011
61.210 17.433353
61.215 17.328426
61.220 17.733768
61.225 17.659035
61.230 16.984081
61.235 16.589689
61.240 16.780399
61.245 17.260429
61.250 17.49526
61.255 17.417273
61.260 17.115301
61.265 17.239697
61.270 17.772318
61.275 17.598763
61.280 17.385141
61.285 17.193125
61.290 16.939518
61.295 17.154562
61.300 17.004587
61.305 17.067282
61.310 16.658171
61.315 16.262003
61.320 16.441595
61.325 16.254776
61.330 16.25696
61.335 16.011818
61.340 15.696086
61.345 15.679558
61.350 15.729681
61.355 15.440475
61.360 16.039085
61.365 15.999305
61.370 15.880935
61.375 15.99029
61.380 16.060259
61.385 16.262749
61.390 16.10293
61.395 16.04063
61.400 15.934121
61.405 15.940953
61.410 15.712668
61.415 15.672719
61.420 15.849374
61.425 16.133202
61.430 15.799504
61.435 16.210808
61.440 17.074228
61.445 17.380196
61.450 17.822672
61.455 18.042444
61.460 18.242872
61.465 18.67975
61.470 18.129961
61.475 17.783649
61.480 18.279257
61.485 18.477427
61.490 17.696543
61.495 17.333227
61.500 17.830572
61.505 17.6399
61.510 16.793283
61.515 15.93589
61.520 15.550447
61.525 15.760176
61.530 15.920916
61.535 15.488564
61.540 15.650723
61.545 15.897068
61.550 15.884249
61.555 16.123018
61.560 16.36772
61.565 16.263079
61.570 16.190615
61.575 16.457399
61.580 16.90962
61.585 16.853064
61.590 16.193552
61.595 15.744164
61.600 15.466167
61.605 15.321083
61.610 15.578286
61.615 15.105577
61.620 15.072904
61.625 15.290446
61.630 14.940221
61.635 15.289681
61.640 15.69893
61.645 15.897042
61.650 16.883808
61.655 16.800634
61.660 16.551958
61.665 16.785364
61.670 16.199076
61.675 15.623384
61.680 14.787953
61.685 13.770306
61.690 14.065703
61.695 14.431679
61.700 14.357575
61.705 14.759033
61.710 15.113608
61.715 15.54004
61.720 16.086557
61.725 16.019863
61.730 16.383816
61.735 16.780622
61.740 16.771952
61.745 17.022499
61.750 16.958319
61.755 16.865913
61.760 17.306622
61.765 17.05847
61.770 17.0284
61.775 17.213434
61.780 17.10346
61.785 16.862909
61.790 16.471861
61.795 15.731683
61.800 15.853117
61.805 15.961709
61.810 15.997601
61.815 15.478836
61.820 16.079336
61.825 16.555861
61.830 17.079199
61.835 16.609858
61.840 16.65814
61.845 16.502447
61.850 16.671389
61.855 16.03031
61.860 16.216496
61.865 16.065948
61.870 16.698862
61.875 16.739893
61.880 17.258619
61.885 17.749067
61.890 18.695286
61.895 18.262655
61.900 18.322096
61.905 17.897804
61.910 17.589138
61.915 17.492945
61.920 17.199846
61.925 16.948462
61.930 16.818985
61.935 16.70743
61.940 16.764524
61.945 16.901312
61.950 17.025906
61.955 17.107222
61.960 16.297775
61.965 16.420803
61.970 16.160782
61.975 16.236658
61.980 16.179119
61.985 16.266016
61.990 16.025526
61.995 16.892323
62.000 17.258827
62.005 17.779827
62.010 17.65481
62.015 17.393297
62.020 17.036596
62.025 17.34593
62.030 17.276121
62.035 17.029024
62.040 17.081192
62.045 17.454199
62.050 17.479691
62.055 17.574305
62.060 17.438503
62.065 17.098232
62.070 17.351824
62.075 17.058361
62.080 16.808914
62.085 16.957169
62.090 17.036812
62.095 16.860378
62.100 16.665506
62.105 16.387453
62.110 16.49308
62.115 16.719269
62.120 16.550768
62.125 16.021009
62.130 16.353271
62.135 17.24757
62.140 17.763498
62.145 18.222191
62.150 17.389334
62.155 16.974346
62.160 17.249208
62.165 17.339409
62.170 17.50444
62.175 17.402164
62.180 17.478809
62.185 18.360878
62.190 18.667242
62.195 18.708532
62.200 17.854465
62.205 17.319433
62.210 16.792667
62.215 16.238792
62.220 15.675364
62.225 16.146744
62.230 16.633606
62.235 17.177546
62.240 17.373016
62.245 17.642954
62.250 17.440235
62.255 17.540266
62.260 17.476318
62.265 16.789841
62.270 16.31506
62.275 16.261259
62.280 16.232117
62.285 16.405273
62.290 16.185562
62.295 16.07403
62.300 16.405008
62.305 16.005077
62.310 15.029681
62.315 14.909826
62.320 15.268948
62.325 15.482252
62.330 15.285919
62.335 15.313341
62.340 15.932611
62.345 16.892557
62.350 17.009579
62.355 16.609011
62.360 16.405478
62.365 16.468702
62.370 16.429678
62.375 16.585899
62.380 16.112972
62.385 16.273567
62.390 16.610538
62.395 16.635994
62.400 16.620214
62.405 17.289593
62.410 17.433603
62.415 17.982023
62.420 18.144995
62.425 17.633486
62.430 17.327459
62.435 17.046537
62.440 16.77574
62.445 16.564978
62.450 16.736307
62.455 16.609213
62.460 17.599251
62.465 17.949434
62.470 18.099707
62.475 18.101568
62.480 17.973724
62.485 16.964445
62.490 16.42382
62.495 16.066793
62.500 16.199596
62.505 16.127222
62.510 15.89097
62.515 15.892795
62.520 16.327518
62.525 16.369539
62.530 16.111002
62.535 16.199839
62.540 16.137754
62.545 16.308287
62.550 16.655937
62.555 16.795536
62.560 16.885008
62.565 16.790819
62.570 16.722822
62.575 16.408091
62.580 16.445164
62.585 16.114191
62.590 15.890194
62.595 15.821006
62.600 15.774945
62.605 15.859061
62.610 16.04355
62.615 16.056604
62.620 16.502785
62.625 17.037825
62.630 17.782593
62.635 17.976665
62.640 18.302725
62.645 18.059292
62.650 17.507904
62.655 16.695477
62.660 16.775486
62.665 16.735641
62.670 16.977118
62.675 17.414961
62.680 18.005323
62.685 18.605661
62.690 19.042459
62.695 18.987869
62.700 18.440954
62.705 18.079704
62.710 17.7232
62.715 17.792404
62.720 17.680834
62.725 17.879028
62.730 17.932146
62.735 17.886345
62.740 17.880533
62.745 18.115694
62.750 17.7887
62.755 17.281639
62.760 16.662376
62.765 16.668406
62.770 17.257627
62.775 17.259874
62.780 16.932257
62.785 17.328178
62.790 17.927847
62.795 18.082266
62.800 18.008146
62.805 17.62089
62.810 17.172241
62.815 17.350908
62.820 17.18548
62.825 17.532728
62.830 17.532988
62.835 17.628809
62.840 18.037176
62.845 18.239132
62.850 17.571085
62.855 17.814304
62.860 17.462511
62.865 18.132298
62.870 17.762596
62.875 17.286066
62.880 17.537722
62.885 17.797569
62.890 17.480055
62.895 17.235455
62.900 16.685926
62.905 16.625469
62.910 16.962751
62.915 17.111692
62.920 17.465109
62.925 17.182056
62.930 16.873053
62.935 16.545563
62.940 16.72784
62.945 16.75152
62.950 16.403475
62.955 15.895467
62.960 15.936151
62.965 16.612467
62.970 17.781351
62.975 18.161911
62.980 17.812136
62.985 17.723265
62.990 18.065317
62.995 18.027758
63.000 17.469715
63.005 16.766174
63.010 16.518328
63.015 16.347473
63.020 16.496204
63.025 16.548458
63.030 16.408056
63.035 15.927386
63.040 15.7043
63.045 15.841095
63.050 15.972537
63.055 15.764363
63.060 15.59165
63.065 15.919252
63.070 16.297916
63.075 16.327942
63.080 16.042532
63.085 15.872632
63.090 16.296293
63.095 16.3941
63.100 16.547865
63.105 16.491491
63.110 16.094326
63.115 16.357931
63.120 16.86319
63.125 16.812798
63.130 16.788132
63.135 17.076765
63.140 17.659782
63.145 17.691019
63.150 17.845837
63.155 17.825998
63.160 18.088778
63.165 17.888332
63.170 17.298918
63.175 16.748955
63.180 16.690046
63.185 16.560143
63.190 15.99058
63.195 15.438468
63.200 16.265301
63.205 17.063158
63.210 17.309534
63.215 17.752659
63.220 17.635406
63.225 18.194746
63.230 18.163763
63.235 17.598665
63.240 16.89348
63.245 16.860252
63.250 16.904976
63.255 17.028856
63.260 16.743799
63.265 16.823029
63.270 16.761913
63.275 17.158678
63.280 17.261269
63.285 17.183599
63.290 17.26812
63.295 17.278597
63.300 17.323538
63.305 17.380575
63.310 17.261457
63.315 17.014839
63.320 17.151239
63.325 17.392693
63.330 17.968586
63.335 18.288651
63.340 18.236063
63.345 17.832794
63.350 18.074869
63.355 18.029047
63.360 17.927254
63.365 17.170616
63.370 16.992947
63.375 16.922127
63.380 17.457005
63.385 17.559593
63.390 17.33219
63.395 17.421329
63.400 17.860186
63.405 17.744728
63.410 17.923491
63.415 18.042007
63.420 18.557329
63.425 18.860075
63.430 19.022676
63.435 18.573132
63.440 18.048067
63.445 18.57225
63.450 18.690935
63.455 18.351873
63.460 18.029425
63.465 17.897554
63.470 18.40259
63.475 18.85232
63.480 18.239452
63.485 18.25742
63.490 18.598423
63.495 18.463753
63.500 18.478214
63.505 18.230537
63.510 17.993778
63.515 17.909204
63.520 16.972189
63.525 16.536871
63.530 16.593401
63.535 16.342455
63.540 16.689535
63.545 17.088707
63.550 17.204119
63.555 17.528269
63.560 17.117579
63.565 17.358574
63.570 17.773327
63.575 17.47867
63.580 17.171825
63.585 16.871588
63.590 17.141977
63.595 17.468407
63.600 16.993696
63.605 16.61911
63.610 16.800625
63.615 16.839386
63.620 17.117826
63.625 16.746054
63.630 16.702761
63.635 16.896303
63.640 16.746483
63.645 16.57777
63.650 16.765266
63.655 17.388344
63.660 17.852695
63.665 18.661549
63.670 18.979605
63.675 19.328884
63.680 19.624941
63.685 19.602982
63.690 19.116919
63.695 18.900608
63.700 18.352785
63.705 17.601557
63.710 16.95771
63.715 15.947649
63.720 15.822622
63.725 15.618909
63.730 15.720944
63.735 15.914112
63.740 16.841608
63.745 17.451683
63.750 17.880173
63.755 17.937077
63.760 17.734314
63.765 17.403122
63.770 16.884977
63.775 16.49243
63.780 16.562462
63.785 16.738163
63.790 17.114199
63.795 17.720795
63.800 18.128218
63.805 17.853317
63.810 17.227507
63.815 16.750992
63.820 16.245113
63.825 15.284343
63.830 14.696304
63.835 15.287419
63.840 16.300835
63.845 16.98143
63.850 17.578566
63.855 18.021139
63.860 18.539705
63.865 19.235266
63.870 18.900925
63.875 18.281548
63.880 18.093956
63.885 17.962908
63.890 18.701929
63.895 19.059643
63.900 18.59079
63.905 18.481071
63.910 19.070765
63.915 19.328901
63.920 18.939302
63.925 18.66502
63.930 18.225767
63.935 18.517946
63.940 18.485226
63.945 18.443583
63.950 18.410336
63.955 18.577034
63.960 18.937916
63.965 19.026476
63.970 18.43309
63.975 18.460012
63.980 18.202656
63.985 17.947639
63.990 17.881243
63.995 17.209793
64.000 17.467142
64.005 17.836098
64.010 17.869558
64.015 18.436277
64.020 18.900789
64.025 19.280121
64.030 19.848389
64.035 19.547365
64.040 19.631821
64.045 19.414267
64.050 19.196703
64.055 18.875654
64.060 18.701141
64.065 18.446955
64.070 18.869852
64.075 19.243425
64.080 18.795052
64.085 18.407423
64.090 18.589741
64.095 18.197212
64.100 18.023691
64.105 17.36068
64.110 17.002857
64.115 17.342316
64.120 17.407808
64.125 17.284721
64.130 17.297064
64.135 17.060848
64.140 16.825478
64.145 16.266964
64.150 15.805892
64.155 15.559857
64.160 15.451082
64.165 15.151795
64.170 15.880116
64.175 16.072718
64.180 16.564566
64.185 17.156954
64.190 16.846977
64.195 16.500721
64.200 17.055201
64.205 16.420349
64.210 16.499678
64.215 16.687214
64.220 16.658234
64.225 16.992079
64.230 17.81724
64.235 17.591131
64.240 17.772392
64.245 18.165369
64.250 18.122942
64.255 18.679174
64.260 18.429266
64.265 18.46653
64.270 18.605659
64.275 18.934595
64.280 18.703945
64.285 18.830891
64.290 18.68194
64.295 19.20027
64.300 19.001623
64.305 19.011688
64.310 18.985771
64.315 19.019318
64.320 18.91997
64.325 18.821636
64.330 18.80772
64.335 18.42837
64.340 18.024677
64.345 18.13027
64.350 18.542343
64.355 18.714855
64.360 18.710255
64.365 18.135582
64.370 18.449375
64.375 18.468981
64.380 18.277042
64.385 18.355305
64.390 18.653679
64.395 18.733559
64.400 18.663954
64.405 18.923563
64.410 19.318434
64.415 19.152472
64.420 18.813536
64.425 18.804764
64.430 18.711224
64.435 19.069822
64.440 18.793673
64.445 19.03871
64.450 19.084984
64.455 19.298504
64.460 19.090544
64.465 19.374495
64.470 18.973267
64.475 18.977995
64.480 18.91629
64.485 19.010448
64.490 18.668982
64.495 18.958448
64.500 19.551792
64.505 20.114218
64.510 20.476257
64.515 20.657318
64.520 20.966938
64.525 21.034977
64.530 20.967979
64.535 20.612404
64.540 20.196239
64.545 20.065638
64.550 19.473604
64.555 19.144836
64.560 18.423246
64.565 18.038151
64.570 18.066486
64.575 18.253387
64.580 17.858381
64.585 18.220346
64.590 18.024633
64.595 18.981119
64.600 19.02343
64.605 18.786987
64.610 18.320181
64.615 18.604799
64.620 18.676611
64.625 18.805599
64.630 18.482277
64.635 18.290125
64.640 18.235052
64.645 18.652552
64.650 18.45001
64.655 18.511112
64.660 19.019394
64.665 18.936909
64.670 19.135063
64.675 19.511824
64.680 19.543221
64.685 19.378721
64.690 19.175367
64.695 18.788919
64.700 19.002436
64.705 19.215082
64.710 19.523195
64.715 20.035147
64.720 20.409782
64.725 21.47261
64.730 21.767916
64.735 21.487299
64.740 21.218836
64.745 21.520182
64.750 21.688847
64.755 21.445795
64.760 21.273438
64.765 20.813622
64.770 20.771292
64.775 20.695435
64.780 19.71006
64.785 18.990139
64.790 18.468029
64.795 17.473852
64.800 17.711716
64.805 18.092287
64.810 18.521374
64.815 18.831553
64.820 19.269056
64.825 19.620874
64.830 20.197802
64.835 20.747282
64.840 20.947557
64.845 21.230347
64.850 21.541241
64.855 21.953005
64.860 22.191874
64.865 22.150215
64.870 21.945887
64.875 21.718046
64.880 21.632816
64.885 21.010111
64.890 20.072872
64.895 19.804899
64.900 19.376907
64.905 19.220303
64.910 19.176765
64.915 18.748751
64.920 19.54615
64.925 20.556395
64.930 20.945934
64.935 21.307001
64.940 21.450653
64.945 21.551622
64.950 21.893599
64.955 21.80558
64.960 21.995188
64.965 21.838018
64.970 21.863138
64.975 21.918169
64.980 22.250904
64.985 22.287146
64.990 22.248339
64.995 21.978611
65.000 21.776707
65.005 21.8146
65.010 22.041357
65.015 22.079899
65.020 22.142658
65.025 22.112345
65.030 21.953417
65.035 22.245464
65.040 22.170677
65.045 22.083338
65.050 22.350395
65.055 23.068119
65.060 23.944267
65.065 24.278303
65.070 24.490627
65.075 24.608995
65.080 24.383224
65.085 24.013847
65.090 23.045298
65.095 21.98942
65.100 21.623671
65.105 21.471897
65.110 21.908358
65.115 22.483477
65.120 22.744772
65.125 23.584324
65.130 23.941151
65.135 24.152567
65.140 24.291241
65.145 23.896664
65.150 23.199087
65.155 22.634691
65.160 21.952698
65.165 21.939846
65.170 21.972851
65.175 22.122383
65.180 21.938124
65.185 22.316835
65.190 22.247871
65.195 22.657415
65.200 23.059401
65.205 22.810577
65.210 23.025545
65.215 23.328726
65.220 23.255793
65.225 23.973297
65.230 24.187366
65.235 23.796576
65.240 24.620853
65.245 24.916025
65.250 24.608078
65.255 24.852097
65.260 24.518509
65.265 24.427862
65.270 24.70027
65.275 24.571632
65.280 23.800966
65.285 24.016516
65.290 24.318605
65.295 24.28755
65.300 23.470854
65.305 23.224333
65.310 23.078163
65.315 23.290909
65.320 23.146643
65.325 23.382612
65.330 23.816307
65.335 25.104282
65.340 24.794212
65.345 25.052143
65.350 25.530634
65.355 25.180923
65.360 24.860132
65.365 24.820736
65.370 24.479506
65.375 25.441162
65.380 25.213617
65.385 25.010796
65.390 25.810663
65.395 25.630892
65.400 25.370926
65.405 25.450127
65.410 24.460659
65.415 24.690525
65.420 25.008204
65.425 24.538242
65.430 24.442564
65.435 24.751917
65.440 24.546675
65.445 24.183605
65.450 23.255367
65.455 23.218376
65.460 23.391542
65.465 24.066313
65.470 23.84201
65.475 24.637363
65.480 25.038549
65.485 25.731119
65.490 26.002964
65.495 26.708994
65.500 26.50631
65.505 27.226145
65.510 27.081032
65.515 27.52907
65.520 27.254332
65.525 26.622257
65.530 26.21298
65.535 26.871708
65.540 26.32188
65.545 26.05876
65.550 26.301472
65.555 26.822886
65.560 27.600515
65.565 27.043194
65.570 27.056234
65.575 27.784554
65.580 28.68099
65.585 28.683445
65.590 28.803535
65.595 28.297176
65.600 28.736443
65.605 28.568928
65.610 28.582718
65.615 28.423304
65.620 28.878607
65.625 30.022825
65.630 30.544334
65.635 30.559143
65.640 30.270599
65.645 30.293146
65.650 31.064295
65.655 31.310837
65.660 30.717031
65.665 31.544857
65.670 32.188923
65.675 33.476143
65.680 34.607891
65.685 34.481323
65.690 35.211639
65.695 35.528877
65.700 34.958736
65.705 34.187332
65.710 33.544304
65.715 33.101875
65.720 32.612946
65.725 32.130596
65.730 32.4048
65.735 33.082542
65.740 33.897335
65.745 33.667145
65.750 34.165119
65.755 35.093109
65.760 35.353443
65.765 35.98938
65.770 36.257172
65.775 37.237354
65.780 37.889675
65.785 37.822109
65.790 37.279869
65.795 37.291901
65.800 36.506966
65.805 35.8904
65.810 35.55653
65.815 35.70557
65.820 35.883812
65.825 35.668453
65.830 36.073051
65.835 36.631386
65.840 37.06646
65.845 37.355812
65.850 37.88921
65.855 37.465694
65.860 38.008053
65.865 38.161358
65.870 38.347786
65.875 38.870171
65.880 38.658794
65.885 39.146461
65.890 39.852913
65.895 39.630283
65.900 39.816643
65.905 39.957905
65.910 39.525589
65.915 39.383144
65.920 39.240288
65.925 38.729965
65.930 39.021786
65.935 39.047478
65.940 39.141033
65.945 38.958351
65.950 38.653522
65.955 38.923138
65.960 40.747265
65.965 40.742313
65.970 40.66951
65.975 40.634296
65.980 40.746414
65.985 40.595371
65.990 40.025192
65.995 38.755287
66.000 38.813534
66.005 38.140057
66.010 38.418571
66.015 39.081898
66.020 39.615768
66.025 39.664532
66.030 39.732368
66.035 39.618053
66.040 39.557194
66.045 39.39645
66.050 38.80724
66.055 38.409061
66.060 38.220745
66.065 38.329784
66.070 38.73917
66.075 39.041283
66.080 39.295929
66.085 39.178299
66.090 39.341942
66.095 39.270161
66.100 39.063705
66.105 38.419266
66.110 38.316891
66.115 38.998074
66.120 39.069653
66.125 38.807858
66.130 38.840263
66.135 38.373993
66.140 37.741165
66.145 36.584053
66.150 35.586815
66.155 35.544941
66.160 35.085888
66.165 35.087139
66.170 35.406963
66.175 36.375587
66.180 36.765965
66.185 36.410385
66.190 36.263142
66.195 36.25235
66.200 36.437153
66.205 36.706848
66.210 36.775776
66.215 37.094967
66.220 37.002777
66.225 37.128757
66.230 37.666729
66.235 36.58503
66.240 35.436802
66.245 34.962315
66.250 34.287563
66.255 34.542515
66.260 34.459957
66.265 34.185059
66.270 34.490513
66.275 34.527576
66.280 34.203831
66.285 34.356743
66.290 33.569607
66.295 33.228649
66.300 32.573322
66.305 32.691902
66.310 32.818947
66.315 33.078815
66.320 33.6684
66.325 33.968536
66.330 33.602978
66.335 33.853481
66.340 34.273499
66.345 34.787895
66.350 34.224308
66.355 33.694904
66.360 33.469379
66.365 33.959499
66.370 33.195637
66.375 31.758375
66.380 30.922638
66.385 30.808445
66.390 30.285856
66.395 29.729656
66.400 29.089622
66.405 29.08217
66.410 29.375616
66.415 29.38484
66.420 29.803436
66.425 29.405275
66.430 29.031004
66.435 28.666145
66.440 29.117714
66.445 28.786131
66.450 28.818377
66.455 28.026243
66.460 28.282438
66.465 28.740591
66.470 29.267021
66.475 29.464985
66.480 29.704882
66.485 29.390511
66.490 29.524174
66.495 29.055506
66.500 28.735985
66.505 28.508093
66.510 28.373198
66.515 28.172102
66.520 27.82888
66.525 27.814751
66.530 28.404005
66.535 28.104252
66.540 27.625221
66.545 26.763927
66.550 26.080137
66.555 25.957476
66.560 25.824472
66.565 25.52079
66.570 25.589624
66.575 26.040117
66.580 26.026834
66.585 25.858685
66.590 26.001398
66.595 25.935688
66.600 25.832531
66.605 25.40357
66.610 25.31237
66.615 25.034689
66.620 25.103493
66.625 24.831341
66.630 24.195776
66.635 23.995409
66.640 24.095778
66.645 23.715923
66.650 23.731401
66.655 24.392414
66.660 25.058094
66.665 25.318375
66.670 25.189009
66.675 25.891895
66.680 26.176716
66.685 26.101334
66.690 25.381868
66.695 24.716881
66.700 24.644606
66.705 24.595406
66.710 23.860369
66.715 23.642151
66.720 24.107729
66.725 23.962503
66.730 23.538151
66.735 23.511789
66.740 22.970608
66.745 23.06568
66.750 23.271156
66.755 22.661049
66.760 23.03787
66.765 22.911934
66.770 23.111862
66.775 23.943913
66.780 24.464373
66.785 24.427322
66.790 24.2495
66.795 23.573954
66.800 23.47156
66.805 23.17942
66.810 22.705153
66.815 22.600554
66.820 22.666822
66.825 22.92153
66.830 23.545336
66.835 24.072659
66.840 24.332933
66.845 24.36973
66.850 24.334551
66.855 24.025192
66.860 24.315514
66.865 24.248888
66.870 24.396523
66.875 24.181572
66.880 23.403696
66.885 22.425426
66.890 22.559326
66.895 23.122345
66.900 23.064329
66.905 22.891901
66.910 22.716072
66.915 22.80743
66.920 23.149799
66.925 22.66732
66.930 22.066545
66.935 22.675528
66.940 22.248783
66.945 22.677942
66.950 23.217953
66.955 23.585032
66.960 24.147091
66.965 24.075459
66.970 23.96126
66.975 24.164299
66.980 24.468855
66.985 24.561073
66.990 24.404146
66.995 24.081505
67.000 24.147066
67.005 24.06971
67.010 23.882776
67.015 23.339445
67.020 22.965157
67.025 22.869829
67.030 22.852345
67.035 22.674114
67.040 21.881062
67.045 21.569427
67.050 21.28495
67.055 20.976957
67.060 20.401737
67.065 19.437199
67.070 18.972109
67.075 19.338123
67.080 20.284719
67.085 20.530563
67.090 21.348127
67.095 22.124691
67.100 22.275078
67.105 22.29162
67.110 22.72823
67.115 22.651608
67.120 22.913216
67.125 22.943382
67.130 22.846518
67.135 23.213745
67.140 23.338549
67.145 23.247324
67.150 22.774679
67.155 22.451443
67.160 22.123716
67.165 21.750534
67.170 21.080189
67.175 20.970655
67.180 20.657722
67.185 21.16399
67.190 21.458839
67.195 21.500938
67.200 21.888094
67.205 22.121515
67.210 21.781445
67.215 21.779984
67.220 21.119822
67.225 20.298138
67.230 19.864464
67.235 19.530155
67.240 19.846096
67.245 20.038179
67.250 19.634436
67.255 20.12471
67.260 21.077311
67.265 20.986618
67.270 21.050386
67.275 20.623091
67.280 20.735914
67.285 20.204685
67.290 20.086046
67.295 19.574751
67.300 19.891922
67.305 19.94404
67.310 19.915003
67.315 19.548172
67.320 19.657093
67.325 19.292316
67.330 19.281849
67.335 19.713629
67.340 19.961773
67.345 20.223576
67.350 20.69536
67.355 20.766386
67.360 20.974312
67.365 21.187523
67.370 21.460487
67.375 21.301008
67.380 21.933723
67.385 22.430122
67.390 22.645493
67.395 22.278772
67.400 22.058588
67.405 21.432058
67.410 21.215393
67.415 20.505766
67.420 20.158314
67.425 20.255287
67.430 20.57556
67.435 20.909143
67.440 21.146233
67.445 21.367735
67.450 22.123787
67.455 22.01317
67.460 22.292355
67.465 22.094437
67.470 21.228319
67.475 20.655056
67.480 20.526421
67.485 19.78474
67.490 19.863392
67.495 19.892355
67.500 20.231894
67.505 21.159792
67.510 21.859781
67.515 22.639833
67.520 23.239614
67.525 23.501593
67.530 23.489597
67.535 23.321352
67.540 22.946892
67.545 22.444613
67.550 21.697231
67.555 21.831415
67.560 21.115131
67.565 20.772966
67.570 20.465746
67.575 20.525015
67.580 21.016043
67.585 20.909548
67.590 20.317266
67.595 20.622507
67.600 20.883137
67.605 21.550606
67.610 21.472647
67.615 20.20722
67.620 20.325644
67.625 19.801701
67.630 20.113029
67.635 20.270561
67.640 20.189295
67.645 20.486032
67.650 21.210234
67.655 21.605795
67.660 22.594206
67.665 22.540558
67.670 22.603079
67.675 22.476337
67.680 22.696432
67.685 23.158041
67.690 22.469597
67.695 22.330128
67.700 21.849539
67.705 21.396982
67.710 20.885466
67.715 20.349268
67.720 20.093973
67.725 19.982815
67.730 20.00251
67.735 20.035385
67.740 20.613121
67.745 20.865608
67.750 20.600264
67.755 20.628603
67.760 21.12821
67.765 21.016499
67.770 21.148523
67.775 20.665455
67.780 20.346121
67.785 20.683317
67.790 20.976645
67.795 19.992346
67.800 19.968454
67.805 20.178646
67.810 20.841145
67.815 21.127499
67.820 20.850136
67.825 20.334431
67.830 21.14093
67.835 21.365717
67.840 20.660856
67.845 19.807739
67.850 20.026516
67.855 19.915981
67.860 19.875786
67.865 19.108091
67.870 18.737371
67.875 19.159626
67.880 19.386499
67.885 19.615398
67.890 20.128134
67.895 20.452648
67.900 21.363142
67.905 22.289841
67.910 22.298735
67.915 22.203117
67.920 21.960697
67.925 21.76882
67.930 22.4902
67.935 22.369095
67.940 22.017801
67.945 22.428211
67.950 22.839273
67.955 22.808876
67.960 22.647781
67.965 22.32235
67.970 21.96282
67.975 21.987837
67.980 21.269165
67.985 21.055758
67.990 21.461052
67.995 21.012608
68.000 20.266027
68.005 20.020876
68.010 19.548353
68.015 19.644161
68.020 19.695541
68.025 19.776686
68.030 19.910719
68.035 20.048378
68.040 20.324057
68.045 20.322268
68.050 20.177872
68.055 20.171638
68.060 19.59091
68.065 19.804157
68.070 20.904997
68.075 21.147011
68.080 21.318441
68.085 21.760401
68.090 21.424179
68.095 21.514229
68.100 21.198515
68.105 20.345211
68.110 20.459471
68.115 20.751461
68.120 20.400173
68.125 20.620005
68.130 20.841593
68.135 21.290794
68.140 21.317692
68.145 21.17239
68.150 21.309029
68.155 21.418806
68.160 21.444206
68.165 21.549156
68.170 21.266079
68.175 21.242887
68.180 21.513699
68.185 21.415607
68.190 21.301718
68.195 21.590853
68.200 22.084391
68.205 22.231413
68.210 21.663664
68.215 21.0898
68.220 21.646067
68.225 21.916462
68.230 22.099251
68.235 21.853901
68.240 21.613525
68.245 21.479422
68.250 21.499435
68.255 20.665787
68.260 21.064697
68.265 20.809546
68.270 20.698553
68.275 20.735327
68.280 21.02928
68.285 21.348392
68.290 21.501484
68.295 21.067287
68.300 21.095266
68.305 21.083534
68.310 21.802593
68.315 22.522066
68.320 22.939663
68.325 22.840109
68.330 22.813192
68.335 22.706692
68.340 22.000191
68.345 21.34516
68.350 20.64381
68.355 20.194864
68.360 20.230715
68.365 19.792551
68.370 19.660646
68.375 20.224039
68.380 20.372017
68.385 19.675352
68.390 19.295761
68.395 19.175106
68.400 19.502079
68.405 19.386475
68.410 19.641979
68.415 20.395048
68.420 21.578911
68.425 22.323294
68.430 21.959545
68.435 21.514091
68.440 21.943531
68.445 21.6623
68.450 21.066959
68.455 20.403751
68.460 20.694153
68.465 21.340771
68.470 21.315639
68.475 20.844643
68.480 20.717455
68.485 20.041485
68.490 19.531557
68.495 18.738255
68.500 18.498501
68.505 19.121738
68.510 19.520973
68.515 19.94478
68.520 21.346512
68.525 21.521059
68.530 21.327211
68.535 21.294752
68.540 21.294384
68.545 21.215738
68.550 20.878403
68.555 19.596542
68.560 20.08604
68.565 20.933296
68.570 21.168627
68.575 20.843473
68.580 20.528271
68.585 20.481562
68.590 20.752939
68.595 20.703373
68.600 20.497084
68.605 20.653391
68.610 21.208845
68.615 20.974211
68.620 21.814699
68.625 22.325684
68.630 21.980755
68.635 22.128424
68.640 21.728487
68.645 21.503979
68.650 21.573128
68.655 21.101469
68.660 21.053015
68.665 20.70097
68.670 20.420576
68.675 20.470072
68.680 20.537735
68.685 20.784948
68.690 20.884865
68.695 21.188684
68.700 21.693441
68.705 21.659534
68.710 21.485592
68.715 21.558062
68.720 21.300264
68.725 21.740538
68.730 21.778156
68.735 21.724176
68.740 22.238419
68.745 22.312645
68.750 21.870636
68.755 21.878719
68.760 21.392786
68.765 21.275045
68.770 21.769657
68.775 21.812883
68.780 22.2903
68.785 22.723057
68.790 22.622454
68.795 22.598499
68.800 22.72999
68.805 21.850735
68.810 21.465147
68.815 21.155462
68.820 20.829123
68.825 20.495319
68.830 20.623125
68.835 20.593727
68.840 20.807484
68.845 21.171928
68.850 21.877819
68.855 22.208092
68.860 22.68445
68.865 22.281794
68.870 22.357731
68.875 22.265728
68.880 21.339764
68.885 20.706974
68.890 20.762276
68.895 20.76371
68.900 20.997452
68.905 21.398449
68.910 21.697773
68.915 21.978895
68.920 22.081964
68.925 21.988289
68.930 22.186693
68.935 21.894762
68.940 21.319283
68.945 20.787413
68.950 20.742413
68.955 20.777403
68.960 21.114271
68.965 21.060589
68.970 21.291048
68.975 21.887775
68.980 22.926861
68.985 23.942678
68.990 24.076735
68.995 23.804951
69.000 23.981476
69.005 24.276569
69.010 23.559462
69.015 22.863106
69.020 22.043936
69.025 22.252716
69.030 22.993437
69.035 23.385319
69.040 23.963701
69.045 24.722113
69.050 25.673532
69.055 26.220659
69.060 26.426397
69.065 25.265251
69.070 24.422056
69.075 23.906208
69.080 24.188366
69.085 23.842051
69.090 23.669781
69.095 23.642975
69.100 24.385807
69.105 25.133657
69.110 25.377922
69.115 25.451782
69.120 25.446562
69.125 25.226601
69.130 25.46817
69.135 26.044386
69.140 25.561787
69.145 25.25441
69.150 24.52154
69.155 24.764446
69.160 25.551777
69.165 25.35696
69.170 24.886713
69.175 24.93873
69.180 25.564735
69.185 26.379234
69.190 26.462582
69.195 25.7349
69.200 25.375645
69.205 25.448296
69.210 25.882183
69.215 25.456059
69.220 25.119837
69.225 25.332899
69.230 24.976873
69.235 25.598665
69.240 26.614017
69.245 27.091419
69.250 27.360804
69.255 27.429302
69.260 27.220579
69.265 27.6782
69.270 27.272461
69.275 26.804155
69.280 26.967922
69.285 27.107878
69.290 27.369492
69.295 27.813185
69.300 27.922945
69.305 27.700949
69.310 28.087376
69.315 27.983849
69.320 27.591942
69.325 27.159893
69.330 27.209831
69.335 27.150267
69.340 27.108738
69.345 26.184729
69.350 26.219564
69.355 26.848562
69.360 26.668295
69.365 27.270573
69.370 27.677135
69.375 28.242189
69.380 28.847042
69.385 29.141394
69.390 29.054625
69.395 28.583992
69.400 27.892418
69.405 27.664103
69.410 27.379076
69.415 27.138765
69.420 27.466219
69.425 28.163397
69.430 29.383223
69.435 30.201389
69.440 30.876774
69.445 31.391832
69.450 31.451029
69.455 31.216253
69.460 30.64889
69.465 30.950827
69.470 31.198675
69.475 30.75235
69.480 30.156582
69.485 30.390659
69.490 30.697683
69.495 31.035849
69.500 30.546293
69.505 29.835613
69.510 29.546194
69.515 29.785837
69.520 30.24881
69.525 30.27634
69.530 29.811153
69.535 29.693302
69.540 29.508615
69.545 29.808943
69.550 29.842745
69.555 29.30122
69.560 29.606382
69.565 29.669529
69.570 29.517048
69.575 29.953161
69.580 29.383961
69.585 28.611471
69.590 27.77887
69.595 26.888205
69.600 26.728474
69.605 26.969931
69.610 27.692564
69.615 28.666788
69.620 28.679506
69.625 28.793867
69.630 29.206924
69.635 30.336399
69.640 30.328081
69.645 29.773941
69.650 29.61272
69.655 30.497295
69.660 30.265162
69.665 30.084856
69.670 29.902016
69.675 29.874723
69.680 29.858841
69.685 29.650026
69.690 29.514935
69.695 29.583097
69.700 29.432468
69.705 28.265972
69.710 27.949038
69.715 27.515118
69.720 27.311993
69.725 27.94766
69.730 28.230883
69.735 28.355553
69.740 29.285793
69.745 29.90275
69.750 30.320774
69.755 30.60235
69.760 30.267899
69.765 30.048668
69.770 29.40609
69.775 28.234385
69.780 27.996916
69.785 27.786091
69.790 27.098415
69.795 26.834669
69.800 27.289658
69.805 27.670359
69.810 27.664724
69.815 27.719696
69.820 28.199642
69.825 28.123985
69.830 27.236828
69.835 27.205837
69.840 27.246115
69.845 27.262064
69.850 26.660875
69.855 26.489653
69.860 26.638838
69.865 27.196325
69.870 26.836529
69.875 26.537279
69.880 26.343714
69.885 25.652466
69.890 24.716639
69.895 23.564463
69.900 23.106937
69.905 23.131907
69.910 22.892406
69.915 23.342375
69.920 23.813557
69.925 24.137411
69.930 24.376038
69.935 23.93889
69.940 23.62598
69.945 23.330715
69.950 23.064165
69.955 23.174242
69.960 23.276075
69.965 23.29483
69.970 23.101116
69.975 22.905483
69.980 22.784178
69.985 22.399275
69.990 22.09408
69.995 22.105566
70.000 22.447733
70.005 22.566877
70.010 22.194933
70.015 22.146584
70.020 22.166355
70.025 22.246506
70.030 22.320089
70.035 21.940126
70.040 21.807785
70.045 22.182562
70.050 22.093718
70.055 21.95256
70.060 21.874285
70.065 21.618111
70.070 21.614498
70.075 22.471075
70.080 22.792404
70.085 22.888271
70.090 22.677349
70.095 21.910894
70.100 21.604292
70.105 21.104782
70.110 20.777695
70.115 20.721506
70.120 20.754641
70.125 21.405661
70.130 22.426224
70.135 22.562214
70.140 22.672956
70.145 22.806631
70.150 22.501329
70.155 21.899925
70.160 21.447927
70.165 20.756634
70.170 20.889687
70.175 20.947971
70.180 20.57769
70.185 21.20121
70.190 21.391344
70.195 21.160109
70.200 21.161587
70.205 20.629124
70.210 20.033607
70.215 19.886198
70.220 19.607487
70.225 19.813196
70.230 20.630615
70.235 21.317326
70.240 21.97109
70.245 22.491587
70.250 23.080578
70.255 23.230143
70.260 22.835587
70.265 22.34668
70.270 22.007969
70.275 21.665455
70.280 20.991171
70.285 20.24852
70.290 20.080555
70.295 19.512148
70.300 19.480892
70.305 19.942493
70.310 19.741854
70.315 19.971298
70.320 19.855095
70.325 20.096378
70.330 20.384008
70.335 20.368551
70.340 19.54776
70.345 19.282307
70.350 19.205217
70.355 19.16918
70.360 19.501509
70.365 19.601089
70.370 19.733582
70.375 20.0858
70.380 21.226152
70.385 21.621468
70.390 21.662231
70.395 21.832361
70.400 21.786089
70.405 20.916916
70.410 20.295025
70.415 19.475025
70.420 19.243969
70.425 19.10141
70.430 18.366377
70.435 18.403994
70.440 18.929609
70.445 19.30118
70.450 19.235577
70.455 19.868828
70.460 19.810232
70.465 19.918121
70.470 19.941189
70.475 20.56057
70.480 20.876944
70.485 20.801365
70.490 20.538576
70.495 20.455482
70.500 20.785999
70.505 20.689835
70.510 20.355906
70.515 20.617714
70.520 20.397234
70.525 20.358671
70.530 20.387314
70.535 20.261053
70.540 19.896477
70.545 19.864004
70.550 19.652985
70.555 19.370539
70.560 19.410849
70.565 19.065382
70.570 18.689915
70.575 18.726618
70.580 18.180227
70.585 18.521669
70.590 18.8904
70.595 19.041031
70.600 19.38669
70.605 19.760979
70.610 20.09169
70.615 19.415869
70.620 18.944563
70.625 18.848282
70.630 18.60623
70.635 18.177267
70.640 17.762119
70.645 17.432585
70.650 17.748384
70.655 18.227631
70.660 18.033375
70.665 18.46311
70.670 18.910477
70.675 19.845169
70.680 20.632856
70.685 20.665565
70.690 20.918924
70.695 21.032045
70.700 20.423985
70.705 20.150261
70.710 19.701561
70.715 20.017483
70.720 20.161055
70.725 19.47587
70.730 19.353249
70.735 20.205881
70.740 19.951254
70.745 19.564327
70.750 19.082916
70.755 18.706884
70.760 19.440456
70.765 19.678602
70.770 19.313816
70.775 19.649813
70.780 19.672012
70.785 19.751137
70.790 19.505173
70.795 19.1133
70.800 19.118584
70.805 19.065075
70.810 18.984419
70.815 18.80072
70.820 19.180738
70.825 19.979473
70.830 19.987442
70.835 19.763805
70.840 19.917023
70.845 19.887487
70.850 20.441504
70.855 20.518148
70.860 20.156023
70.865 20.196436
70.870 20.006037
70.875 19.793474
70.880 19.103466
70.885 18.830126
70.890 18.703434
70.895 18.447271
70.900 18.277151
70.905 18.644653
70.910 19.448673
70.915 19.984413
70.920 19.826551
70.925 19.443102
70.930 18.957045
70.935 18.465864
70.940 17.755001
70.945 17.481085
70.950 17.441111
70.955 17.064043
70.960 17.657452
70.965 17.873751
70.970 18.465225
70.975 18.19112
70.980 17.968145
70.985 18.520828
70.990 19.056711
70.995 19.364706
71.000 19.84108
71.005 20.326334
71.010 21.135662
71.015 21.670986
71.020 21.560169
71.025 20.191355
71.030 19.364597
71.035 18.795858
71.040 18.360258
71.045 17.799994
71.050 17.177963
71.055 17.010563
71.060 17.764479
71.065 17.979498
71.070 17.71545
71.075 17.672455
71.080 17.407181
71.085 17.798491
71.090 18.220751
71.095 18.331982
71.100 18.446356
71.105 18.309805
71.110 18.396536
71.115 18.399696
71.120 18.451447
71.125 18.145744
71.130 17.745977
71.135 18.409431
71.140 18.809195
71.145 18.843941
71.150 18.679808
71.155 18.335718
71.160 18.63246
71.165 19.322117
71.170 18.708551
71.175 18.3678
71.180 19.003941
71.185 19.01071
71.190 18.78727
71.195 18.62682
71.200 18.50872
71.205 18.85659
71.210 18.81883
71.215 18.388737
71.220 18.550293
71.225 18.648205
71.230 18.828972
71.235 18.933111
71.240 19.6758
71.245 20.172159
71.250 20.234177
71.255 19.760717
71.260 19.934172
71.265 19.442616
71.270 19.715694
71.275 19.524969
71.280 18.969133
71.285 19.390127
71.290 19.693838
71.295 19.843548
71.300 20.065535
71.305 19.559271
71.310 19.260874
71.315 19.26305
71.320 19.327221
71.325 18.88131
71.330 18.412317
71.335 18.230064
71.340 17.988796
71.345 18.583475
71.350 18.816708
71.355 19.207966
71.360 19.903521
71.365 19.50337
71.370 19.428205
71.375 19.454716
71.380 19.727325
71.385 19.862816
71.390 19.902208
71.395 19.543638
71.400 19.891674
71.405 20.542307
71.410 20.577648
71.415 19.822435
71.420 19.891365
71.425 19.487352
71.430 19.57733
71.435 19.3361
71.440 18.453888
71.445 18.075436
71.450 18.289856
71.455 17.735149
71.460 17.774691
71.465 18.443346
71.470 18.919767
71.475 19.282295
71.480 19.084908
71.485 18.872917
71.490 19.256025
71.495 19.359993
71.500 18.867371
71.505 18.888847
71.510 19.412706
71.515 19.88199
71.520 20.241919
71.525 20.599735
71.530 20.559271
71.535 20.861792
71.540 20.628942
71.545 20.29866
71.550 19.809755
71.555 19.305155
71.560 18.906179
71.565 18.643471
71.570 19.002234
71.575 18.893314
71.580 19.482355
71.585 20.122332
71.590 20.524111
71.595 20.824677
71.600 20.688465
71.605 20.572241
71.610 20.328197
71.615 19.808132
71.620 20.041634
71.625 19.863714
71.630 20.053802
71.635 20.314608
71.640 20.266865
71.645 20.394388
71.650 20.026834
71.655 19.829546
71.660 19.468874
71.665 19.12015
71.670 19.189888
71.675 19.045101
71.680 19.20529
71.685 18.979692
71.690 18.392519
71.695 18.382715
71.700 18.132383
71.705 17.455065
71.710 17.161818
71.715 17.034628
71.720 16.731291
71.725 17.494127
71.730 17.932558
71.735 18.209675
71.740 18.308479
71.745 18.450462
71.750 18.670332
71.755 18.828545
71.760 18.516224
71.765 18.31842
71.770 17.802727
71.775 17.633039
71.780 17.486105
71.785 17.439865
71.790 17.303167
71.795 17.30896
71.800 17.639629
71.805 18.380457
71.810 19.205267
71.815 19.606451
71.820 20.16918
71.825 20.266973
71.830 20.213743
71.835 19.667217
71.840 19.473986
71.845 19.489866
71.850 19.727579
71.855 19.886187
71.860 20.022703
71.865 20.515558
71.870 20.813725
71.875 20.229961
71.880 19.307734
71.885 19.083782
71.890 19.080761
71.895 19.121706
71.900 18.7106
71.905 18.668104
71.910 18.622559
71.915 18.964804
71.920 18.861816
71.925 18.534428
71.930 18.435076
71.935 18.499723
71.940 19.343216
71.945 19.716722
71.950 19.783628
71.955 19.648157
71.960 19.653397
71.965 19.865011
71.970 19.623402
71.975 19.352896
71.980 20.124907
71.985 20.170063
71.990 20.393236
71.995 19.980591
72.000 19.387711
72.005 19.076788
72.010 18.562815
72.015 17.571856
72.020 16.833961
72.025 15.968974
72.030 16.406282
72.035 16.729486
72.040 16.565573
72.045 17.02342
72.050 17.006262
72.055 17.587513
72.060 18.408716
72.065 18.302731
72.070 18.664467
72.075 18.582867
72.080 18.224958
72.085 17.977798
72.090 17.976397
72.095 18.145985
72.100 18.012445
72.105 18.718914
72.110 19.123405
72.115 19.500612
72.120 19.788473
72.125 19.746294
72.130 19.106026
72.135 18.591492
72.140 17.778664
72.145 18.195452
72.150 18.266336
72.155 18.029024
72.160 17.980572
72.165 17.997726
72.170 18.411636
72.175 18.242634
72.180 18.247524
72.185 18.18988
72.190 18.351238
72.195 18.647131
72.200 18.966074
72.205 18.776682
72.210 18.643696
72.215 18.104231
72.220 17.789131
72.225 17.179537
72.230 17.275255
72.235 17.231516
72.240 17.393364
72.245 17.58078
72.250 17.758154
72.255 18.267784
72.260 18.947187
72.265 18.929125
72.270 19.426243
72.275 19.531118
72.280 18.853312
72.285 19.10166
72.290 18.4557
72.295 18.409412
72.300 18.178154
72.305 17.327806
72.310 17.065634
72.315 18.056725
72.320 17.928885
72.325 18.241943
72.330 18.594782
72.335 18.870502
72.340 19.39982
72.345 19.780655
72.350 19.266085
72.355 19.129515
72.360 19.425722
72.365 19.313135
72.370 19.478222
72.375 19.420963
72.380 19.268745
72.385 19.663486
72.390 19.416574
72.395 18.647722
72.400 18.142611
72.405 17.408005
72.410 17.622566
72.415 17.506685
72.420 17.623001
72.425 17.4669
72.430 17.087952
72.435 17.056883
72.440 17.145536
72.445 16.647221
72.450 16.319038
72.455 16.304296
72.460 16.618908
72.465 16.793859
72.470 16.539076
72.475 16.312147
72.480 16.544989
72.485 16.650793
72.490 16.335674
72.495 15.886292
72.500 16.182735
72.505 16.555544
72.510 16.401955
72.515 16.475845
72.520 16.264565
72.525 16.704201
72.530 17.242952
72.535 17.112688
72.540 17.14509
72.545 17.567017
72.550 17.938602
72.555 18.172337
72.560 18.034809
72.565 17.808361
72.570 18.184946
72.575 18.150906
72.580 18.580889
72.585 18.751652
72.590 19.021519
72.595 19.297037
72.600 19.541748
72.605 19.988827
72.610 19.817741
72.615 19.831354
72.620 19.203327
72.625 19.082693
72.630 18.538408
72.635 18.177431
72.640 18.215401
72.645 18.120548
72.650 18.398676
72.655 18.548141
72.660 18.527138
72.665 18.466883
72.670 18.177692
72.675 17.689985
72.680 16.772886
72.685 16.330648
72.690 16.502991
72.695 17.225555
72.700 17.471933
72.705 17.553989
72.710 17.703865
72.715 17.767817
72.720 17.617016
72.725 17.33757
72.730 17.070957
72.735 17.236874
72.740 17.211433
72.745 18.035154
72.750 18.716003
72.755 19.348347
72.760 19.482931
72.765 19.851118
72.770 19.948807
72.775 20.701954
72.780 20.266445
72.785 19.448633
72.790 19.364075
72.795 19.14163
72.800 18.58576
72.805 18.434734
72.810 17.673883
72.815 17.556307
72.820 17.478571
72.825 16.628122
72.830 16.284073
72.835 16.272686
72.840 15.848807
72.845 15.677155
72.850 15.628837
72.855 16.199747
72.860 17.145536
72.865 17.62365
72.870 17.988558
72.875 18.48007
72.880 18.95002
72.885 18.442978
72.890 18.304207
72.895 18.040747
72.900 18.085062
72.905 18.506184
72.910 18.133532
72.915 17.892267
72.920 17.780983
72.925 18.393188
72.930 18.483519
72.935 17.416275
72.940 16.757898
72.945 16.946697
72.950 17.049381
72.955 17.486422
72.960 17.014511
72.965 17.017006
72.970 17.528105
72.975 17.537975
72.980 17.922066
72.985 17.873066
72.990 17.541756
72.995 17.176395
73.000 17.301386
