!@!!GADDS PLOTSO FILE: Chi integration type
!@!!Title/SampleName: map-c
!@!!Comment: ?
!@!!User: Bruker Instrument Administrator
!@!!Site: University of Illinois Chicago
!@!!Frame: map-c_01_000.gfrm
!@!!Wavelengths    1.54184   1.54056   1.54439
!@!!Frame angles: 2Theta: 63.000 Omega: 50.000 Phi: 0.000 Chi: 90.000
!@!!Integration range: 2Theta: 53.000 to 73.000  Gamma: -105.000 to -75.000
!@!!Integration method: bin normalized
!@!N
!@!SS
!@!M
!@!L 0.0 0.0 0.0 0.0
!@!XDegrees
!@!YCounts
53.000 6.566063
53.005 6.991404
53.010 6.63399
53.015 6.402826
53.020 6.486212
53.025 6.65108
53.030 7.132462
53.035 7.256226
53.040 7.607232
53.045 8.122149
53.050 8.277357
53.055 8.156352
53.060 7.95895
53.065 7.492792
53.070 6.894804
53.075 6.622529
53.080 6.572235
53.085 6.502568
53.090 6.725191
53.095 6.956177
53.100 7.543364
53.105 8.278874
53.110 8.504215
53.115 8.555089
53.120 8.385686
53.125 8.18077
53.130 8.182596
53.135 7.800723
53.140 7.880192
53.145 8.014896
53.150 8.248458
53.155 8.639295
53.160 8.681794
53.165 8.845586
53.170 8.907726
53.175 8.602128
53.180 8.307022
53.185 8.117711
53.190 8.001043
53.195 7.85899
53.200 7.56023
53.205 7.267415
53.210 7.135485
53.215 7.099814
53.220 7.223654
53.225 7.424119
53.230 7.505664
53.235 7.241787
53.240 7.306903
53.245 7.46731
53.250 7.191397
53.255 7.008693
53.260 6.909837
53.265 6.84838
53.270 7.123385
53.275 7.383295
53.280 7.54969
53.285 7.575726
53.290 7.444098
53.295 7.727759
53.300 7.667968
53.305 7.787517
53.310 7.862449
53.315 8.131826
53.320 8.698441
53.325 8.807604
53.330 8.271616
53.335 8.406863
53.340 8.241759
53.345 7.935477
53.350 7.783255
53.355 7.735658
53.360 8.137178
53.365 8.635829
53.370 8.696259
53.375 8.906906
53.380 9.052699
53.385 8.472263
53.390 8.181962
53.395 7.902657
53.400 7.914934
53.405 8.043612
53.410 8.097589
53.415 8.130566
53.420 8.814545
53.425 9.020193
53.430 9.371762
53.435 9.580766
53.440 9.053085
53.445 8.699979
53.450 8.807637
53.455 8.357034
53.460 7.968173
53.465 7.922507
53.470 7.605555
53.475 7.838356
53.480 8.099862
53.485 7.595294
53.490 7.82582
53.495 7.597732
53.500 7.580072
53.505 7.629692
53.510 7.871268
53.515 7.786861
53.520 8.059335
53.525 8.419919
53.530 8.505794
53.535 8.313429
53.540 7.925556
53.545 7.898353
53.550 8.049575
53.555 7.838502
53.560 7.882246
53.565 8.064584
53.570 8.235512
53.575 8.278669
53.580 7.93093
53.585 8.044187
53.590 8.045794
53.595 8.097065
53.600 8.256694
53.605 8.3817
53.610 8.427342
53.615 8.555805
53.620 8.609592
53.625 8.540347
53.630 8.737263
53.635 8.973941
53.640 9.11202
53.645 9.184604
53.650 8.990369
53.655 8.888357
53.660 8.772228
53.665 8.43493
53.670 8.278792
53.675 8.137643
53.680 8.456348
53.685 8.780982
53.690 8.649975
53.695 8.555223
53.700 8.32312
53.705 8.059664
53.710 8.002298
53.715 7.850124
53.720 7.692418
53.725 8.160964
53.730 8.257517
53.735 8.522902
53.740 8.763188
53.745 8.700112
53.750 9.17295
53.755 9.51938
53.760 9.387645
53.765 9.224849
53.770 9.193089
53.775 9.319122
53.780 9.280664
53.785 8.970038
53.790 8.541719
53.795 8.244084
53.800 8.091634
53.805 8.168819
53.810 8.133045
53.815 8.209529
53.820 8.317749
53.825 8.386573
53.830 8.293351
53.835 8.208934
53.840 7.837654
53.845 7.664245
53.850 7.294989
53.855 7.089472
53.860 7.176361
53.865 7.296566
53.870 7.627293
53.875 8.227486
53.880 8.675501
53.885 8.97936
53.890 9.165563
53.895 9.553346
53.900 9.227746
53.905 8.795448
53.910 8.394533
53.915 8.559253
53.920 8.650381
53.925 8.774774
53.930 8.605183
53.935 9.055058
53.940 10.123981
53.945 10.010139
53.950 9.559497
53.955 9.47681
53.960 9.427427
53.965 10.070945
53.970 9.685562
53.975 9.281388
53.980 9.534155
53.985 9.34296
53.990 9.055067
53.995 8.986559
54.000 9.127075
54.005 9.298391
54.010 8.726534
54.015 8.765827
54.020 8.737474
54.025 8.774551
54.030 8.855062
54.035 8.593734
54.040 8.776494
54.045 9.145487
54.050 9.528929
54.055 9.734562
54.060 9.597415
54.065 9.487258
54.070 9.289916
54.075 8.921223
54.080 9.291913
54.085 9.404031
54.090 9.452696
54.095 9.219035
54.100 9.132636
54.105 9.456485
54.110 9.740082
54.115 9.160477
54.120 9.148279
54.125 9.214561
54.130 9.485114
54.135 9.411939
54.140 9.181573
54.145 9.01556
54.150 8.760839
54.155 8.577748
54.160 8.271957
54.165 8.128916
54.170 7.952975
54.175 7.823326
54.180 7.83205
54.185 7.946043
54.190 8.012068
54.195 8.265106
54.200 8.06441
54.205 8.436533
54.210 8.231546
54.215 8.109152
54.220 8.355374
54.225 8.624732
54.230 8.696038
54.235 9.065202
54.240 8.922751
54.245 9.153005
54.250 8.95446
54.255 9.206982
54.260 8.695178
54.265 7.925273
54.270 7.621095
54.275 7.657093
54.280 7.814532
54.285 7.867733
54.290 7.564448
54.295 7.87415
54.300 8.335005
54.305 8.794185
54.310 8.769469
54.315 9.065756
54.320 9.237947
54.325 9.386456
54.330 9.724494
54.335 9.875404
54.340 9.884361
54.345 9.855541
54.350 9.395408
54.355 9.32281
54.360 9.257998
54.365 9.378785
54.370 9.748781
54.375 9.958787
54.380 9.901113
54.385 10.186112
54.390 10.538359
54.395 10.325392
54.400 9.926551
54.405 9.484575
54.410 9.367844
54.415 9.808803
54.420 9.571207
54.425 9.628992
54.430 9.819479
54.435 10.091665
54.440 10.218951
54.445 10.180717
54.450 10.167758
54.455 10.261588
54.460 10.606556
54.465 10.786561
54.470 10.931443
54.475 10.600424
54.480 10.682353
54.485 10.88229
54.490 10.704538
54.495 10.313132
54.500 10.348742
54.505 10.00887
54.510 9.812176
54.515 8.899065
54.520 8.512113
54.525 8.603541
54.530 8.316022
54.535 8.127611
54.540 8.298959
54.545 8.928346
54.550 9.27835
54.555 9.146694
54.560 8.930822
54.565 8.923847
54.570 8.912331
54.575 8.716763
54.580 8.636573
54.585 9.040327
54.590 8.882069
54.595 8.851571
54.600 8.924733
54.605 8.60043
54.610 8.961737
54.615 8.843063
54.620 9.050372
54.625 9.218803
54.630 9.378673
54.635 9.705718
54.640 10.095883
54.645 9.903967
54.650 9.950356
54.655 9.581848
54.660 9.597702
54.665 9.318496
54.670 9.044558
54.675 9.035036
54.680 9.074945
54.685 9.1452
54.690 9.621393
54.695 9.791843
54.700 9.793821
54.705 9.769009
54.710 9.137462
54.715 9.211259
54.720 9.018576
54.725 9.032252
54.730 9.04644
54.735 9.017837
54.740 9.591392
54.745 10.431628
54.750 10.152987
54.755 9.989184
54.760 10.18054
54.765 10.529082
54.770 10.95844
54.775 11.172448
54.780 11.176114
54.785 11.150025
54.790 11.050529
54.795 11.180357
54.800 10.729165
54.805 10.344888
54.810 9.979555
54.815 10.506405
54.820 11.054541
54.825 10.918309
54.830 10.698772
54.835 11.117622
54.840 11.472561
54.845 11.031886
54.850 10.597848
54.855 10.157016
54.860 10.359799
54.865 10.291602
54.870 9.809815
54.875 9.558522
54.880 9.709545
54.885 9.8745
54.890 9.8155
54.895 9.832286
54.900 10.213874
54.905 10.173331
54.910 9.993613
54.915 9.708108
54.920 9.572176
54.925 9.493997
54.930 9.092137
54.935 8.928383
54.940 9.502389
54.945 10.058613
54.950 10.616581
54.955 10.653172
54.960 10.738096
54.965 11.138504
54.970 11.205464
54.975 11.032601
54.980 10.853064
54.985 10.368992
54.990 10.639028
54.995 10.572076
55.000 10.499188
55.005 10.427071
55.010 9.974278
55.015 9.659108
55.020 10.159323
55.025 10.452783
55.030 10.502206
55.035 10.558893
55.040 10.489215
55.045 10.51798
55.050 10.74356
55.055 10.475165
55.060 10.423689
55.065 10.452901
55.070 10.812753
55.075 11.237407
55.080 11.393952
55.085 10.960814
55.090 10.472384
55.095 10.015544
55.100 10.011475
55.105 9.563258
55.110 9.497873
55.115 9.457944
55.120 9.349856
55.125 9.811309
55.130 10.594017
55.135 10.599963
55.140 10.346902
55.145 10.203857
55.150 10.374121
55.155 10.645031
55.160 10.077986
55.165 9.374284
55.170 9.332819
55.175 9.517988
55.180 9.592736
55.185 9.926516
55.190 10.31083
55.195 10.811557
55.200 10.790579
55.205 10.680698
55.210 10.64569
55.215 10.855097
55.220 10.72494
55.225 10.449283
55.230 10.204741
55.235 10.212601
55.240 10.474508
55.245 10.813572
55.250 10.623828
55.255 10.633789
55.260 10.144794
55.265 9.993344
55.270 10.086152
55.275 9.578815
55.280 9.101631
55.285 8.826639
55.290 9.370985
55.295 10.01531
55.300 10.034747
55.305 10.03293
55.310 10.55116
55.315 10.925589
55.320 11.095216
55.325 10.688358
55.330 10.309254
55.335 10.32945
55.340 10.398525
55.345 10.241094
55.350 10.041037
55.355 9.867348
55.360 10.343874
55.365 10.25437
55.370 9.735422
55.375 9.266409
55.380 8.888246
55.385 9.144737
55.390 8.931326
55.395 9.334569
55.400 10.101962
55.405 10.326367
55.410 10.46876
55.415 10.652367
55.420 10.3345
55.425 9.999622
55.430 9.445109
55.435 9.083306
55.440 9.724785
55.445 10.188924
55.450 10.664085
55.455 10.460722
55.460 10.737985
55.465 10.696936
55.470 10.825263
55.475 11.026396
55.480 10.681561
55.485 10.551027
55.490 10.71909
55.495 10.444244
55.500 10.615251
55.505 10.275533
55.510 10.504251
55.515 10.735746
55.520 10.542397
55.525 10.5672
55.530 10.710133
55.535 10.972489
55.540 11.223158
55.545 10.848608
55.550 10.375671
55.555 10.372852
55.560 10.517248
55.565 10.499933
55.570 10.166884
55.575 9.491787
55.580 9.51116
55.585 10.278455
55.590 10.481353
55.595 10.259624
55.600 9.826145
55.605 9.859926
55.610 10.039785
55.615 9.764922
55.620 9.507046
55.625 9.348837
55.630 9.49689
55.635 9.777393
55.640 9.842623
55.645 10.02135
55.650 9.53917
55.655 9.682687
55.660 9.784398
55.665 9.867599
55.670 9.727527
55.675 9.857016
55.680 9.640715
55.685 9.868751
55.690 9.792747
55.695 9.90686
55.700 10.150829
55.705 10.600674
55.710 10.239781
55.715 10.577204
55.720 10.956694
55.725 11.422549
55.730 11.45915
55.735 10.822592
55.740 10.690802
55.745 10.878767
55.750 11.380758
55.755 10.893826
55.760 10.441323
55.765 10.624034
55.770 10.845877
55.775 11.152425
55.780 11.013553
55.785 10.228974
55.790 10.559381
55.795 10.93034
55.800 11.069759
55.805 10.965357
55.810 10.717813
55.815 11.236266
55.820 11.531789
55.825 11.276874
55.830 11.005908
55.835 10.882621
55.840 10.831378
55.845 10.632404
55.850 10.53679
55.855 10.780118
55.860 10.736973
55.865 10.830713
55.870 10.992436
55.875 11.109844
55.880 11.251634
55.885 11.186756
55.890 11.145878
55.895 11.246019
55.900 11.361115
55.905 11.852313
55.910 11.876024
55.915 11.968391
55.920 12.386758
55.925 12.342663
55.930 12.376276
55.935 12.347585
55.940 11.86075
55.945 11.971246
55.950 11.821205
55.955 11.551482
55.960 11.460866
55.965 11.20576
55.970 10.776818
55.975 10.913923
55.980 11.054614
55.985 11.130234
55.990 10.973034
55.995 11.333927
56.000 11.582979
56.005 12.100576
56.010 12.040042
56.015 12.032784
56.020 12.028531
56.025 12.125857
56.030 11.990353
56.035 12.237992
56.040 12.150004
56.045 11.692483
56.050 11.408817
56.055 11.306578
56.060 10.666753
56.065 10.383927
56.070 10.169197
56.075 9.778502
56.080 9.679712
56.085 9.821912
56.090 9.615184
56.095 9.805328
56.100 9.746631
56.105 9.554538
56.110 9.650106
56.115 9.820298
56.120 9.605841
56.125 9.568285
56.130 9.71489
56.135 9.773502
56.140 9.885513
56.145 9.850047
56.150 9.592207
56.155 9.792176
56.160 10.074008
56.165 9.942189
56.170 10.175797
56.175 10.176723
56.180 9.871601
56.185 10.208161
56.190 10.530436
56.195 10.534891
56.200 11.008601
56.205 11.009633
56.210 11.024133
56.215 11.984953
56.220 12.44558
56.225 12.409145
56.230 12.67653
56.235 12.620562
56.240 12.4932
56.245 12.69416
56.250 12.295629
56.255 12.03904
56.260 11.739697
56.265 11.283751
56.270 10.997313
56.275 11.026649
56.280 10.447589
56.285 10.122342
56.290 10.146782
56.295 10.381216
56.300 10.516863
56.305 10.699422
56.310 10.927354
56.315 11.404771
56.320 11.154406
56.325 11.06251
56.330 11.26676
56.335 11.445509
56.340 11.326499
56.345 11.300785
56.350 11.67826
56.355 11.950006
56.360 12.074153
56.365 11.937548
56.370 11.825244
56.375 11.342135
56.380 11.145091
56.385 10.863091
56.390 10.882532
56.395 10.959623
56.400 11.419459
56.405 11.840139
56.410 12.433914
56.415 12.728359
56.420 13.165844
56.425 13.599391
56.430 13.694868
56.435 13.207124
56.440 12.867522
56.445 12.816638
56.450 12.839417
56.455 12.593763
56.460 12.443576
56.465 12.346966
56.470 12.198532
56.475 12.293466
56.480 12.046117
56.485 11.702993
56.490 12.015146
56.495 11.755591
56.500 11.63218
56.505 12.040068
56.510 12.087189
56.515 12.038618
56.520 12.209888
56.525 11.976838
56.530 11.749061
56.535 11.430193
56.540 11.234639
56.545 11.011779
56.550 10.57781
56.555 10.244265
56.560 10.108333
56.565 10.356045
56.570 10.601171
56.575 10.952509
56.580 11.695835
56.585 12.321722
56.590 12.805737
56.595 13.068451
56.600 13.334952
56.605 13.231335
56.610 12.278084
56.615 11.693757
56.620 11.546873
56.625 11.407624
56.630 11.235271
56.635 10.969269
56.640 10.843322
56.645 11.514618
56.650 11.71436
56.655 11.531106
56.660 11.645865
56.665 11.681989
56.670 11.94262
56.675 12.137719
56.680 11.831435
56.685 11.737215
56.690 12.078424
56.695 11.85993
56.700 11.582004
56.705 11.345771
56.710 11.302207
56.715 11.679304
56.720 11.789393
56.725 11.419411
56.730 11.463624
56.735 11.621406
56.740 12.03162
56.745 12.673229
56.750 12.801511
56.755 12.37001
56.760 12.28282
56.765 12.669235
56.770 12.698274
56.775 12.226781
56.780 11.605292
56.785 11.766336
56.790 12.118793
56.795 11.953754
56.800 11.586359
56.805 11.702217
56.810 11.915682
56.815 12.023586
56.820 11.977425
56.825 12.117372
56.830 12.15834
56.835 12.014606
56.840 12.24869
56.845 12.404923
56.850 12.10473
56.855 12.076741
56.860 11.99917
56.865 12.112707
56.870 12.163926
56.875 11.951222
56.880 11.224322
56.885 11.200823
56.890 11.35113
56.895 11.390098
56.900 11.09664
56.905 10.723892
56.910 10.824172
56.915 11.716708
56.920 11.630297
56.925 11.355103
56.930 11.670137
56.935 11.992098
56.940 12.329367
56.945 12.160663
56.950 11.57154
56.955 11.404731
56.960 11.486776
56.965 11.621933
56.970 11.604061
56.975 11.790528
56.980 11.723647
56.985 12.361495
56.990 13.04085
56.995 13.120675
57.000 13.087956
57.005 13.069394
57.010 12.913144
57.015 13.098238
57.020 12.713724
57.025 12.406239
57.030 12.49717
57.035 12.331642
57.040 12.882718
57.045 12.918894
57.050 13.176833
57.055 13.462316
57.060 13.272882
57.065 13.167414
57.070 13.701462
57.075 12.963067
57.080 12.825824
57.085 12.311097
57.090 12.235821
57.095 12.085903
57.100 11.94693
57.105 11.637101
57.110 11.995522
57.115 11.7764
57.120 11.634213
57.125 11.688359
57.130 11.489047
57.135 11.06152
57.140 11.499404
57.145 11.976678
57.150 12.233876
57.155 12.505423
57.160 12.663463
57.165 13.500368
57.170 14.133517
57.175 14.132661
57.180 13.772553
57.185 13.538073
57.190 13.484392
57.195 13.335079
57.200 13.051978
57.205 11.943123
57.210 11.669078
57.215 11.905573
57.220 12.016096
57.225 11.956812
57.230 11.957772
57.235 11.752963
57.240 12.079942
57.245 11.829422
57.250 11.859279
57.255 11.633105
57.260 11.596805
57.265 11.792762
57.270 12.476535
57.275 12.41504
57.280 11.922654
57.285 12.542284
57.290 13.024651
57.295 12.904217
57.300 12.738595
57.305 12.803558
57.310 13.19181
57.315 13.613666
57.320 13.264626
57.325 13.179695
57.330 13.897716
57.335 13.617283
57.340 13.480737
57.345 13.516565
57.350 13.195726
57.355 12.96819
57.360 13.012704
57.365 12.842721
57.370 13.054638
57.375 12.774861
57.380 13.036356
57.385 13.010887
57.390 13.243944
57.395 13.256769
57.400 12.980142
57.405 12.932419
57.410 12.736126
57.415 12.104659
57.420 11.687594
57.425 11.558491
57.430 11.329239
57.435 11.109825
57.440 11.620107
57.445 11.911292
57.450 12.343699
57.455 12.734321
57.460 12.7926
57.465 13.123501
57.470 13.420116
57.475 13.023134
57.480 12.982763
57.485 13.591576
57.490 13.40839
57.495 13.357355
57.500 13.374454
57.505 13.18355
57.510 13.196036
57.515 13.202706
57.520 12.522725
57.525 12.776415
57.530 12.682089
57.535 12.51608
57.540 12.602613
57.545 12.673472
57.550 12.581839
57.555 12.583833
57.560 12.871721
57.565 12.890653
57.570 12.742801
57.575 13.076111
57.580 13.333601
57.585 12.907007
57.590 13.164071
57.595 13.569448
57.600 13.937915
57.605 13.919072
57.610 13.511666
57.615 13.406573
57.620 13.829558
57.625 13.370763
57.630 12.760514
57.635 12.442064
57.640 12.659648
57.645 12.752434
57.650 13.069916
57.655 13.468968
57.660 13.691761
57.665 13.284482
57.670 13.504774
57.675 13.422409
57.680 13.410114
57.685 13.371052
57.690 13.315996
57.695 13.28616
57.700 13.271057
57.705 13.235982
57.710 13.341211
57.715 13.579998
57.720 13.340113
57.725 13.278704
57.730 13.669479
57.735 13.976622
57.740 13.823839
57.745 13.517496
57.750 13.116227
57.755 12.953262
57.760 13.035924
57.765 12.551732
57.770 12.361264
57.775 12.360211
57.780 12.74584
57.785 12.920368
57.790 13.029481
57.795 12.994835
57.800 13.43007
57.805 13.449736
57.810 13.201849
57.815 13.022317
57.820 13.653864
57.825 13.774066
57.830 13.837028
57.835 13.695193
57.840 13.812508
57.845 14.019883
57.850 14.077722
57.855 13.942751
57.860 14.192869
57.865 13.689329
57.870 13.908125
57.875 13.872478
57.880 13.842683
57.885 13.558979
57.890 13.00077
57.895 12.678655
57.900 12.510935
57.905 12.230737
57.910 12.326178
57.915 12.283738
57.920 12.287107
57.925 13.065858
57.930 13.766128
57.935 14.327056
57.940 14.38426
57.945 14.527242
57.950 14.739792
57.955 14.663555
57.960 14.165376
57.965 13.557604
57.970 13.536374
57.975 13.53787
57.980 13.689133
57.985 13.432529
57.990 13.155369
57.995 12.735023
58.000 12.67806
58.005 12.891097
58.010 13.436508
58.015 13.393193
58.020 13.878098
58.025 14.810749
58.030 15.342303
58.035 15.256425
58.040 14.678046
58.045 14.368833
58.050 14.379642
58.055 14.211828
58.060 13.544042
58.065 13.205348
58.070 13.374656
58.075 13.353482
58.080 12.867139
58.085 12.607379
58.090 12.699315
58.095 13.033367
58.100 12.861315
58.105 13.457077
58.110 13.448912
58.115 13.60885
58.120 13.5096
58.125 13.084723
58.130 12.882442
58.135 12.987075
58.140 12.51113
58.145 12.805126
58.150 12.244425
58.155 12.11949
58.160 12.186058
58.165 12.264508
58.170 12.525106
58.175 12.316796
58.180 12.311968
58.185 12.695581
58.190 12.75941
58.195 12.412819
58.200 12.242765
58.205 12.021735
58.210 12.181356
58.215 12.183991
58.220 12.379149
58.225 12.682622
58.230 13.588205
58.235 14.386858
58.240 14.51851
58.245 14.362926
58.250 14.453856
58.255 14.851142
58.260 14.44847
58.265 14.178718
58.270 13.757248
58.275 13.859025
58.280 14.227084
58.285 14.350863
58.290 14.711393
58.295 15.305509
58.300 15.292213
58.305 15.665663
58.310 15.814301
58.315 16.166658
58.320 16.275278
58.325 15.85113
58.330 15.47159
58.335 15.434422
58.340 15.08154
58.345 15.10068
58.350 15.201849
58.355 15.174112
58.360 15.2065
58.365 15.242689
58.370 14.607535
58.375 14.408519
58.380 14.081028
58.385 13.349184
58.390 12.864285
58.395 12.647899
58.400 12.871977
58.405 13.167009
58.410 13.848636
58.415 14.095083
58.420 14.771897
58.425 14.634401
58.430 15.101027
58.435 15.461622
58.440 15.642722
58.445 15.45532
58.450 15.270298
58.455 15.065323
58.460 15.900831
58.465 15.77906
58.470 15.472379
58.475 15.146084
58.480 14.593546
58.485 14.17679
58.490 14.190269
58.495 14.176807
58.500 13.758633
58.505 13.643822
58.510 13.926019
58.515 14.175206
58.520 14.723598
58.525 14.877665
58.530 14.517944
58.535 14.693208
58.540 14.715894
58.545 14.529844
58.550 14.663444
58.555 14.575136
58.560 14.453834
58.565 14.840662
58.570 15.424261
58.575 15.975374
58.580 16.282124
58.585 16.09729
58.590 16.061068
58.595 15.657483
58.600 15.7683
58.605 15.594689
58.610 15.346432
58.615 15.243733
58.620 15.55722
58.625 16.168337
58.630 16.954813
58.635 16.225483
58.640 15.489828
58.645 14.935657
58.650 14.73002
58.655 14.4227
58.660 14.361411
58.665 13.880103
58.670 13.787767
58.675 13.860228
58.680 14.191755
58.685 14.451806
58.690 14.474224
58.695 13.95016
58.700 13.714582
58.705 14.002708
58.710 13.950628
58.715 13.532405
58.720 13.555801
58.725 13.6125
58.730 13.990004
58.735 14.094541
58.740 14.21019
58.745 14.396854
58.750 14.576623
58.755 14.098817
58.760 14.244516
58.765 13.877508
58.770 14.00309
58.775 13.876526
58.780 13.868333
58.785 13.55722
58.790 13.515381
58.795 13.377804
58.800 13.286765
58.805 13.055609
58.810 13.36792
58.815 13.629127
58.820 14.217553
58.825 14.517997
58.830 14.725874
58.835 14.704994
58.840 15.14149
58.845 15.307176
58.850 15.364067
58.855 15.356625
58.860 15.478481
58.865 15.901929
58.870 16.600632
58.875 16.94095
58.880 16.543238
58.885 15.783665
58.890 15.490049
58.895 14.849432
58.900 14.340533
58.905 13.85499
58.910 13.562757
58.915 13.35781
58.920 13.382002
58.925 13.226918
58.930 13.29505
58.935 13.660703
58.940 14.016806
58.945 14.29384
58.950 14.794457
58.955 14.675192
58.960 14.557788
58.965 14.535873
58.970 13.947205
58.975 13.531438
58.980 13.682096
58.985 13.856741
58.990 15.024145
58.995 15.650726
59.000 15.849441
59.005 16.40086
59.010 16.206963
59.015 15.663614
59.020 15.390444
59.025 14.730223
59.030 14.322105
59.035 13.874445
59.040 13.496755
59.045 13.667475
59.050 13.87786
59.055 14.262432
59.060 14.316855
59.065 14.911464
59.070 15.894701
59.075 15.64109
59.080 15.670088
59.085 15.857086
59.090 15.397694
59.095 16.068254
59.100 15.459483
59.105 14.692812
59.110 15.061923
59.115 15.028687
59.120 14.825051
59.125 14.674049
59.130 13.830318
59.135 14.088036
59.140 14.382971
59.145 15.030147
59.150 15.246078
59.155 14.844337
59.160 15.057633
59.165 15.842758
59.170 15.536639
59.175 15.528011
59.180 14.854893
59.185 14.643427
59.190 15.040399
59.195 15.119971
59.200 14.833471
59.205 14.894908
59.210 14.491218
59.215 14.688014
59.220 14.979527
59.225 15.572314
59.230 16.172703
59.235 16.452366
59.240 16.604393
59.245 17.25242
59.250 17.385983
59.255 17.471272
59.260 17.380056
59.265 16.713968
59.270 16.70388
59.275 17.157887
59.280 16.868904
59.285 16.46895
59.290 16.100348
59.295 15.701985
59.300 15.791927
59.305 16.130825
59.310 15.811789
59.315 15.645905
59.320 15.611382
59.325 16.107924
59.330 16.268616
59.335 16.144871
59.340 15.527871
59.345 15.556413
59.350 15.5439
59.355 15.857267
59.360 15.447464
59.365 15.581892
59.370 15.356398
59.375 15.827856
59.380 15.99636
59.385 16.388538
59.390 16.808313
59.395 16.904148
59.400 17.280396
59.405 17.829233
59.410 18.013979
59.415 18.555346
59.420 18.467747
59.425 17.782373
59.430 17.636951
59.435 17.248636
59.440 16.908241
59.445 16.800287
59.450 16.379192
59.455 16.06101
59.460 16.308342
59.465 16.660339
59.470 17.028809
59.475 16.888279
59.480 16.440517
59.485 16.536396
59.490 17.400883
59.495 18.237158
59.500 18.400743
59.505 18.913439
59.510 19.612486
59.515 19.110031
59.520 19.335077
59.525 18.996897
59.530 18.525957
59.535 18.022747
59.540 17.661077
59.545 17.669527
59.550 18.257782
59.555 17.831982
59.560 17.67804
59.565 17.57155
59.570 17.51298
59.575 17.185133
59.580 17.230677
59.585 18.189251
59.590 18.645803
59.595 19.106298
59.600 19.442579
59.605 19.785086
59.610 19.936323
59.615 19.653973
59.620 19.552784
59.625 19.107363
59.630 18.304876
59.635 17.862511
59.640 17.92223
59.645 18.413301
59.650 18.235743
59.655 18.002544
59.660 18.896763
59.665 20.090883
59.670 20.908966
59.675 20.948193
59.680 20.680452
59.685 20.474255
59.690 20.330349
59.695 19.932848
59.700 19.370924
59.705 18.660728
59.710 18.68265
59.715 18.942089
59.720 19.135502
59.725 19.121038
59.730 19.158396
59.735 19.762495
59.740 20.190807
59.745 20.067141
59.750 19.839548
59.755 19.738842
59.760 19.458868
59.765 19.538183
59.770 19.087477
59.775 19.336348
59.780 19.287714
59.785 19.105881
59.790 19.649117
59.795 20.287304
59.800 20.450377
59.805 20.257179
59.810 19.721907
59.815 20.198877
59.820 20.896034
59.825 20.473921
59.830 20.322422
59.835 20.157751
59.840 20.606804
59.845 20.885246
59.850 20.493267
59.855 20.398447
59.860 20.403471
59.865 20.762407
59.870 21.012342
59.875 20.972633
59.880 21.136492
59.885 20.897264
59.890 20.771851
59.895 20.906372
59.900 20.742558
59.905 20.467125
59.910 20.537531
59.915 20.672562
59.920 20.548603
59.925 20.272671
59.930 20.004175
59.935 19.682358
59.940 19.464407
59.945 18.946121
59.950 18.691525
59.955 18.663383
59.960 18.941263
59.965 19.10144
59.970 19.176931
59.975 19.496754
59.980 20.251587
59.985 20.881128
59.990 21.253548
59.995 21.272903
60.000 21.644058
60.005 21.608444
60.010 21.791237
60.015 21.996691
60.020 21.796555
60.025 22.546194
60.030 22.6991
60.035 22.79464
60.040 23.079475
60.045 22.94903
60.050 22.566475
60.055 22.428591
60.060 22.278561
60.065 22.156397
60.070 21.663252
60.075 21.642569
60.080 21.601362
60.085 21.916367
60.090 21.989552
60.095 21.785707
60.100 21.670595
60.105 22.025841
60.110 21.604031
60.115 21.227026
60.120 21.208645
60.125 20.573994
60.130 20.647221
60.135 21.187983
60.140 20.989832
60.145 20.801413
60.150 20.786936
60.155 20.784601
60.160 21.563894
60.165 20.848776
60.170 20.198807
60.175 20.66988
60.180 21.009747
60.185 21.476828
60.190 21.454489
60.195 20.876469
60.200 20.88698
60.205 20.305023
60.210 19.468996
60.215 19.674273
60.220 18.970984
60.225 18.140568
60.230 18.106745
60.235 18.645235
60.240 19.419783
60.245 19.563427
60.250 19.076097
60.255 19.039131
60.260 19.447943
60.265 19.455473
60.270 19.056271
60.275 18.923168
60.280 19.330734
60.285 19.727442
60.290 19.610727
60.295 19.94898
60.300 19.845917
60.305 20.165031
60.310 20.035511
60.315 19.875959
60.320 19.391569
60.325 19.719929
60.330 19.262144
60.335 18.78652
60.340 17.950642
60.345 17.840923
60.350 18.032967
60.355 18.460938
60.360 17.688238
60.365 17.60343
60.370 18.467934
60.375 19.163803
60.380 19.316713
60.385 18.944569
60.390 18.815592
60.395 19.503471
60.400 19.5854
60.405 19.436014
60.410 19.465975
60.415 19.027748
60.420 19.039825
60.425 18.744867
60.430 17.698938
60.435 17.622438
60.440 16.942308
60.445 16.569246
60.450 16.525023
60.455 16.673946
60.460 17.36359
60.465 18.143015
60.470 17.874743
60.475 18.204439
60.480 18.341719
60.485 18.990507
60.490 19.159466
60.495 18.85141
60.500 18.66008
60.505 19.225826
60.510 19.100548
60.515 18.816582
60.520 18.021626
60.525 17.442665
60.530 17.593987
60.535 17.534094
60.540 17.397522
60.545 17.576456
60.550 17.947777
60.555 18.306561
60.560 18.312458
60.565 18.098238
60.570 18.345049
60.575 18.445362
60.580 18.348648
60.585 18.481848
60.590 18.950857
60.595 19.223297
60.600 19.277771
60.605 19.216097
60.610 18.596703
60.615 18.034716
60.620 17.806902
60.625 17.229549
60.630 16.711462
60.635 16.448929
60.640 15.715591
60.645 16.36396
60.650 16.937862
60.655 16.361568
60.660 16.356428
60.665 16.276924
60.670 16.379534
60.675 16.031456
60.680 15.42422
60.685 14.475276
60.690 14.824777
60.695 15.205471
60.700 15.752316
60.705 16.103115
60.710 16.631889
60.715 16.925133
60.720 18.188313
60.725 18.289604
60.730 18.171602
60.735 18.231873
60.740 18.518549
60.745 18.637548
60.750 18.671883
60.755 17.944033
60.760 17.576393
60.765 17.525471
60.770 17.274334
60.775 16.988243
60.780 16.68376
60.785 16.644772
60.790 16.316887
60.795 16.48904
60.800 16.571053
60.805 16.453928
60.810 16.291039
60.815 15.929068
60.820 15.406917
60.825 15.781143
60.830 15.564342
60.835 15.211947
60.840 15.390822
60.845 15.562512
60.850 16.274397
60.855 17.039127
60.860 17.323921
60.865 17.597906
60.870 17.96254
60.875 17.848343
60.880 17.208048
60.885 16.60799
60.890 16.475235
60.895 16.351351
60.900 16.096535
60.905 16.039865
60.910 16.4056
60.915 17.005442
60.920 16.958519
60.925 16.560989
60.930 16.459387
60.935 16.303391
60.940 15.829349
60.945 15.040394
60.950 14.968266
60.955 15.48243
60.960 15.585717
60.965 15.455202
60.970 15.580573
60.975 16.028706
60.980 16.41851
60.985 16.238777
60.990 15.98857
60.995 16.034021
61.000 16.414289
61.005 16.18774
61.010 15.812581
61.015 16.178024
61.020 16.633951
61.025 16.583733
61.030 16.755241
61.035 16.401854
61.040 16.322996
61.045 16.412237
61.050 16.279055
61.055 15.186259
61.060 15.002758
61.065 14.471218
61.070 14.795114
61.075 15.344166
61.080 15.271663
61.085 15.420476
61.090 16.433126
61.095 16.6243
61.100 16.995399
61.105 16.763927
61.110 16.557941
61.115 16.322584
61.120 15.610176
61.125 15.343345
61.130 15.399531
61.135 15.38341
61.140 15.42799
61.145 15.225145
61.150 15.114931
61.155 15.711679
61.160 15.326014
61.165 15.271728
61.170 15.471877
61.175 15.25639
61.180 15.535812
61.185 15.790053
61.190 15.355527
61.195 15.825891
61.200 16.604879
61.205 16.747137
61.210 17.282896
61.215 17.373812
61.220 17.617289
61.225 18.534204
61.230 18.404097
61.235 18.015312
61.240 17.703012
61.245 17.851242
61.250 18.157551
61.255 17.95755
61.260 17.979864
61.265 18.49387
61.270 17.581305
61.275 17.305626
61.280 16.545643
61.285 16.525217
61.290 16.639132
61.295 16.290169
61.300 15.495194
61.305 15.863374
61.310 15.873589
61.315 15.799472
61.320 15.417402
61.325 15.18638
61.330 15.015595
61.335 15.164953
61.340 15.229479
61.345 15.828295
61.350 16.53647
61.355 16.293604
61.360 15.959642
61.365 15.909237
61.370 15.752446
61.375 15.164182
61.380 14.425289
61.385 14.204084
61.390 14.279126
61.395 14.204621
61.400 13.996346
61.405 14.224077
61.410 14.962589
61.415 15.373091
61.420 15.99154
61.425 16.533909
61.430 16.433176
61.435 16.928034
61.440 16.860449
61.445 16.184896
61.450 15.71987
61.455 14.792257
61.460 14.536064
61.465 14.753107
61.470 14.462637
61.475 14.990659
61.480 15.561645
61.485 15.84701
61.490 16.043898
61.495 15.718837
61.500 15.392683
61.505 15.416779
61.510 15.677674
61.515 15.986367
61.520 16.113249
61.525 16.546841
61.530 17.507858
61.535 17.818451
61.540 17.539154
61.545 17.24493
61.550 17.064577
61.555 17.144047
61.560 16.78994
61.565 16.489235
61.570 16.682392
61.575 16.915436
61.580 16.379515
61.585 16.522749
61.590 16.459538
61.595 17.027411
61.600 17.182901
61.605 17.185419
61.610 17.550961
61.615 17.925669
61.620 17.351734
61.625 17.498495
61.630 16.884874
61.635 16.338228
61.640 16.160988
61.645 15.901585
61.650 15.956382
61.655 16.306337
61.660 16.04627
61.665 16.036232
61.670 15.737232
61.675 15.961216
61.680 16.070873
61.685 15.933446
61.690 15.381443
61.695 15.268865
61.700 15.337785
61.705 16.003935
61.710 15.921672
61.715 15.724462
61.720 15.574311
61.725 15.526534
61.730 15.534677
61.735 15.390961
61.740 14.931406
61.745 14.820372
61.750 14.698792
61.755 14.980319
61.760 15.108723
61.765 14.834919
61.770 14.906262
61.775 14.835397
61.780 14.15162
61.785 14.171986
61.790 14.029508
61.795 14.036723
61.800 14.024735
61.805 13.746369
61.810 14.167848
61.815 14.646951
61.820 15.002126
61.825 15.375486
61.830 15.516196
61.835 15.575085
61.840 16.217892
61.845 16.310562
61.850 16.432037
61.855 16.34956
61.860 16.551912
61.865 16.475992
61.870 16.613485
61.875 16.622742
61.880 16.820274
61.885 17.260624
61.890 17.646172
61.895 17.577835
61.900 17.689251
61.905 17.943172
61.910 18.077677
61.915 17.890038
61.920 17.450464
61.925 17.157406
61.930 17.196247
61.935 17.620195
61.940 17.872486
61.945 17.722166
61.950 17.435919
61.955 17.896009
61.960 17.991262
61.965 18.063747
61.970 17.860413
61.975 17.868143
61.980 17.286377
61.985 17.297438
61.990 16.802233
61.995 16.155979
62.000 15.8449
62.005 15.544827
62.010 14.695739
62.015 14.695213
62.020 14.877593
62.025 15.32879
62.030 15.820214
62.035 15.754883
62.040 15.847322
62.045 16.266771
62.050 16.385202
62.055 16.098515
62.060 15.837555
62.065 15.995583
62.070 16.490467
62.075 16.292061
62.080 16.698196
62.085 16.94784
62.090 16.945759
62.095 16.720297
62.100 16.026173
62.105 15.874134
62.110 16.515081
62.115 16.827965
62.120 16.764372
62.125 17.06394
62.130 17.444809
62.135 18.030359
62.140 18.116978
62.145 17.76808
62.150 17.750002
62.155 18.164896
62.160 17.982038
62.165 17.848335
62.170 18.007654
62.175 17.975544
62.180 17.939526
62.185 17.356266
62.190 17.502804
62.195 17.453554
62.200 17.59811
62.205 17.22364
62.210 17.092058
62.215 17.057451
62.220 17.076715
62.225 16.734848
62.230 16.714907
62.235 16.386267
62.240 16.916183
62.245 17.133341
62.250 17.168188
62.255 17.088667
62.260 16.849554
62.265 17.330408
62.270 16.823446
62.275 15.844913
62.280 15.600459
62.285 15.506158
62.290 15.379855
62.295 15.409129
62.300 14.822799
62.305 15.231246
62.310 15.44586
62.315 15.511247
62.320 15.736431
62.325 15.813177
62.330 15.906136
62.335 16.087629
62.340 16.020325
62.345 15.995163
62.350 16.375231
62.355 16.331863
62.360 16.930134
62.365 17.427786
62.370 17.448515
62.375 17.551359
62.380 17.635729
62.385 16.75112
62.390 16.389463
62.395 15.547926
62.400 15.487648
62.405 15.593217
62.410 15.886901
62.415 16.080933
62.420 16.389465
62.425 16.446331
62.430 16.418278
62.435 16.120386
62.440 15.859131
62.445 15.858011
62.450 15.838953
62.455 15.776078
62.460 16.331211
62.465 16.854183
62.470 17.498005
62.475 17.620388
62.480 17.611612
62.485 17.33713
62.490 16.98522
62.495 16.888561
62.500 16.515806
62.505 16.186764
62.510 15.873552
62.515 15.577946
62.520 15.753684
62.525 15.64642
62.530 14.911363
62.535 15.059236
62.540 14.961123
62.545 15.210315
62.550 15.137414
62.555 15.445482
62.560 15.513638
62.565 16.032206
62.570 15.854485
62.575 15.975732
62.580 15.737016
62.585 15.356421
62.590 15.435293
62.595 15.349673
62.600 14.975267
62.605 14.584116
62.610 14.039352
62.615 14.005192
62.620 13.496162
62.625 13.501501
62.630 14.129031
62.635 14.725933
62.640 15.173424
62.645 15.67197
62.650 16.296131
62.655 16.737661
62.660 16.210697
62.665 15.897358
62.670 15.346648
62.675 15.187117
62.680 15.183198
62.685 15.439477
62.690 16.084122
62.695 16.673895
62.700 16.612801
62.705 16.710314
62.710 16.404852
62.715 16.293688
62.720 16.270155
62.725 16.287004
62.730 16.693918
62.735 17.126972
62.740 16.875219
62.745 17.002542
62.750 16.473362
62.755 16.225565
62.760 16.121372
62.765 15.250636
62.770 14.531396
62.775 14.725689
62.780 14.636513
62.785 14.697903
62.790 14.874419
62.795 14.024799
62.800 14.245322
62.805 15.159692
62.810 15.04459
62.815 15.312025
62.820 15.276392
62.825 15.432524
62.830 16.087149
62.835 16.296299
62.840 15.839768
62.845 16.464941
62.850 16.859442
62.855 17.32622
62.860 17.313005
62.865 17.660398
62.870 17.225794
62.875 17.285196
62.880 16.96731
62.885 16.628809
62.890 15.998101
62.895 15.720659
62.900 15.598434
62.905 15.766039
62.910 15.818155
62.915 15.864963
62.920 15.914732
62.925 16.351858
62.930 16.303827
62.935 16.180664
62.940 16.385456
62.945 16.678171
62.950 16.835932
62.955 16.661869
62.960 16.79627
62.965 16.704416
62.970 16.435413
62.975 16.968616
62.980 16.901548
62.985 16.88525
62.990 17.368944
62.995 17.29591
63.000 17.264524
63.005 17.281067
63.010 16.894474
63.015 16.823122
63.020 17.105803
63.025 16.750357
63.030 16.57023
63.035 16.487301
63.040 16.498508
63.045 16.681143
63.050 16.770966
63.055 16.640373
63.060 16.824421
63.065 16.988365
63.070 17.921831
63.075 18.368546
63.080 18.402302
63.085 18.221804
63.090 17.82884
63.095 17.494795
63.100 17.030916
63.105 16.46809
63.110 15.543062
63.115 15.004504
63.120 14.985754
63.125 15.449547
63.130 15.508001
63.135 15.586435
63.140 15.532203
63.145 15.916572
63.150 15.909836
63.155 16.013615
63.160 15.75663
63.165 15.928928
63.170 16.174982
63.175 16.535168
63.180 16.89468
63.185 17.19249
63.190 17.345165
63.195 16.971069
63.200 16.840139
63.205 16.252815
63.210 16.044609
63.215 15.682542
63.220 15.444723
63.225 15.466449
63.230 15.781929
63.235 15.77946
63.240 16.130709
63.245 15.781483
63.250 16.000887
63.255 16.295813
63.260 16.404385
63.265 16.384243
63.270 15.78454
63.275 15.57641
63.280 15.664559
63.285 16.188797
63.290 16.342442
63.295 15.905709
63.300 15.719074
63.305 16.260471
63.310 16.446163
63.315 16.608171
63.320 16.236464
63.325 16.369234
63.330 16.696543
63.335 17.268194
63.340 17.836861
63.345 17.715485
63.350 18.214882
63.355 18.324408
63.360 18.071356
63.365 18.535309
63.370 18.746746
63.375 18.778635
63.380 18.733921
63.385 17.961588
63.390 17.550543
63.395 17.195013
63.400 17.306063
63.405 16.520651
63.410 16.07382
63.415 16.052217
63.420 16.081942
63.425 15.903612
63.430 16.07395
63.435 15.253238
63.440 15.811431
63.445 16.311081
63.450 17.019289
63.455 17.739149
63.460 18.542265
63.465 18.675732
63.470 18.908844
63.475 19.033354
63.480 18.986092
63.485 18.898405
63.490 18.846258
63.495 18.241526
63.500 17.823233
63.505 18.044548
63.510 17.666811
63.515 17.481434
63.520 17.258121
63.525 17.063032
63.530 17.055834
63.535 17.386625
63.540 17.239624
63.545 17.359314
63.550 17.35078
63.555 17.274033
63.560 16.712229
63.565 16.979902
63.570 17.106953
63.575 17.240797
63.580 17.027983
63.585 16.958643
63.590 17.111605
63.595 17.045231
63.600 16.877159
63.605 17.316305
63.610 17.223091
63.615 17.610336
63.620 17.607935
63.625 17.571272
63.630 17.953211
63.635 17.82869
63.640 17.515312
63.645 17.789524
63.650 17.954266
63.655 18.214386
63.660 18.288603
63.665 18.176834
63.670 18.482288
63.675 18.197987
63.680 18.070297
63.685 17.296476
63.690 16.44717
63.695 16.143875
63.700 15.874472
63.705 15.472626
63.710 15.456837
63.715 15.544445
63.720 15.639496
63.725 16.432064
63.730 17.090456
63.735 17.617723
63.740 17.870033
63.745 17.707823
63.750 18.032804
63.755 18.536076
63.760 18.208382
63.765 17.925459
63.770 18.20895
63.775 18.421345
63.780 18.272411
63.785 17.692791
63.790 17.416698
63.795 17.414427
63.800 17.344688
63.805 17.485056
63.810 17.444086
63.815 18.139166
63.820 18.202478
63.825 17.828617
63.830 17.639534
63.835 17.699684
63.840 17.026031
63.845 16.696102
63.850 17.012535
63.855 17.878443
63.860 18.823002
63.865 18.938814
63.870 18.952522
63.875 19.726168
63.880 19.542725
63.885 18.83189
63.890 18.556776
63.895 17.961641
63.900 17.759882
63.905 17.844971
63.910 18.024908
63.915 18.969307
63.920 19.569059
63.925 19.555313
63.930 19.479387
63.935 19.622044
63.940 19.437778
63.945 18.485287
63.950 17.71106
63.955 17.548088
63.960 17.064651
63.965 17.079819
63.970 17.229967
63.975 17.215288
63.980 17.282061
63.985 17.628735
63.990 17.739038
63.995 18.230413
64.000 18.320683
64.005 18.254021
64.010 18.148712
64.015 18.640594
64.020 18.187342
64.025 17.626877
64.030 17.416002
64.035 17.685917
64.040 17.862864
64.045 18.283026
64.050 18.715927
64.055 18.544147
64.060 18.731077
64.065 19.017185
64.070 18.780941
64.075 18.60099
64.080 18.027155
64.085 17.76951
64.090 17.500881
64.095 17.421028
64.100 17.044399
64.105 17.130781
64.110 17.094656
64.115 17.57579
64.120 17.953699
64.125 18.462893
64.130 18.528234
64.135 18.581371
64.140 18.595217
64.145 18.166401
64.150 17.192268
64.155 15.923251
64.160 15.731048
64.165 15.818516
64.170 15.564664
64.175 15.415978
64.180 15.855667
64.185 16.282822
64.190 16.899593
64.195 16.7206
64.200 16.255964
64.205 16.472153
64.210 16.846338
64.215 17.434767
64.220 17.94916
64.225 18.96896
64.230 19.317257
64.235 19.861649
64.240 19.608828
64.245 19.503836
64.250 18.823063
64.255 18.115673
64.260 17.22578
64.265 16.713987
64.270 16.727367
64.275 17.151405
64.280 16.42695
64.285 16.557196
64.290 16.502569
64.295 16.140617
64.300 16.212261
64.305 15.898744
64.310 15.941637
64.315 16.139053
64.320 15.686469
64.325 15.500851
64.330 15.481218
64.335 16.018953
64.340 16.382818
64.345 16.343079
64.350 16.788784
64.355 18.003729
64.360 18.511967
64.365 18.699593
64.370 18.137617
64.375 17.713118
64.380 17.694559
64.385 17.303013
64.390 16.694151
64.395 17.035374
64.400 17.592243
64.405 17.68848
64.410 18.408518
64.415 18.925375
64.420 19.336014
64.425 19.554241
64.430 18.869061
64.435 18.673506
64.440 19.317844
64.445 19.388046
64.450 18.986526
64.455 19.026825
64.460 18.943964
64.465 19.450596
64.470 19.938639
64.475 19.608868
64.480 19.587526
64.485 20.109694
64.490 20.051115
64.495 20.412252
64.500 20.536823
64.505 20.272352
64.510 20.00021
64.515 19.758585
64.520 19.56542
64.525 19.925243
64.530 19.76676
64.535 19.776499
64.540 19.974852
64.545 19.534224
64.550 18.987314
64.555 18.967892
64.560 18.611837
64.565 18.495422
64.570 18.528605
64.575 18.743639
64.580 19.430498
64.585 19.879524
64.590 20.093496
64.595 19.640017
64.600 19.491022
64.605 19.520636
64.610 19.211306
64.615 19.423563
64.620 19.356205
64.625 19.177782
64.630 19.57506
64.635 19.580486
64.640 20.018284
64.645 20.086725
64.650 19.756847
64.655 19.953737
64.660 20.166847
64.665 20.468527
64.670 20.564493
64.675 20.311661
64.680 20.300985
64.685 20.04245
64.690 19.452515
64.695 19.015627
64.700 18.784468
64.705 18.125511
64.710 17.62594
64.715 17.261333
64.720 17.622269
64.725 18.054905
64.730 17.870768
64.735 18.071064
64.740 18.921064
64.745 19.05262
64.750 19.532614
64.755 19.785049
64.760 19.60936
64.765 20.061485
64.770 19.918547
64.775 19.322495
64.780 19.506706
64.785 19.785902
64.790 19.642784
64.795 19.834993
64.800 19.826836
64.805 19.88312
64.810 20.355581
64.815 19.809278
64.820 20.095831
64.825 19.927612
64.830 19.516531
64.835 19.51335
64.840 19.378241
64.845 19.343597
64.850 19.752291
64.855 18.951757
64.860 19.28364
64.865 20.138906
64.870 20.467157
64.875 20.795574
64.880 20.710062
64.885 20.768618
64.890 20.977783
64.895 20.740084
64.900 20.016705
64.905 19.626535
64.910 19.105944
64.915 19.073893
64.920 19.065817
64.925 19.170427
64.930 19.297087
64.935 19.44492
64.940 19.264807
64.945 19.769661
64.950 20.523306
64.955 20.948383
64.960 21.186924
64.965 21.130899
64.970 21.414139
64.975 21.917257
64.980 22.100853
64.985 21.676878
64.990 21.693384
64.995 21.695173
65.000 22.25176
65.005 22.295408
65.010 22.396441
65.015 22.242563
65.020 22.405798
65.025 21.945265
65.030 21.641397
65.035 21.562532
65.040 21.946671
65.045 21.469656
65.050 21.177864
65.055 21.248571
65.060 21.744888
65.065 21.671225
65.070 21.319902
65.075 21.179438
65.080 22.169796
65.085 22.698528
65.090 23.498175
65.095 24.010441
65.100 24.20278
65.105 23.629837
65.110 23.370707
65.115 22.937862
65.120 22.649561
65.125 22.163399
65.130 21.515402
65.135 21.846661
65.140 22.629648
65.145 22.642586
65.150 23.143269
65.155 23.170589
65.160 22.279272
65.165 21.615088
65.170 21.179052
65.175 20.979626
65.180 21.232727
65.185 20.956438
65.190 20.863871
65.195 20.802116
65.200 21.760801
65.205 22.087053
65.210 21.719109
65.215 21.376957
65.220 21.418264
65.225 21.837852
65.230 22.641293
65.235 22.064402
65.240 22.408602
65.245 22.842295
65.250 22.670424
65.255 21.827713
65.260 21.639076
65.265 21.302258
65.270 21.399672
65.275 21.244314
65.280 20.904705
65.285 20.706985
65.290 20.964991
65.295 21.028902
65.300 21.262465
65.305 21.487093
65.310 21.481434
65.315 21.89189
65.320 22.042078
65.325 22.547813
65.330 22.733192
65.335 23.134089
65.340 23.955282
65.345 24.343739
65.350 24.659643
65.355 25.242788
65.360 25.108801
65.365 24.736929
65.370 24.532604
65.375 24.13463
65.380 24.361372
65.385 24.741255
65.390 24.389994
65.395 24.136045
65.400 24.861332
65.405 25.668659
65.410 26.036148
65.415 26.382616
65.420 25.971415
65.425 26.498762
65.430 26.765207
65.435 25.869015
65.440 25.368563
65.445 25.003759
65.450 24.635052
65.455 25.199842
65.460 25.391621
65.465 25.008612
65.470 25.325018
65.475 25.349627
65.480 25.457769
65.485 25.12735
65.490 24.40287
65.495 24.611284
65.500 25.263309
65.505 25.287817
65.510 25.378695
65.515 25.30443
65.520 25.553003
65.525 26.464493
65.530 26.973942
65.535 27.521629
65.540 27.474031
65.545 27.721191
65.550 28.668789
65.555 28.992357
65.560 29.50897
65.565 29.27562
65.570 29.417
65.575 30.157345
65.580 30.885513
65.585 30.622503
65.590 30.178186
65.595 29.567186
65.600 29.237076
65.605 28.971458
65.610 28.477398
65.615 28.467506
65.620 28.744314
65.625 28.989849
65.630 29.528397
65.635 30.175493
65.640 30.686747
65.645 30.722559
65.650 29.765207
65.655 29.832844
65.660 30.277079
65.665 30.307474
65.670 30.23856
65.675 30.625963
65.680 31.154459
65.685 31.929491
65.690 32.163364
65.695 31.724056
65.700 31.67907
65.705 31.583973
65.710 31.622417
65.715 31.816341
65.720 32.538116
65.725 32.70116
65.730 33.324825
65.735 33.889324
65.740 34.299496
65.745 33.952427
65.750 34.227856
65.755 33.842529
65.760 33.933243
65.765 34.560501
65.770 34.872715
65.775 35.502384
65.780 36.15863
65.785 36.243252
65.790 36.050449
65.795 35.928768
65.800 34.822315
65.805 34.641518
65.810 35.043175
65.815 34.823486
65.820 34.394562
65.825 35.183548
65.830 35.105164
65.835 35.697227
65.840 35.570164
65.845 35.468925
65.850 35.915539
65.855 36.080524
65.860 36.648773
65.865 37.668053
65.870 38.182919
65.875 37.938625
65.880 38.043007
65.885 37.804688
65.890 38.441528
65.895 38.478062
65.900 38.16375
65.905 37.566891
65.910 37.582298
65.915 37.067776
65.920 37.227108
65.925 37.809666
65.930 37.194195
65.935 37.545479
65.940 37.809441
65.945 38.315975
65.950 38.465172
65.955 38.375134
65.960 37.845413
65.965 38.374886
65.970 38.66935
65.975 38.356037
65.980 38.218376
65.985 38.798859
65.990 38.699627
65.995 38.911034
66.000 38.807083
66.005 38.116657
66.010 37.970634
66.015 38.164955
66.020 38.285774
66.025 38.806431
66.030 38.462234
66.035 38.305344
66.040 38.625263
66.045 38.607338
66.050 37.673843
66.055 36.951675
66.060 37.182163
66.065 37.534634
66.070 37.448563
66.075 37.871349
66.080 38.356506
66.085 39.002769
66.090 39.408405
66.095 39.284649
66.100 38.678333
66.105 38.097919
66.110 38.19989
66.115 38.505306
66.120 39.525913
66.125 40.132179
66.130 39.93504
66.135 40.847984
66.140 41.611523
66.145 42.002941
66.150 41.758095
66.155 40.636524
66.160 39.872688
66.165 39.868713
66.170 39.332531
66.175 38.225975
66.180 37.493004
66.185 36.80529
66.190 36.646885
66.195 36.767529
66.200 36.497715
66.205 35.924053
66.210 36.42355
66.215 36.223423
66.220 35.916069
66.225 35.854141
66.230 35.847511
66.235 35.617413
66.240 35.255569
66.245 34.703903
66.250 34.495651
66.255 34.792324
66.260 33.963596
66.265 33.173466
66.270 33.282673
66.275 33.538792
66.280 33.904903
66.285 33.827148
66.290 33.865135
66.295 34.599442
66.300 35.541817
66.305 34.966389
66.310 34.013008
66.315 33.272099
66.320 32.978809
66.325 32.754364
66.330 32.167736
66.335 31.324074
66.340 31.847174
66.345 32.450108
66.350 32.479355
66.355 32.273136
66.360 32.02383
66.365 31.688183
66.370 31.199774
66.375 29.840908
66.380 29.059778
66.385 30.075396
66.390 30.496675
66.395 30.316492
66.400 30.376242
66.405 31.357023
66.410 32.581627
66.415 32.995621
66.420 32.063335
66.425 32.220844
66.430 32.353523
66.435 32.24585
66.440 31.462765
66.445 30.197218
66.450 29.207321
66.455 28.770952
66.460 28.229801
66.465 27.760864
66.470 27.588844
66.475 27.918375
66.480 28.37501
66.485 28.274683
66.490 28.218102
66.495 28.134708
66.500 28.142155
66.505 27.756514
66.510 27.535166
66.515 27.406137
66.520 27.734556
66.525 27.251177
66.530 26.6607
66.535 26.650469
66.540 26.45829
66.545 25.854591
66.550 26.126432
66.555 25.788727
66.560 25.995749
66.565 27.164728
66.570 27.327194
66.575 27.116459
66.580 26.573885
66.585 26.461897
66.590 27.014967
66.595 26.542673
66.600 25.478596
66.605 25.17296
66.610 25.017078
66.615 25.625732
66.620 25.208136
66.625 25.937435
66.630 25.759087
66.635 25.690321
66.640 26.257696
66.645 26.799967
66.650 26.354422
66.655 26.086773
66.660 24.579241
66.665 24.222076
66.670 24.548319
66.675 24.42663
66.680 24.056391
66.685 24.130659
66.690 24.111876
66.695 24.464643
66.700 24.834476
66.705 24.525646
66.710 23.952106
66.715 23.976904
66.720 24.033398
66.725 24.333185
66.730 24.857914
66.735 24.63192
66.740 24.594919
66.745 24.884436
66.750 25.046467
66.755 24.701721
66.760 24.565784
66.765 24.091818
66.770 23.642076
66.775 22.598396
66.780 22.608526
66.785 22.189615
66.790 22.509197
66.795 22.201689
66.800 22.168554
66.805 22.767244
66.810 23.10708
66.815 22.735659
66.820 22.936939
66.825 23.184212
66.830 22.863354
66.835 22.944513
66.840 22.867599
66.845 22.607761
66.850 21.937918
66.855 20.864256
66.860 20.019249
66.865 19.929264
66.870 19.24334
66.875 19.175022
66.880 18.881891
66.885 19.448706
66.890 19.914341
66.895 19.865015
66.900 19.766382
66.905 20.514843
66.910 21.21525
66.915 21.491194
66.920 21.186764
66.925 21.097019
66.930 21.660265
66.935 22.723372
66.940 22.465321
66.945 22.418413
66.950 22.5567
66.955 22.862577
66.960 22.541679
66.965 21.715687
66.970 21.0683
66.975 20.769901
66.980 20.195049
66.985 19.992918
66.990 20.09491
66.995 20.772554
67.000 20.805162
67.005 20.141644
67.010 20.657732
67.015 20.648743
67.020 20.197775
67.025 20.302881
67.030 20.257599
67.035 20.817009
67.040 21.81702
67.045 21.759644
67.050 22.130304
67.055 22.196007
67.060 22.314676
67.065 22.455421
67.070 21.999485
67.075 21.520241
67.080 20.593363
67.085 20.168406
67.090 20.071989
67.095 19.610073
67.100 19.583199
67.105 19.519697
67.110 19.99629
67.115 20.607075
67.120 21.116295
67.125 21.715979
67.130 21.472006
67.135 21.751059
67.140 21.681938
67.145 20.739855
67.150 20.730154
67.155 20.500002
67.160 20.500761
67.165 20.608557
67.170 20.675383
67.175 21.00239
67.180 21.824722
67.185 21.994997
67.190 21.847326
67.195 21.788977
67.200 21.424486
67.205 20.85504
67.210 20.67909
67.215 20.338379
67.220 20.691668
67.225 21.316696
67.230 21.703762
67.235 21.494524
67.240 21.946688
67.245 22.111633
67.250 22.253548
67.255 21.940441
67.260 21.117765
67.265 20.75378
67.270 21.194475
67.275 20.752708
67.280 20.000858
67.285 19.845982
67.290 19.658358
67.295 20.500704
67.300 21.50955
67.305 21.314793
67.310 21.572525
67.315 21.899755
67.320 22.030691
67.325 22.191107
67.330 21.605072
67.335 21.103451
67.340 21.356142
67.345 21.376831
67.350 20.736389
67.355 20.275705
67.360 19.653126
67.365 19.562532
67.370 19.285191
67.375 19.2346
67.380 20.098898
67.385 21.120304
67.390 21.224428
67.395 21.548788
67.400 21.95532
67.405 22.075142
67.410 21.732615
67.415 21.408297
67.420 21.393311
67.425 21.227297
67.430 20.648476
67.435 20.003891
67.440 19.519722
67.445 19.792532
67.450 19.58803
67.455 19.140175
67.460 19.538498
67.465 19.958366
67.470 19.717381
67.475 19.920839
67.480 19.806402
67.485 19.640009
67.490 19.827316
67.495 19.60062
67.500 20.046432
67.505 20.374174
67.510 20.515186
67.515 20.723888
67.520 20.732012
67.525 20.927319
67.530 21.105722
67.535 20.980364
67.540 21.507154
67.545 21.319521
67.550 21.208088
67.555 21.846067
67.560 21.486141
67.565 20.973511
67.570 20.674883
67.575 20.417316
67.580 20.141907
67.585 20.072447
67.590 19.54368
67.595 19.326757
67.600 19.911278
67.605 20.211403
67.610 20.471832
67.615 20.611578
67.620 20.930151
67.625 20.994085
67.630 20.894295
67.635 20.896811
67.640 21.084543
67.645 20.891415
67.650 20.543802
67.655 19.691353
67.660 19.861942
67.665 20.122942
67.670 20.040258
67.675 19.358799
67.680 19.686146
67.685 20.071882
67.690 19.731571
67.695 19.786648
67.700 20.063644
67.705 20.06144
67.710 20.107224
67.715 19.971121
67.720 20.155603
67.725 20.818159
67.730 21.042946
67.735 20.425083
67.740 19.543041
67.745 19.696041
67.750 19.76112
67.755 19.254976
67.760 19.156023
67.765 19.003426
67.770 19.098333
67.775 19.701777
67.780 19.684038
67.785 19.15461
67.790 19.308737
67.795 18.860353
67.800 18.773983
67.805 19.297579
67.810 19.876001
67.815 20.305779
67.820 20.916903
67.825 21.041603
67.830 20.944263
67.835 20.940079
67.840 20.711935
67.845 19.696218
67.850 19.220112
67.855 19.231722
67.860 19.170895
67.865 19.058575
67.870 19.207808
67.875 19.155088
67.880 19.662233
67.885 19.883709
67.890 19.77429
67.895 20.195513
67.900 20.834923
67.905 20.765125
67.910 20.478348
67.915 20.400814
67.920 20.411406
67.925 20.009752
67.930 19.547554
67.935 18.741518
67.940 19.032454
67.945 19.672832
67.950 19.813101
67.955 20.001614
67.960 19.76774
67.965 19.779722
67.970 19.977465
67.975 19.990454
67.980 19.922359
67.985 19.608011
67.990 19.392832
67.995 20.268707
68.000 20.238167
68.005 20.190842
68.010 19.596811
68.015 19.082058
68.020 19.08573
68.025 18.969061
68.030 18.329836
68.035 18.265844
68.040 18.718113
68.045 18.988691
68.050 19.219868
68.055 19.216385
68.060 19.78669
68.065 20.176817
68.070 20.429852
68.075 20.805807
68.080 21.580526
68.085 21.56744
68.090 21.169672
68.095 20.940666
68.100 20.773411
68.105 20.557806
68.110 20.12364
68.115 20.028572
68.120 19.894739
68.125 19.937223
68.130 19.832067
68.135 19.507452
68.140 19.551996
68.145 18.960247
68.150 18.733728
68.155 18.868238
68.160 18.808409
68.165 18.986032
68.170 19.069305
68.175 18.84223
68.180 19.188339
68.185 19.410746
68.190 19.995604
68.195 20.042183
68.200 19.788074
68.205 20.393286
68.210 20.6411
68.215 20.125418
68.220 19.530588
68.225 19.217524
68.230 19.483318
68.235 19.495178
68.240 19.257395
68.245 19.246553
68.250 19.325954
68.255 19.289907
68.260 19.392933
68.265 19.807095
68.270 19.729591
68.275 19.293217
68.280 19.22983
68.285 19.333685
68.290 19.546188
68.295 19.408262
68.300 19.223074
68.305 19.554508
68.310 20.20319
68.315 20.271027
68.320 20.296822
68.325 20.253384
68.330 19.912981
68.335 19.698402
68.340 19.805798
68.345 19.698328
68.350 20.011086
68.355 19.964132
68.360 19.979715
68.365 20.584604
68.370 20.124521
68.375 19.348211
68.380 19.183344
68.385 19.095901
68.390 19.245378
68.395 19.812679
68.400 19.37178
68.405 19.786774
68.410 20.195816
68.415 20.520905
68.420 20.22118
68.425 19.927847
68.430 19.163008
68.435 19.181725
68.440 19.35401
68.445 18.854431
68.450 18.815174
68.455 19.322542
68.460 19.801811
68.465 19.973335
68.470 19.952414
68.475 20.088688
68.480 20.880821
68.485 21.286398
68.490 21.079056
68.495 21.313292
68.500 21.275904
68.505 21.263103
68.510 20.659603
68.515 20.12126
68.520 19.472834
68.525 19.342585
68.530 19.146732
68.535 19.371248
68.540 19.83046
68.545 20.170841
68.550 20.754694
68.555 21.225901
68.560 21.577206
68.565 21.452307
68.570 21.530996
68.575 21.081072
68.580 21.460636
68.585 20.76833
68.590 20.052235
68.595 19.629217
68.600 20.012827
68.605 20.191822
68.610 20.215628
68.615 19.981979
68.620 20.368547
68.625 20.570595
68.630 20.537445
68.635 19.9839
68.640 20.120472
68.645 20.806446
68.650 20.805904
68.655 20.751526
68.660 20.938696
68.665 20.86167
68.670 21.04817
68.675 21.171684
68.680 21.275257
68.685 21.735373
68.690 22.197121
68.695 22.610716
68.700 23.624119
68.705 23.679342
68.710 23.280098
68.715 22.657684
68.720 21.948565
68.725 21.503687
68.730 21.009007
68.735 19.91398
68.740 19.634508
68.745 19.838177
68.750 20.333044
68.755 20.907053
68.760 20.916805
68.765 20.880024
68.770 21.274525
68.775 21.239056
68.780 20.759825
68.785 20.41259
68.790 19.946205
68.795 19.792431
68.800 20.10467
68.805 20.349092
68.810 20.447966
68.815 20.824148
68.820 21.306652
68.825 21.753481
68.830 22.06274
68.835 21.875492
68.840 21.88077
68.845 21.879393
68.850 21.625019
68.855 21.258022
68.860 20.998116
68.865 21.150496
68.870 22.064062
68.875 21.436043
68.880 21.334846
68.885 21.509098
68.890 21.618763
68.895 22.268417
68.900 22.890549
68.905 22.71314
68.910 22.793909
68.915 22.551098
68.920 22.723808
68.925 22.764671
68.930 22.233816
68.935 21.883068
68.940 22.282158
68.945 22.3514
68.950 23.179615
68.955 23.513882
68.960 23.797312
68.965 23.900623
68.970 23.580339
68.975 23.825745
68.980 24.27874
68.985 24.178726
68.990 24.052586
68.995 23.581539
69.000 23.596191
69.005 23.593277
69.010 23.193644
69.015 23.042238
69.020 22.488834
69.025 22.557365
69.030 22.954039
69.035 22.884661
69.040 22.613836
69.045 23.189589
69.050 23.916698
69.055 24.593294
69.060 24.194996
69.065 23.90436
69.070 24.483463
69.075 24.833899
69.080 24.353609
69.085 24.310133
69.090 24.162033
69.095 24.290298
69.100 24.087147
69.105 23.645313
69.110 23.729218
69.115 23.766775
69.120 23.184584
69.125 22.482414
69.130 22.985909
69.135 23.678741
69.140 24.141209
69.145 24.393417
69.150 24.301331
69.155 25.014544
69.160 25.700611
69.165 25.346514
69.170 24.900608
69.175 24.813375
69.180 24.635227
69.185 24.790716
69.190 24.643188
69.195 24.152287
69.200 24.302448
69.205 24.358841
69.210 24.624529
69.215 24.834175
69.220 24.202141
69.225 24.606451
69.230 24.869919
69.235 25.366238
69.240 26.394075
69.245 26.753906
69.250 27.083115
69.255 27.63195
69.260 27.621387
69.265 27.714088
69.270 27.774445
69.275 27.684475
69.280 27.79916
69.285 27.940172
69.290 28.210466
69.295 28.177378
69.300 28.559307
69.305 28.156796
69.310 28.191004
69.315 28.214296
69.320 27.827929
69.325 27.804565
69.330 27.756716
69.335 27.669174
69.340 28.501905
69.345 28.69511
69.350 29.084265
69.355 29.225149
69.360 30.025589
69.365 30.540184
69.370 30.118271
69.375 29.618938
69.380 29.104568
69.385 29.572456
69.390 30.189314
69.395 29.91243
69.400 29.242563
69.405 29.500975
69.410 29.543379
69.415 30.007206
69.420 29.458363
69.425 28.99646
69.430 29.660078
69.435 29.945326
69.440 30.0198
69.445 29.936916
69.450 30.078735
69.455 30.460197
69.460 30.595528
69.465 30.250425
69.470 30.650854
69.475 30.640137
69.480 30.939312
69.485 30.895065
69.490 30.62195
69.495 30.559793
69.500 30.936171
69.505 31.18461
69.510 31.707758
69.515 31.413588
69.520 31.533863
69.525 31.203756
69.530 31.098284
69.535 30.932058
69.540 30.464745
69.545 29.774775
69.550 29.952614
69.555 29.109875
69.560 28.857748
69.565 28.695717
69.570 28.449152
69.575 28.915106
69.580 29.149105
69.585 29.380545
69.590 30.465305
69.595 30.961359
69.600 30.950386
69.605 30.815195
69.610 30.627773
69.615 29.887093
69.620 29.613066
69.625 29.828232
69.630 29.893831
69.635 29.756124
69.640 29.284351
69.645 29.312019
69.650 29.663189
69.655 28.643343
69.660 28.043447
69.665 27.862692
69.670 27.490934
69.675 27.562937
69.680 27.556671
69.685 28.263969
69.690 28.644846
69.695 29.041914
69.700 29.337715
69.705 30.036949
69.710 29.854134
69.715 29.219122
69.720 28.486736
69.725 28.112436
69.730 27.836752
69.735 28.176212
69.740 28.295341
69.745 28.744659
69.750 28.456007
69.755 28.234385
69.760 28.131783
69.765 27.381882
69.770 27.406742
69.775 27.250378
69.780 27.072941
69.785 26.961981
69.790 27.020702
69.795 27.111887
69.800 27.0683
69.805 26.814991
69.810 26.663551
69.815 27.133602
69.820 27.791544
69.825 27.546703
69.830 26.722141
69.835 26.558857
69.840 26.525053
69.845 26.047514
69.850 26.132666
69.855 26.506674
69.860 26.75526
69.865 27.218599
69.870 27.070599
69.875 26.974705
69.880 26.982449
69.885 25.816736
69.890 25.145733
69.895 25.711777
69.900 25.725418
69.905 25.375515
69.910 24.572205
69.915 24.277773
69.920 24.485704
69.925 24.342741
69.930 23.695272
69.935 23.250917
69.940 23.110052
69.945 23.271111
69.950 22.895807
69.955 23.027399
69.960 22.807528
69.965 22.076408
69.970 22.1287
69.975 21.559893
69.980 21.367777
69.985 20.88212
69.990 20.311476
69.995 20.233824
70.000 20.649616
70.005 20.388355
70.010 20.554161
70.015 20.981197
70.020 21.26218
70.025 22.006609
70.030 22.180748
70.035 21.532459
70.040 21.390169
70.045 21.289976
70.050 20.741268
70.055 20.372639
70.060 20.036062
70.065 20.614447
70.070 21.000734
70.075 21.406912
70.080 22.137211
70.085 23.222843
70.090 23.459314
70.095 23.38909
70.100 23.252823
70.105 23.025297
70.110 22.810772
70.115 21.997622
70.120 21.34955
70.125 21.200201
70.130 20.725241
70.135 20.767927
70.140 20.815208
70.145 20.626022
70.150 20.770844
70.155 20.511564
70.160 20.222885
70.165 20.057116
70.170 19.475391
70.175 19.180891
70.180 18.76012
70.185 18.326607
70.190 18.876726
70.195 19.51774
70.200 19.803549
70.205 20.275787
70.210 20.114681
70.215 20.502026
70.220 20.664063
70.225 20.030743
70.230 19.737549
70.235 20.054312
70.240 19.934542
70.245 20.432148
70.250 21.171312
70.255 21.5912
70.260 21.905508
70.265 21.436762
70.270 21.165184
70.275 21.235466
70.280 20.778906
70.285 20.391367
70.290 20.15069
70.295 20.214409
70.300 20.374651
70.305 19.819954
70.310 19.606592
70.315 19.670132
70.320 19.981594
70.325 20.07427
70.330 19.972101
70.335 20.189486
70.340 20.599821
70.345 21.073345
70.350 20.676199
70.355 19.889008
70.360 20.532272
70.365 20.482077
70.370 20.726999
70.375 20.83272
70.380 20.352156
70.385 20.565569
70.390 20.87285
70.395 20.661757
70.400 20.636396
70.405 20.229853
70.410 19.420437
70.415 19.247574
70.420 18.833288
70.425 18.745878
70.430 18.690834
70.435 18.581308
70.440 18.402596
70.445 19.061443
70.450 19.162132
70.455 18.88195
70.460 18.465717
70.465 17.872417
70.470 17.790169
70.475 18.565269
70.480 18.874582
70.485 19.480671
70.490 20.634348
70.495 21.138588
70.500 21.871162
70.505 21.894745
70.510 21.143507
70.515 20.575567
70.520 20.209238
70.525 19.518307
70.530 19.342869
70.535 19.103594
70.540 19.252382
70.545 19.95756
70.550 19.830534
70.555 20.095579
70.560 20.738102
70.565 20.806463
70.570 21.475054
70.575 21.224121
70.580 21.466715
70.585 21.716009
70.590 21.566277
70.595 21.443911
70.600 21.246172
70.605 20.572081
70.610 20.707823
70.615 19.883823
70.620 19.596855
70.625 19.161577
70.630 19.35273
70.635 20.010204
70.640 19.904564
70.645 19.862974
70.650 20.830559
70.655 21.231138
70.660 21.241402
70.665 20.423355
70.670 19.554585
70.675 19.212719
70.680 18.183018
70.685 17.425978
70.690 17.066515
70.695 16.999746
70.700 17.976841
70.705 18.148088
70.710 18.554707
70.715 18.907373
70.720 19.089832
70.725 19.043938
70.730 18.911398
70.735 18.021145
70.740 17.697554
70.745 17.622917
70.750 18.228313
70.755 18.763893
70.760 18.899706
70.765 18.644802
70.770 19.016947
70.775 19.638329
70.780 19.747494
70.785 19.673735
70.790 19.119713
70.795 18.982262
70.800 19.028433
70.805 18.534859
70.810 17.993132
70.815 17.769178
70.820 17.377895
70.825 17.144188
70.830 16.720388
70.835 16.621096
70.840 17.255348
70.845 17.422644
70.850 17.936214
70.855 17.983164
70.860 18.135752
70.865 18.665901
70.870 18.436102
70.875 18.632607
70.880 18.395885
70.885 17.781364
70.890 17.960455
70.895 17.918596
70.900 17.943216
70.905 18.013487
70.910 18.515421
70.915 18.725132
70.920 18.837252
70.925 19.499498
70.930 19.708126
70.935 20.148794
70.940 20.667009
70.945 20.055157
70.950 20.025393
70.955 19.857285
70.960 19.241348
70.965 18.946991
70.970 18.115646
70.975 17.578289
70.980 17.364439
70.985 17.442234
70.990 17.598658
70.995 18.196291
71.000 18.459114
71.005 18.812422
71.010 19.332977
71.015 19.950119
71.020 20.14168
71.025 19.670769
71.030 18.834757
71.035 18.821161
71.040 19.200912
71.045 18.45281
71.050 18.083162
71.055 17.831137
71.060 17.56271
71.065 17.202717
71.070 16.624208
71.075 16.162682
71.080 16.351692
71.085 16.613987
71.090 17.021296
71.095 18.070969
71.100 19.167303
71.105 19.225199
71.110 19.252937
71.115 19.095621
71.120 18.912138
71.125 18.13751
71.130 17.742861
71.135 17.383291
71.140 17.449085
71.145 18.124559
71.150 18.870737
71.155 18.839832
71.160 18.877731
71.165 18.642265
71.170 19.058521
71.175 19.391916
71.180 18.53117
71.185 17.493656
71.190 17.029781
71.195 16.797741
71.200 16.833048
71.205 16.789961
71.210 16.734543
71.215 17.446829
71.220 17.817837
71.225 18.134201
71.230 18.349976
71.235 18.463331
71.240 19.072567
71.245 18.661091
71.250 19.077339
71.255 19.417171
71.260 19.975786
71.265 20.151175
71.270 19.974951
71.275 19.84248
71.280 19.743196
71.285 19.360273
71.290 18.783552
71.295 18.302177
71.300 18.156534
71.305 17.675369
71.310 17.208715
71.315 17.008413
71.320 16.946648
71.325 17.32678
71.330 17.282759
71.335 17.031652
71.340 17.715342
71.345 18.589733
71.350 18.928127
71.355 18.786804
71.360 18.288216
71.365 18.750774
71.370 18.844717
71.375 18.331181
71.380 18.103376
71.385 17.926025
71.390 18.516417
71.395 19.586252
71.400 19.530411
71.405 19.840864
71.410 20.222979
71.415 20.020306
71.420 20.043154
71.425 19.764397
71.430 19.460293
71.435 19.243107
71.440 18.898821
71.445 18.785101
71.450 19.078337
71.455 19.537672
71.460 19.700844
71.465 19.546133
71.470 19.437889
71.475 19.314589
71.480 19.1115
71.485 18.817602
71.490 18.359461
71.495 18.26903
71.500 18.291828
71.505 17.921255
71.510 17.259571
71.515 17.159338
71.520 17.515926
71.525 17.285542
71.530 17.253929
71.535 17.151421
71.540 17.181238
71.545 17.237282
71.550 17.410765
71.555 17.462137
71.560 17.597464
71.565 17.66081
71.570 17.974974
71.575 18.594463
71.580 18.501265
71.585 17.94945
71.590 17.4018
71.595 16.912752
71.600 16.182796
71.605 15.704362
71.610 15.737007
71.615 15.369421
71.620 15.249097
71.625 15.716614
71.630 16.423914
71.635 17.17989
71.640 17.183626
71.645 16.819502
71.650 17.06039
71.655 16.890007
71.660 16.188133
71.665 15.845396
71.670 15.995327
71.675 16.040716
71.680 16.693056
71.685 17.761765
71.690 18.503372
71.695 19.004875
71.700 19.187387
71.705 19.482033
71.710 19.651251
71.715 19.388359
71.720 19.045923
71.725 19.101259
71.730 19.168621
71.735 19.263571
71.740 18.995541
71.745 18.892099
71.750 18.462341
71.755 18.11861
71.760 18.116646
71.765 17.899387
71.770 17.63608
71.775 17.661165
71.780 18.332096
71.785 18.600363
71.790 18.196712
71.795 18.122385
71.800 18.214886
71.805 18.407736
71.810 18.742256
71.815 18.470083
71.820 19.120737
71.825 19.321154
71.830 19.312525
71.835 19.171486
71.840 19.77037
71.845 19.858683
71.850 19.71376
71.855 19.591362
71.860 19.877914
71.865 19.89851
71.870 19.869886
71.875 19.340239
71.880 18.618196
71.885 18.486216
71.890 18.588186
71.895 18.399242
71.900 18.546036
71.905 18.587387
71.910 19.249804
71.915 19.035828
71.920 18.730553
71.925 18.696459
71.930 19.194059
71.935 19.180216
71.940 18.843554
71.945 18.286064
71.950 18.587778
71.955 18.313246
71.960 17.737398
71.965 17.225052
71.970 17.301924
71.975 17.292866
71.980 17.965492
71.985 18.398823
71.990 18.65403
71.995 18.860029
72.000 18.739183
72.005 19.042229
72.010 18.706831
72.015 17.643942
72.020 17.367899
72.025 17.474607
72.030 17.830868
72.035 18.140812
72.040 18.093464
72.045 18.817913
72.050 19.206238
72.055 19.344072
72.060 19.093603
72.065 18.498114
72.070 17.767614
72.075 17.480902
72.080 17.383595
72.085 17.166061
72.090 16.931942
72.095 17.197855
72.100 17.580969
72.105 17.912502
72.110 17.973158
72.115 17.867521
72.120 18.790476
72.125 19.354208
72.130 20.126299
72.135 20.524195
72.140 20.531038
72.145 20.906622
72.150 21.658064
72.155 21.873615
72.160 21.56155
72.165 20.595501
72.170 20.566814
72.175 20.119398
72.180 20.057358
72.185 19.323488
72.190 19.143326
72.195 19.098103
72.200 19.073898
72.205 18.740654
72.210 18.916
72.215 18.206352
72.220 17.780039
72.225 17.101875
72.230 17.12355
72.235 17.334923
72.240 17.196758
72.245 17.154484
72.250 17.388233
72.255 17.086233
72.260 17.000048
72.265 16.704519
72.270 16.652718
72.275 17.151989
72.280 17.415501
72.285 17.377871
72.290 17.933903
72.295 17.937094
72.300 17.976936
72.305 18.216774
72.310 18.227015
72.315 18.633215
72.320 18.922091
72.325 19.17429
72.330 19.627495
72.335 20.342104
72.340 19.966963
72.345 19.288836
72.350 18.844765
72.355 18.834127
72.360 18.644333
72.365 18.047192
72.370 18.008329
72.375 18.332682
72.380 18.357651
72.385 17.65271
72.390 17.284746
72.395 17.51586
72.400 17.170555
72.405 16.378151
72.410 16.580698
72.415 17.021378
72.420 17.950424
72.425 18.369375
72.430 18.32378
72.435 18.690981
72.440 19.140913
72.445 19.189091
72.450 18.758728
72.455 18.598827
72.460 18.603037
72.465 18.430874
72.470 18.270966
72.475 17.88871
72.480 18.300873
72.485 18.590153
72.490 18.126869
72.495 17.39744
72.500 17.040249
72.505 17.210964
72.510 16.919559
72.515 16.40432
72.520 16.712999
72.525 16.74729
72.530 17.107008
72.535 17.525391
72.540 17.131519
72.545 17.230896
72.550 17.234335
72.555 17.2404
72.560 17.697487
72.565 17.978397
72.570 17.703272
72.575 17.547495
72.580 17.58337
72.585 17.799162
72.590 16.981226
72.595 16.753693
72.600 16.783344
72.605 17.248135
72.610 17.227262
72.615 16.867754
72.620 16.641195
72.625 17.207569
72.630 16.912945
72.635 16.535055
72.640 16.623394
72.645 16.713915
72.650 16.737514
72.655 16.981419
72.660 17.78817
72.665 18.402897
72.670 18.451563
72.675 17.620316
72.680 17.581959
72.685 18.165501
72.690 17.505207
72.695 16.857723
72.700 16.613907
72.705 16.846966
72.710 17.403496
72.715 17.671072
72.720 17.80456
72.725 18.179976
72.730 18.570005
72.735 18.670198
72.740 18.865053
72.745 18.23802
72.750 17.622559
72.755 17.185295
72.760 16.580238
72.765 15.944392
72.770 15.460066
72.775 15.325868
72.780 16.006441
72.785 16.081717
72.790 16.338652
72.795 17.00527
72.800 17.531038
72.805 17.99172
72.810 17.863764
72.815 17.344946
72.820 17.325962
72.825 17.475044
72.830 17.380959
72.835 17.166971
72.840 17.393318
72.845 18.120035
72.850 18.082159
72.855 17.681744
72.860 16.516392
72.865 16.449951
72.870 16.343817
72.875 15.837461
72.880 15.718722
72.885 15.81894
72.890 16.330423
72.895 17.248453
72.900 17.896181
72.905 18.466156
72.910 18.459963
72.915 18.045027
72.920 17.910326
72.925 17.721636
72.930 16.631563
72.935 16.424112
72.940 16.004223
72.945 16.061964
72.950 16.121353
72.955 15.700831
72.960 16.102858
72.965 16.585487
72.970 16.531963
72.975 17.282558
72.980 17.605618
72.985 18.309229
72.990 18.989515
72.995 18.282431
73.000 18.148371
