!@!!GADDS PLOTSO FILE: Chi integration type
!@!!Title/SampleName: map-ae
!@!!Comment: ?
!@!!User: Bruker Instrument Administrator
!@!!Site: University of Illinois Chicago
!@!!Frame: map-ae_01_000.gfrm
!@!!Wavelengths    1.54184   1.54056   1.54439
!@!!Frame angles: 2Theta: 63.000 Omega: 50.000 Phi: 0.000 Chi: 90.000
!@!!Integration range: 2Theta: 53.000 to 73.000  Gamma: -105.000 to -75.000
!@!!Integration method: bin normalized
!@!N
!@!SS
!@!M
!@!L 0.0 0.0 0.0 0.0
!@!XDegrees
!@!YCounts
53.000 7.879485
53.005 8.30395
53.010 8.028057
53.015 7.014458
53.020 6.483405
53.025 6.194923
53.030 5.902856
53.035 5.958973
53.040 5.67974
53.045 6.055281
53.050 6.639822
53.055 6.813494
53.060 6.966025
53.065 7.107053
53.070 6.889662
53.075 6.900986
53.080 7.141803
53.085 6.789166
53.090 6.632452
53.095 6.737439
53.100 6.825395
53.105 7.273108
53.110 6.987243
53.115 6.744304
53.120 7.003672
53.125 7.042129
53.130 7.048606
53.135 7.247724
53.140 7.543474
53.145 8.191951
53.150 8.287148
53.155 8.89456
53.160 8.895002
53.165 8.675252
53.170 8.346172
53.175 7.968738
53.180 7.896124
53.185 7.303409
53.190 6.631679
53.195 6.628497
53.200 6.657525
53.205 6.954225
53.210 6.798427
53.215 6.233621
53.220 6.640279
53.225 7.145411
53.230 7.355277
53.235 7.350945
53.240 7.430133
53.245 7.724027
53.250 8.55312
53.255 9.025579
53.260 8.924642
53.265 9.137228
53.270 9.277113
53.275 9.153003
53.280 9.055012
53.285 8.65795
53.290 8.201203
53.295 8.23334
53.300 8.215259
53.305 7.97328
53.310 7.819005
53.315 7.938346
53.320 7.885018
53.325 8.202274
53.330 8.231815
53.335 8.225234
53.340 8.49956
53.345 8.688483
53.350 8.781834
53.355 8.96345
53.360 8.439184
53.365 8.657288
53.370 8.38302
53.375 7.958696
53.380 7.679205
53.385 7.478249
53.390 7.472535
53.395 7.42683
53.400 7.203853
53.405 7.351694
53.410 7.371876
53.415 7.183316
53.420 7.139835
53.425 7.208891
53.430 7.347027
53.435 7.782076
53.440 7.655271
53.445 7.877541
53.450 8.148565
53.455 8.299332
53.460 8.362568
53.465 8.512364
53.470 8.328673
53.475 8.796947
53.480 8.833709
53.485 8.539267
53.490 8.661176
53.495 8.630272
53.500 8.508594
53.505 8.585032
53.510 8.454518
53.515 8.601683
53.520 8.685806
53.525 8.424726
53.530 8.515487
53.535 8.238165
53.540 7.843381
53.545 7.692436
53.550 7.683004
53.555 7.572068
53.560 7.338923
53.565 6.935557
53.570 7.546307
53.575 7.934865
53.580 8.080998
53.585 8.320492
53.590 8.692511
53.595 9.039284
53.600 9.267223
53.605 9.092399
53.610 8.893533
53.615 8.69889
53.620 8.689198
53.625 9.215715
53.630 9.470718
53.635 9.643726
53.640 9.893686
53.645 9.825463
53.650 9.833982
53.655 9.944501
53.660 9.13288
53.665 8.612414
53.670 7.928267
53.675 7.900594
53.680 7.79173
53.685 7.390031
53.690 6.866246
53.695 7.046366
53.700 7.207417
53.705 7.18983
53.710 7.053402
53.715 7.370405
53.720 7.412329
53.725 7.264195
53.730 7.325473
53.735 7.492421
53.740 8.000372
53.745 8.003483
53.750 8.255749
53.755 8.787695
53.760 9.08008
53.765 9.221092
53.770 9.069399
53.775 8.597524
53.780 8.368053
53.785 7.954669
53.790 7.730269
53.795 7.991644
53.800 8.192004
53.805 8.265751
53.810 8.474873
53.815 8.808288
53.820 9.170819
53.825 9.785323
53.830 10.016109
53.835 9.8778
53.840 9.845183
53.845 9.833372
53.850 10.074722
53.855 9.892752
53.860 9.210267
53.865 8.706301
53.870 9.084592
53.875 9.70232
53.880 10.035938
53.885 10.127562
53.890 10.568639
53.895 11.053898
53.900 10.811073
53.905 10.534681
53.910 10.445725
53.915 10.054092
53.920 9.415698
53.925 8.470417
53.930 8.477778
53.935 8.739861
53.940 8.814668
53.945 8.74315
53.950 8.656233
53.955 9.233982
53.960 9.699706
53.965 9.812968
53.970 9.830111
53.975 9.47876
53.980 9.658327
53.985 9.690331
53.990 9.494727
53.995 9.303894
54.000 9.133584
54.005 8.940217
54.010 9.074172
54.015 8.913415
54.020 9.08132
54.025 9.097247
54.030 9.026472
54.035 8.939362
54.040 9.188295
54.045 8.938284
54.050 9.183424
54.055 9.343389
54.060 9.466184
54.065 9.044553
54.070 9.320135
54.075 9.493709
54.080 9.744522
54.085 9.480274
54.090 9.161463
54.095 9.552031
54.100 10.16496
54.105 10.493717
54.110 9.933102
54.115 9.333984
54.120 9.211665
54.125 9.199109
54.130 8.694486
54.135 8.203852
54.140 8.059415
54.145 8.210097
54.150 8.650245
54.155 8.916185
54.160 8.883911
54.165 9.220531
54.170 9.34762
54.175 9.382216
54.180 9.9007
54.185 9.861519
54.190 9.970864
54.195 10.214576
54.200 10.626637
54.205 10.618301
54.210 10.63214
54.215 9.995339
54.220 9.665747
54.225 9.75231
54.230 9.877156
54.235 9.261239
54.240 8.954984
54.245 9.546317
54.250 10.032254
54.255 9.92267
54.260 9.657953
54.265 9.340178
54.270 9.777818
54.275 9.774295
54.280 10.05066
54.285 9.953093
54.290 10.30395
54.295 10.358961
54.300 10.305215
54.305 10.494622
54.310 10.134336
54.315 9.98997
54.320 10.685063
54.325 10.415222
54.330 10.593864
54.335 10.8338
54.340 10.712441
54.345 10.054331
54.350 9.79846
54.355 9.498705
54.360 9.824028
54.365 10.112258
54.370 9.908724
54.375 10.141616
54.380 10.377831
54.385 10.107038
54.390 10.142644
54.395 10.010045
54.400 9.498122
54.405 9.403425
54.410 9.496404
54.415 9.867496
54.420 9.893783
54.425 9.938837
54.430 9.714361
54.435 9.489472
54.440 9.651476
54.445 9.990355
54.450 9.830968
54.455 9.523991
54.460 9.546972
54.465 9.67299
54.470 9.965692
54.475 9.773411
54.480 9.633269
54.485 9.830437
54.490 10.040757
54.495 10.189656
54.500 10.191479
54.505 10.238354
54.510 10.390832
54.515 10.796501
54.520 10.706612
54.525 10.788071
54.530 10.796907
54.535 10.922773
54.540 10.79515
54.545 10.263642
54.550 10.014006
54.555 10.240812
54.560 10.338349
54.565 9.969706
54.570 10.121334
54.575 10.011112
54.580 10.137856
54.585 10.072044
54.590 9.378876
54.595 8.893134
54.600 8.905611
54.605 8.815063
54.610 8.856968
54.615 8.998858
54.620 8.945502
54.625 9.187816
54.630 9.466104
54.635 9.5686
54.640 9.609316
54.645 9.471243
54.650 9.498136
54.655 10.010402
54.660 10.029987
54.665 10.287501
54.670 10.431072
54.675 10.329185
54.680 10.579039
54.685 10.514583
54.690 10.677978
54.695 10.793507
54.700 10.157779
54.705 10.165528
54.710 10.357782
54.715 10.376927
54.720 10.020347
54.725 9.645222
54.730 10.126999
54.735 10.566831
54.740 10.588528
54.745 10.539919
54.750 10.417552
54.755 10.21533
54.760 10.100324
54.765 9.738514
54.770 9.596175
54.775 9.335507
54.780 8.785705
54.785 8.990711
54.790 9.189897
54.795 9.422761
54.800 9.309234
54.805 9.750022
54.810 10.099976
54.815 10.553987
54.820 10.43256
54.825 10.546616
54.830 10.740336
54.835 11.18051
54.840 10.802952
54.845 10.78746
54.850 10.919076
54.855 10.915292
54.860 10.798365
54.865 10.341802
54.870 9.966998
54.875 10.127391
54.880 10.031885
54.885 10.074771
54.890 10.076237
54.895 9.918508
54.900 10.32093
54.905 10.404516
54.910 10.133421
54.915 9.863799
54.920 10.096435
54.925 10.295242
54.930 10.886719
54.935 10.790462
54.940 10.827016
54.945 11.250935
54.950 11.396317
54.955 10.802238
54.960 10.724294
54.965 10.303516
54.970 10.368505
54.975 10.477074
54.980 10.254801
54.985 10.484589
54.990 10.775819
54.995 11.077232
55.000 11.44283
55.005 11.810547
55.010 11.75264
55.015 11.587108
55.020 11.209377
55.025 11.002314
55.030 10.287717
55.035 10.115298
55.040 9.706321
55.045 9.908021
55.050 10.101948
55.055 10.616871
55.060 11.187
55.065 11.987194
55.070 11.930292
55.075 12.122195
55.080 11.949043
55.085 12.059487
55.090 11.942303
55.095 11.257651
55.100 10.933464
55.105 10.692979
55.110 10.571832
55.115 10.661527
55.120 10.512045
55.125 10.279854
55.130 10.516328
55.135 10.59743
55.140 10.71355
55.145 10.206395
55.150 9.994277
55.155 10.184484
55.160 10.82268
55.165 11.179379
55.170 11.265494
55.175 11.622063
55.180 12.203164
55.185 12.370475
55.190 12.107601
55.195 11.958977
55.200 11.622776
55.205 11.285911
55.210 10.882188
55.215 10.652372
55.220 10.989183
55.225 10.878188
55.230 10.901162
55.235 11.176637
55.240 10.974365
55.245 11.365856
55.250 11.626316
55.255 11.438827
55.260 11.078137
55.265 11.190404
55.270 11.144377
55.275 11.329814
55.280 10.9604
55.285 10.87414
55.290 11.046337
55.295 11.141788
55.300 10.84841
55.305 11.00452
55.310 11.44926
55.315 11.350159
55.320 10.834325
55.325 11.122596
55.330 11.239995
55.335 11.169979
55.340 10.674244
55.345 10.384064
55.350 10.839368
55.355 11.425817
55.360 11.32178
55.365 11.662287
55.370 11.658982
55.375 11.74929
55.380 12.487656
55.385 12.490808
55.390 12.222781
55.395 11.847505
55.400 11.457253
55.405 11.758652
55.410 12.187159
55.415 11.979661
55.420 11.934807
55.425 12.371676
55.430 12.419305
55.435 12.700688
55.440 12.673751
55.445 11.971501
55.450 11.689813
55.455 11.501264
55.460 11.511072
55.465 11.714513
55.470 11.637403
55.475 11.954616
55.480 12.32187
55.485 12.669837
55.490 12.77465
55.495 12.836343
55.500 13.209182
55.505 13.344289
55.510 12.878952
55.515 12.292252
55.520 11.830606
55.525 11.662827
55.530 10.912652
55.535 10.467556
55.540 10.032043
55.545 10.166599
55.550 10.348703
55.555 10.818464
55.560 10.871708
55.565 10.854595
55.570 11.131379
55.575 11.29887
55.580 11.428694
55.585 11.62805
55.590 11.49087
55.595 12.115121
55.600 11.564951
55.605 11.392288
55.610 11.585818
55.615 11.519936
55.620 11.363623
55.625 10.850755
55.630 10.301995
55.635 10.56985
55.640 10.515537
55.645 10.570613
55.650 11.027153
55.655 11.304492
55.660 11.30263
55.665 11.48555
55.670 11.857183
55.675 12.036586
55.680 11.806021
55.685 11.331607
55.690 11.31958
55.695 11.532844
55.700 11.333316
55.705 11.276707
55.710 11.184061
55.715 11.237638
55.720 11.165788
55.725 11.131402
55.730 11.270562
55.735 11.099893
55.740 11.012469
55.745 10.969365
55.750 10.785563
55.755 10.824396
55.760 10.973131
55.765 11.347298
55.770 11.653047
55.775 11.712877
55.780 11.448909
55.785 11.160055
55.790 11.332541
55.795 11.476954
55.800 10.983598
55.805 10.67459
55.810 10.579221
55.815 10.905402
55.820 11.328485
55.825 11.401366
55.830 11.405413
55.835 12.34406
55.840 13.180488
55.845 13.57709
55.850 13.769279
55.855 13.831885
55.860 13.506347
55.865 13.321493
55.870 12.589138
55.875 12.010294
55.880 12.115709
55.885 12.221862
55.890 12.032373
55.895 12.046786
55.900 11.764218
55.905 11.64839
55.910 11.102651
55.915 10.537667
55.920 10.421003
55.925 10.598077
55.930 10.991782
55.935 11.484877
55.940 11.92041
55.945 12.727708
55.950 12.965557
55.955 13.14725
55.960 12.828527
55.965 12.177591
55.970 11.905191
55.975 11.909894
55.980 11.669325
55.985 11.569391
55.990 11.586769
55.995 12.116196
56.000 12.394795
56.005 12.698323
56.010 12.412689
56.015 12.300567
56.020 11.950202
56.025 11.728582
56.030 11.384939
56.035 11.103786
56.040 10.108466
56.045 9.873786
56.050 9.782372
56.055 10.476593
56.060 10.735126
56.065 10.785213
56.070 10.956159
56.075 11.761246
56.080 12.385117
56.085 12.894611
56.090 12.822527
56.095 12.907088
56.100 12.849044
56.105 12.356397
56.110 12.461805
56.115 12.565617
56.120 12.16583
56.125 11.468445
56.130 11.093074
56.135 11.197991
56.140 11.652241
56.145 11.220554
56.150 10.828896
56.155 10.818132
56.160 11.079751
56.165 11.455544
56.170 11.723632
56.175 11.778642
56.180 12.148862
56.185 12.272091
56.190 12.700028
56.195 12.707821
56.200 12.379169
56.205 12.433049
56.210 12.168076
56.215 11.94446
56.220 12.130687
56.225 12.929266
56.230 13.198411
56.235 13.549517
56.240 13.517065
56.245 13.823558
56.250 14.211705
56.255 13.679625
56.260 12.559616
56.265 12.26907
56.270 11.744585
56.275 11.638071
56.280 11.131839
56.285 10.470102
56.290 10.771907
56.295 11.262667
56.300 11.267221
56.305 11.32564
56.310 11.574821
56.315 12.522678
56.320 13.192781
56.325 13.196601
56.330 13.169885
56.335 13.661003
56.340 14.228447
56.345 13.877303
56.350 13.548002
56.355 13.189811
56.360 12.806831
56.365 12.927646
56.370 12.585979
56.375 12.283145
56.380 12.22727
56.385 11.786224
56.390 11.756704
56.395 12.002263
56.400 12.151742
56.405 12.366282
56.410 12.661213
56.415 12.719567
56.420 13.112294
56.425 13.163172
56.430 13.342138
56.435 13.14478
56.440 12.615255
56.445 12.101008
56.450 12.244308
56.455 12.235162
56.460 12.371225
56.465 11.663446
56.470 11.049253
56.475 11.383441
56.480 11.630101
56.485 11.373272
56.490 11.277003
56.495 10.83363
56.500 11.474639
56.505 11.909831
56.510 11.79672
56.515 11.574269
56.520 11.930157
56.525 12.219511
56.530 12.129713
56.535 11.987484
56.540 11.800987
56.545 11.766638
56.550 12.038596
56.555 11.607501
56.560 11.868826
56.565 12.158619
56.570 12.474411
56.575 13.187356
56.580 13.352811
56.585 13.681496
56.590 13.923188
56.595 13.942257
56.600 14.553835
56.605 14.126524
56.610 13.692327
56.615 13.810976
56.620 13.842808
56.625 13.234427
56.630 12.470561
56.635 12.761112
56.640 13.189827
56.645 13.712942
56.650 13.689353
56.655 13.497125
56.660 13.931025
56.665 14.200397
56.670 14.267654
56.675 14.878337
56.680 14.653824
56.685 14.443369
56.690 14.724142
56.695 14.985007
56.700 14.585974
56.705 13.802973
56.710 12.810847
56.715 12.578639
56.720 12.718246
56.725 12.340167
56.730 12.337412
56.735 12.315108
56.740 12.542307
56.745 13.489819
56.750 13.972957
56.755 14.229534
56.760 14.569543
56.765 15.04661
56.770 15.004922
56.775 14.760703
56.780 14.126927
56.785 13.631085
56.790 13.463267
56.795 13.214552
56.800 12.763975
56.805 12.694014
56.810 12.643807
56.815 12.785105
56.820 12.721168
56.825 12.507991
56.830 12.541648
56.835 12.940805
56.840 13.419134
56.845 13.210526
56.850 12.977655
56.855 12.96529
56.860 12.854215
56.865 13.133719
56.870 13.747661
56.875 14.040125
56.880 14.064281
56.885 14.429171
56.890 15.022131
56.895 15.514975
56.900 14.574339
56.905 13.928802
56.910 13.464485
56.915 13.814191
56.920 13.684731
56.925 13.505804
56.930 13.755894
56.935 14.04482
56.940 13.759315
56.945 13.890425
56.950 13.667764
56.955 13.382896
56.960 12.980348
56.965 12.823359
56.970 13.076598
56.975 13.732106
56.980 14.394211
56.985 14.882099
56.990 15.325707
56.995 15.428768
57.000 15.553198
57.005 15.576593
57.010 15.052685
57.015 14.17368
57.020 13.691133
57.025 13.294401
57.030 13.265746
57.035 13.600151
57.040 13.405461
57.045 13.283553
57.050 13.622006
57.055 13.597334
57.060 13.777842
57.065 13.4067
57.070 12.65586
57.075 12.299458
57.080 12.759297
57.085 13.3297
57.090 13.591519
57.095 13.750435
57.100 14.153573
57.105 14.703226
57.110 14.601851
57.115 14.080143
57.120 13.259578
57.125 13.218426
57.130 13.407666
57.135 13.255035
57.140 13.63399
57.145 14.061376
57.150 15.015143
57.155 15.449895
57.160 14.850307
57.165 14.922729
57.170 15.183536
57.175 14.620994
57.180 14.00323
57.185 13.06115
57.190 13.618455
57.195 13.738937
57.200 12.913388
57.205 12.830599
57.210 12.838761
57.215 13.146076
57.220 13.466205
57.225 13.300851
57.230 13.927591
57.235 14.066364
57.240 14.226458
57.245 14.561732
57.250 14.408121
57.255 14.335947
57.260 14.559594
57.265 14.610403
57.270 14.61507
57.275 14.182254
57.280 13.849059
57.285 14.610232
57.290 14.302678
57.295 13.982163
57.300 13.675485
57.305 13.482099
57.310 14.264423
57.315 13.998919
57.320 13.553783
57.325 13.631783
57.330 13.863929
57.335 14.496306
57.340 14.549004
57.345 14.188554
57.350 14.330387
57.355 14.133654
57.360 13.977201
57.365 13.491698
57.370 13.257377
57.375 13.722169
57.380 13.916853
57.385 14.008075
57.390 14.240922
57.395 14.368142
57.400 14.527997
57.405 14.331374
57.410 13.864032
57.415 14.000759
57.420 14.601253
57.425 14.333755
57.430 14.063156
57.435 14.168987
57.440 14.250405
57.445 14.344448
57.450 14.395641
57.455 13.835902
57.460 14.434581
57.465 14.914168
57.470 14.870853
57.475 15.199513
57.480 15.094303
57.485 14.811049
57.490 15.225323
57.495 14.796043
57.500 14.73308
57.505 14.612617
57.510 14.158524
57.515 14.473686
57.520 14.281978
57.525 14.217668
57.530 14.310207
57.535 14.206794
57.540 14.690317
57.545 14.719755
57.550 14.549274
57.555 14.921668
57.560 14.469798
57.565 14.645947
57.570 14.877301
57.575 14.619248
57.580 14.856743
57.585 14.974639
57.590 14.506583
57.595 14.838972
57.600 14.489987
57.605 14.06496
57.610 14.425819
57.615 14.291734
57.620 14.343797
57.625 14.779511
57.630 15.009091
57.635 14.776666
57.640 14.526148
57.645 14.069517
57.650 14.326435
57.655 14.135608
57.660 13.916929
57.665 14.114087
57.670 14.550646
57.675 15.072518
57.680 15.221828
57.685 15.225559
57.690 15.487309
57.695 15.040022
57.700 14.762501
57.705 14.64313
57.710 14.022488
57.715 13.758058
57.720 13.517555
57.725 13.001899
57.730 12.972878
57.735 12.658424
57.740 12.690524
57.745 13.108143
57.750 13.589528
57.755 13.555874
57.760 13.945125
57.765 14.318707
57.770 14.481544
57.775 14.827818
57.780 14.69277
57.785 14.483924
57.790 14.641618
57.795 14.482538
57.800 14.746345
57.805 15.46404
57.810 15.622293
57.815 15.765703
57.820 15.898584
57.825 15.561743
57.830 15.638149
57.835 15.827386
57.840 15.682752
57.845 15.3352
57.850 15.166324
57.855 14.900687
57.860 15.119833
57.865 14.958258
57.870 14.28856
57.875 13.8307
57.880 14.081256
57.885 13.848373
57.890 13.963833
57.895 14.261374
57.900 14.606601
57.905 14.717817
57.910 14.604534
57.915 14.322753
57.920 14.859785
57.925 15.147352
57.930 15.209016
57.935 15.290647
57.940 15.458329
57.945 15.571056
57.950 15.658772
57.955 15.206095
57.960 15.028511
57.965 14.979346
57.970 15.095005
57.975 15.133859
57.980 15.442863
57.985 15.745097
57.990 15.647611
57.995 15.249549
58.000 15.34563
58.005 15.564817
58.010 15.564595
58.015 15.083015
58.020 14.851772
58.025 15.598584
58.030 15.852035
58.035 15.585215
58.040 15.511583
58.045 15.416823
58.050 15.908299
58.055 16.367243
58.060 15.941684
58.065 15.524781
58.070 15.513434
58.075 15.867796
58.080 15.913851
58.085 15.562529
58.090 15.368229
58.095 15.798083
58.100 16.541723
58.105 17.07461
58.110 16.20989
58.115 16.535221
58.120 17.094784
58.125 17.003414
58.130 16.775866
58.135 16.733519
58.140 16.667456
58.145 17.267849
58.150 16.837999
58.155 16.67732
58.160 16.752375
58.165 16.696211
58.170 16.462614
58.175 16.262611
58.180 15.794532
58.185 15.62746
58.190 14.918049
58.195 14.78637
58.200 15.11147
58.205 15.464437
58.210 16.203167
58.215 16.772703
58.220 17.32259
58.225 18.19997
58.230 18.822178
58.235 18.441326
58.240 17.975422
58.245 17.531487
58.250 17.72497
58.255 17.599491
58.260 17.377239
58.265 17.163351
58.270 17.183329
58.275 17.059299
58.280 17.585705
58.285 17.209438
58.290 16.688391
58.295 16.478037
58.300 16.398081
58.305 17.094913
58.310 17.383333
58.315 17.063194
58.320 17.110432
58.325 17.162788
58.330 16.946884
58.335 17.040756
58.340 16.9786
58.345 16.982206
58.350 17.325991
58.355 17.666552
58.360 17.927654
58.365 18.208477
58.370 17.851881
58.375 17.547791
58.380 17.324909
58.385 17.243402
58.390 17.656422
58.395 18.068583
58.400 18.224236
58.405 18.273088
58.410 18.120295
58.415 18.159451
58.420 18.458815
58.425 18.327278
58.430 18.621227
58.435 18.976831
58.440 19.249077
58.445 19.660475
58.450 19.598532
58.455 18.886311
58.460 18.699444
58.465 18.669994
58.470 18.221579
58.475 18.4191
58.480 18.579197
58.485 19.266737
58.490 19.357809
58.495 19.262516
58.500 19.415913
58.505 19.831944
58.510 20.1719
58.515 20.524893
58.520 20.483633
58.525 21.153957
58.530 21.952143
58.535 22.468754
58.540 22.699081
58.545 22.473986
58.550 21.581474
58.555 21.179615
58.560 21.264519
58.565 20.538836
58.570 19.737898
58.575 19.467857
58.580 19.4006
58.585 20.202356
58.590 20.446577
58.595 20.816507
58.600 21.004892
58.605 21.327784
58.610 21.450752
58.615 21.857153
58.620 21.607727
58.625 21.196735
58.630 20.905363
58.635 21.375931
58.640 21.354557
58.645 21.536633
58.650 20.854427
58.655 20.824614
58.660 21.110302
58.665 20.923256
58.670 20.711184
58.675 20.413715
58.680 20.534355
58.685 20.891392
58.690 20.972116
58.695 21.277388
58.700 21.030825
58.705 21.222321
58.710 21.155508
58.715 20.754694
58.720 20.792135
58.725 21.275236
58.730 20.997795
58.735 20.458563
58.740 20.431135
58.745 21.127096
58.750 21.424646
58.755 21.117561
58.760 20.989555
58.765 20.979095
58.770 21.683504
58.775 21.899059
58.780 21.608747
58.785 21.368351
58.790 21.295675
58.795 20.968887
58.800 20.963295
58.805 20.878992
58.810 20.610926
58.815 20.700657
58.820 21.196751
58.825 21.72769
58.830 21.793594
58.835 21.614222
58.840 21.340752
58.845 20.32954
58.850 19.745081
58.855 19.642651
58.860 19.895048
58.865 20.030331
58.870 19.766306
58.875 19.63846
58.880 20.347321
58.885 20.728506
58.890 20.680878
58.895 20.065311
58.900 20.076096
58.905 20.000288
58.910 19.674839
58.915 19.649849
58.920 18.881184
58.925 18.795513
58.930 18.818712
58.935 19.063475
58.940 20.062641
58.945 20.461918
58.950 20.615515
58.955 21.421932
58.960 21.458748
58.965 21.17901
58.970 20.770428
58.975 20.073759
58.980 20.442392
58.985 20.358284
58.990 20.547276
58.995 20.757635
59.000 20.779612
59.005 20.995398
59.010 21.399382
59.015 21.307911
59.020 21.70562
59.025 21.086596
59.030 20.550688
59.035 20.376846
59.040 20.922239
59.045 21.113485
59.050 20.318476
59.055 19.347479
59.060 19.19614
59.065 19.651814
59.070 20.080013
59.075 19.989061
59.080 19.883121
59.085 20.704397
59.090 21.300413
59.095 21.649437
59.100 21.457394
59.105 21.117668
59.110 20.125532
59.115 19.980497
59.120 19.455839
59.125 18.85215
59.130 18.551334
59.135 18.331984
59.140 18.395178
59.145 18.525446
59.150 18.785946
59.155 18.796621
59.160 18.526209
59.165 18.17754
59.170 18.18803
59.175 18.337967
59.180 18.516176
59.185 17.95006
59.190 17.930889
59.195 18.242907
59.200 18.270203
59.205 18.678833
59.210 18.43643
59.215 17.990896
59.220 18.202284
59.225 18.044247
59.230 17.926918
59.235 18.119677
59.240 17.467928
59.245 17.815805
59.250 18.763651
59.255 19.235117
59.260 19.740105
59.265 20.206657
59.270 20.333364
59.275 20.282516
59.280 19.340477
59.285 18.496265
59.290 18.232889
59.295 18.22443
59.300 17.680792
59.305 17.445642
59.310 17.648216
59.315 18.350473
59.320 18.415232
59.325 18.196873
59.330 17.584606
59.335 17.880505
59.340 17.370161
59.345 16.560009
59.350 16.190079
59.355 16.221031
59.360 16.643009
59.365 17.482878
59.370 17.732319
59.375 18.391998
59.380 19.145281
59.385 19.386215
59.390 19.687883
59.395 19.388172
59.400 19.343624
59.405 19.322596
59.410 19.443388
59.415 19.683847
59.420 19.714214
59.425 19.599804
59.430 19.40798
59.435 18.912342
59.440 18.714945
59.445 18.328648
59.450 17.877495
59.455 17.372555
59.460 16.897533
59.465 17.365173
59.470 17.303715
59.475 17.450525
59.480 17.580299
59.485 17.661581
59.490 17.785259
59.495 17.211073
59.500 16.310125
59.505 16.163998
59.510 15.990148
59.515 15.927712
59.520 15.994868
59.525 16.109219
59.530 16.372713
59.535 16.670553
59.540 16.884501
59.545 17.556705
59.550 17.707539
59.555 17.388754
59.560 17.16732
59.565 17.744308
59.570 18.087854
59.575 17.650156
59.580 17.393908
59.585 17.293978
59.590 17.658314
59.595 18.152714
59.600 17.80233
59.605 17.959978
59.610 18.060974
59.615 18.074375
59.620 18.555056
59.625 18.746931
59.630 18.646933
59.635 19.561087
59.640 19.439953
59.645 19.576153
59.650 19.735996
59.655 19.215174
59.660 18.946983
59.665 18.285191
59.670 17.511288
59.675 17.49954
59.680 17.544785
59.685 17.275467
59.690 17.651791
59.695 18.364107
59.700 18.815857
59.705 18.902155
59.710 19.025534
59.715 18.79734
59.720 18.378958
59.725 17.921179
59.730 17.765944
59.735 17.907534
59.740 18.044781
59.745 17.845886
59.750 17.961344
59.755 17.570183
59.760 17.013296
59.765 16.472765
59.770 16.366379
59.775 16.374216
59.780 16.59796
59.785 16.955519
59.790 17.189482
59.795 17.677225
59.800 17.871294
59.805 17.382153
59.810 17.429502
59.815 17.755629
59.820 17.534267
59.825 18.451147
59.830 18.863211
59.835 18.580158
59.840 18.598515
59.845 18.676605
59.850 18.646868
59.855 18.678694
59.860 18.441597
59.865 18.285057
59.870 19.169992
59.875 19.757401
59.880 19.71693
59.885 19.443039
59.890 19.765821
59.895 19.558477
59.900 19.206112
59.905 18.393103
59.910 17.692188
59.915 18.210232
59.920 18.81406
59.925 18.747391
59.930 19.303888
59.935 19.718363
59.940 19.740643
59.945 19.787062
59.950 19.09561
59.955 18.684099
59.960 18.265574
59.965 17.711842
59.970 17.854755
59.975 17.799509
59.980 17.68959
59.985 17.658751
59.990 17.387434
59.995 17.311832
60.000 17.134735
60.005 16.89875
60.010 17.017506
60.015 16.534893
60.020 16.462156
60.025 17.201067
60.030 17.318823
60.035 17.178328
60.040 17.036617
60.045 17.532015
60.050 17.675522
60.055 17.51981
60.060 17.026466
60.065 17.195515
60.070 17.200045
60.075 16.699938
60.080 16.449093
60.085 17.029165
60.090 17.2171
60.095 17.511057
60.100 17.149485
60.105 17.193165
60.110 17.206684
60.115 17.319302
60.120 17.748569
60.125 18.005886
60.130 17.601765
60.135 18.082325
60.140 17.97768
60.145 18.40686
60.150 18.666014
60.155 18.165174
60.160 18.272121
60.165 18.562756
60.170 18.465263
60.175 18.805618
60.180 18.743002
60.185 18.613132
60.190 19.108759
60.195 18.82971
60.200 19.016264
60.205 19.06604
60.210 18.621897
60.215 18.553741
60.220 18.25646
60.225 17.493135
60.230 17.456312
60.235 17.784121
60.240 17.5389
60.245 18.095547
60.250 18.165689
60.255 17.461674
60.260 17.182838
60.265 16.920094
60.270 16.308163
60.275 16.888926
60.280 17.029509
60.285 17.093622
60.290 18.036877
60.295 18.67911
60.300 18.28644
60.305 18.747478
60.310 18.434824
60.315 18.030701
60.320 17.924408
60.325 17.073904
60.330 16.349266
60.335 16.271681
60.340 15.589395
60.345 15.668336
60.350 15.986653
60.355 15.997194
60.360 16.563057
60.365 16.795908
60.370 17.008194
60.375 16.813423
60.380 16.38504
60.385 15.804258
60.390 15.623325
60.395 15.57149
60.400 15.453194
60.405 15.517445
60.410 16.167294
60.415 16.137764
60.420 16.327639
60.425 16.459997
60.430 16.799189
60.435 17.506184
60.440 17.689327
60.445 17.378048
60.450 17.071594
60.455 16.478582
60.460 15.922238
60.465 15.651602
60.470 15.137068
60.475 14.71135
60.480 15.031964
60.485 15.562894
60.490 16.101578
60.495 16.709917
60.500 16.933153
60.505 16.790817
60.510 16.749361
60.515 16.611429
60.520 16.431528
60.525 16.480572
60.530 16.269983
60.535 16.305407
60.540 16.180918
60.545 16.16044
60.550 16.349327
60.555 16.182137
60.560 15.782135
60.565 15.966276
60.570 15.950209
60.575 16.537903
60.580 16.901947
60.585 16.678566
60.590 16.655323
60.595 16.757462
60.600 15.911016
60.605 14.822008
60.610 14.326168
60.615 14.237912
60.620 14.139968
60.625 14.766515
60.630 15.158072
60.635 15.385002
60.640 16.465773
60.645 17.086926
60.650 17.460213
60.655 17.468493
60.660 16.802044
60.665 16.803228
60.670 16.805216
60.675 16.273228
60.680 15.707417
60.685 15.364383
60.690 15.456108
60.695 15.701242
60.700 15.577186
60.705 15.780408
60.710 15.850853
60.715 15.46124
60.720 15.425673
60.725 16.131161
60.730 16.192032
60.735 16.155901
60.740 16.182732
60.745 16.061373
60.750 16.275629
60.755 16.02355
60.760 15.675952
60.765 16.115063
60.770 16.130989
60.775 16.367975
60.780 16.564846
60.785 16.685495
60.790 16.689877
60.795 16.456736
60.800 16.723345
60.805 16.810171
60.810 17.356762
60.815 17.441458
60.820 17.318037
60.825 17.47102
60.830 17.244759
60.835 16.483076
60.840 15.892098
60.845 15.109797
60.850 15.443069
60.855 15.842669
60.860 15.659257
60.865 15.717867
60.870 16.110256
60.875 16.231646
60.880 15.630157
60.885 14.804123
60.890 14.372046
60.895 14.387575
60.900 14.337835
60.905 13.996743
60.910 13.787056
60.915 14.192791
60.920 14.324373
60.925 14.326464
60.930 14.079126
60.935 14.02469
60.940 14.215117
60.945 14.697709
60.950 14.733071
60.955 15.057886
60.960 15.755778
60.965 15.645911
60.970 15.398824
60.975 15.403903
60.980 15.462294
60.985 15.528555
60.990 15.861754
60.995 15.387909
61.000 15.683827
61.005 15.991051
61.010 15.869287
61.015 15.787586
61.020 15.924143
61.025 15.864274
61.030 16.44235
61.035 16.95042
61.040 17.058306
61.045 16.905714
61.050 16.935209
61.055 16.83692
61.060 16.537739
61.065 16.464359
61.070 16.290329
61.075 16.290562
61.080 16.636839
61.085 16.834095
61.090 17.02449
61.095 16.842173
61.100 16.742748
61.105 17.13451
61.110 17.511971
61.115 17.568504
61.120 17.279804
61.125 17.480837
61.130 18.129225
61.135 18.106625
61.140 17.603857
61.145 17.392378
61.150 17.566162
61.155 17.586962
61.160 17.5107
61.165 17.011909
61.170 16.985716
61.175 16.577173
61.180 16.166716
61.185 16.257832
61.190 16.936249
61.195 17.599901
61.200 17.786268
61.205 18.129246
61.210 18.149788
61.215 18.228283
61.220 18.093309
61.225 17.297523
61.230 16.651426
61.235 16.209227
61.240 15.842153
61.245 15.864404
61.250 16.214556
61.255 16.040222
61.260 16.084843
61.265 16.396938
61.270 16.470161
61.275 15.730214
61.280 15.706892
61.285 15.376876
61.290 15.574315
61.295 15.905902
61.300 15.821541
61.305 15.675181
61.310 16.507292
61.315 16.82588
61.320 16.974346
61.325 16.672628
61.330 16.161406
61.335 15.859424
61.340 16.392984
61.345 16.411072
61.350 16.110037
61.355 16.239618
61.360 16.159101
61.365 15.608865
61.370 15.202478
61.375 15.063724
61.380 15.188724
61.385 15.358467
61.390 15.318114
61.395 15.393987
61.400 15.701943
61.405 15.78984
61.410 15.782723
61.415 15.35112
61.420 14.990466
61.425 14.888789
61.430 15.447472
61.435 16.375137
61.440 16.955391
61.445 17.045458
61.450 17.216263
61.455 17.64497
61.460 17.515385
61.465 17.275049
61.470 16.653578
61.475 15.923878
61.480 16.153507
61.485 16.431423
61.490 16.606756
61.495 16.637823
61.500 16.590609
61.505 17.25762
61.510 17.603874
61.515 16.863392
61.520 16.273912
61.525 16.425249
61.530 16.296682
61.535 15.63742
61.540 14.748525
61.545 15.00556
61.550 15.726672
61.555 16.300831
61.560 16.257071
61.565 16.541824
61.570 17.041483
61.575 17.615948
61.580 18.089014
61.585 17.693411
61.590 17.373442
61.595 17.407734
61.600 17.65234
61.605 17.929588
61.610 17.939255
61.615 17.287235
61.620 17.757524
61.625 17.559256
61.630 17.044149
61.635 16.326624
61.640 15.972235
61.645 16.157051
61.650 16.747477
61.655 16.48061
61.660 16.917297
61.665 17.496996
61.670 17.782505
61.675 17.959753
61.680 17.607519
61.685 17.033987
61.690 16.357666
61.695 15.815905
61.700 15.543833
61.705 15.66272
61.710 15.467828
61.715 15.465653
61.720 15.370265
61.725 15.761183
61.730 16.262129
61.735 16.711771
61.740 17.152744
61.745 17.160856
61.750 16.88559
61.755 16.952066
61.760 16.945927
61.765 16.783415
61.770 15.903927
61.775 15.364289
61.780 15.079777
61.785 14.825431
61.790 15.439054
61.795 15.332816
61.800 15.305922
61.805 15.633176
61.810 15.812729
61.815 15.930018
61.820 15.939294
61.825 15.743689
61.830 16.34491
61.835 16.688116
61.840 16.83602
61.845 16.900675
61.850 17.183678
61.855 17.905439
61.860 18.146444
61.865 18.131708
61.870 17.885399
61.875 18.136793
61.880 18.594364
61.885 18.79701
61.890 19.303493
61.895 18.978302
61.900 18.771622
61.905 18.454247
61.910 18.214579
61.915 17.566355
61.920 17.054537
61.925 16.557411
61.930 16.355637
61.935 16.059444
61.940 16.32387
61.945 16.445986
61.950 16.59321
61.955 16.718758
61.960 16.712404
61.965 16.938839
61.970 17.058376
61.975 17.209074
61.980 17.070707
61.985 17.166075
61.990 17.445713
61.995 17.482214
62.000 17.015284
62.005 16.750967
62.010 16.348995
62.015 16.096895
62.020 15.932924
62.025 15.728791
62.030 15.548468
62.035 15.632729
62.040 15.44382
62.045 15.798543
62.050 16.438683
62.055 16.774761
62.060 16.532091
62.065 15.994473
62.070 16.716423
62.075 16.808912
62.080 16.146902
62.085 15.244856
62.090 15.031612
62.095 15.639538
62.100 16.216646
62.105 15.635425
62.110 16.03754
62.115 15.823144
62.120 16.103073
62.125 16.139742
62.130 15.455649
62.135 15.241108
62.140 15.593896
62.145 15.503182
62.150 16.091331
62.155 16.500149
62.160 16.752724
62.165 17.350279
62.170 17.92811
62.175 17.979053
62.180 18.100996
62.185 18.364622
62.190 17.718067
62.195 17.48654
62.200 17.244886
62.205 17.005886
62.210 17.12709
62.215 16.708582
62.220 16.18734
62.225 16.446373
62.230 16.449217
62.235 16.705175
62.240 16.714962
62.245 16.817009
62.250 17.064207
62.255 17.255217
62.260 17.481298
62.265 17.640282
62.270 17.069242
62.275 16.95586
62.280 16.589937
62.285 16.173582
62.290 16.02054
62.295 15.951122
62.300 15.821961
62.305 15.690252
62.310 15.57403
62.315 15.898388
62.320 16.485434
62.325 16.518387
62.330 16.625378
62.335 16.735212
62.340 16.893904
62.345 17.414503
62.350 17.283171
62.355 16.768312
62.360 16.519306
62.365 15.932036
62.370 15.580733
62.375 15.490027
62.380 14.644554
62.385 14.549532
62.390 14.826298
62.395 15.505684
62.400 16.093353
62.405 16.123877
62.410 16.340477
62.415 16.526289
62.420 16.479973
62.425 16.752882
62.430 16.650753
62.435 16.856045
62.440 17.119621
62.445 17.364552
62.450 17.453249
62.455 18.100595
62.460 18.255058
62.465 18.797979
62.470 19.352573
62.475 19.433834
62.480 19.191151
62.485 18.833265
62.490 18.326395
62.495 17.9391
62.500 17.504301
62.505 16.846888
62.510 16.381939
62.515 16.298063
62.520 16.3223
62.525 16.014444
62.530 15.661005
62.535 15.534883
62.540 15.807779
62.545 15.833282
62.550 15.978681
62.555 16.657146
62.560 17.032198
62.565 17.271605
62.570 17.382826
62.575 17.13662
62.580 17.202503
62.585 16.916584
62.590 16.66604
62.595 16.360569
62.600 15.868721
62.605 15.727258
62.610 15.617178
62.615 15.749851
62.620 16.431932
62.625 16.646259
62.630 16.820457
62.635 17.181011
62.640 16.805906
62.645 17.071362
62.650 17.449795
62.655 17.186794
62.660 16.974253
62.665 16.922609
62.670 16.976784
62.675 17.236519
62.680 17.280844
62.685 16.502153
62.690 16.163149
62.695 16.518244
62.700 16.6068
62.705 16.881315
62.710 17.10191
62.715 17.112104
62.720 18.170658
62.725 18.345261
62.730 18.474308
62.735 18.128662
62.740 17.473372
62.745 16.943741
62.750 16.656593
62.755 16.44297
62.760 17.227768
62.765 16.639957
62.770 16.957264
62.775 17.044266
62.780 16.99881
62.785 16.829315
62.790 16.193264
62.795 15.403716
62.800 15.761714
62.805 15.614984
62.810 15.348209
62.815 15.265843
62.820 15.462497
62.825 15.759261
62.830 16.135036
62.835 16.761147
62.840 17.131021
62.845 17.54318
62.850 17.844925
62.855 18.066236
62.860 18.119091
62.865 17.83536
62.870 16.549284
62.875 16.260252
62.880 16.346117
62.885 16.539946
62.890 16.605782
62.895 16.51432
62.900 16.60553
62.905 16.952032
62.910 17.018959
62.915 17.547201
62.920 17.448019
62.925 17.002167
62.930 16.8571
62.935 17.029457
62.940 17.268471
62.945 17.133076
62.950 16.493109
62.955 16.172716
62.960 16.057192
62.965 16.237221
62.970 15.884922
62.975 16.588022
62.980 17.059324
62.985 17.47571
62.990 18.036919
62.995 18.401501
63.000 18.399733
63.005 19.092123
63.010 19.053837
63.015 18.741564
63.020 18.665085
63.025 18.509972
63.030 18.332102
63.035 18.131863
63.040 17.754009
63.045 17.286402
63.050 17.636042
63.055 17.120047
63.060 16.657738
63.065 16.841434
63.070 17.781002
63.075 17.652451
63.080 17.113985
63.085 16.532005
63.090 16.606077
63.095 17.206161
63.100 16.846857
63.105 16.243887
63.110 16.19978
63.115 16.641726
63.120 17.41637
63.125 18.528078
63.130 18.798506
63.135 19.683743
63.140 19.282412
63.145 19.436634
63.150 19.550013
63.155 18.743809
63.160 18.122717
63.165 17.592068
63.170 17.351297
63.175 18.122181
63.180 17.900539
63.185 17.656862
63.190 17.958563
63.195 18.057026
63.200 17.930979
63.205 17.395597
63.210 17.334352
63.215 18.10647
63.220 18.279707
63.225 18.322309
63.230 18.369484
63.235 18.582943
63.240 18.463512
63.245 18.203312
63.250 18.228985
63.255 18.273649
63.260 17.641253
63.265 16.947454
63.270 16.959621
63.275 16.833632
63.280 17.357145
63.285 17.492283
63.290 17.309397
63.295 17.555031
63.300 17.955114
63.305 18.141981
63.310 18.049633
63.315 17.035828
63.320 16.400703
63.325 16.454807
63.330 16.5299
63.335 16.332523
63.340 15.857584
63.345 16.091747
63.350 16.326317
63.355 16.148144
63.360 16.381386
63.365 16.720482
63.370 17.099401
63.375 17.753365
63.380 17.922342
63.385 18.653481
63.390 18.785864
63.395 18.542545
63.400 17.968355
63.405 17.838625
63.410 17.198381
63.415 16.629477
63.420 16.509626
63.425 16.673269
63.430 16.716436
63.435 16.947283
63.440 17.263218
63.445 17.70236
63.450 17.853868
63.455 17.601774
63.460 17.694202
63.465 17.622868
63.470 17.683115
63.475 17.761864
63.480 17.925928
63.485 18.451059
63.490 18.332857
63.495 18.484921
63.500 18.670904
63.505 18.991941
63.510 18.521681
63.515 17.919579
63.520 18.037962
63.525 18.318466
63.530 18.870817
63.535 19.375465
63.540 19.409452
63.545 19.730469
63.550 19.892065
63.555 19.187601
63.560 18.891069
63.565 17.791368
63.570 16.750759
63.575 15.901209
63.580 15.456181
63.585 15.471997
63.590 16.21892
63.595 16.489557
63.600 16.349133
63.605 16.464258
63.610 16.763628
63.615 17.861441
63.620 18.040356
63.625 17.44239
63.630 17.502913
63.635 18.62899
63.640 19.923407
63.645 19.96777
63.650 19.431042
63.655 19.668261
63.660 19.916245
63.665 19.757511
63.670 19.892181
63.675 19.259272
63.680 19.589212
63.685 19.390789
63.690 19.2887
63.695 19.552507
63.700 19.248388
63.705 18.749817
63.710 18.832899
63.715 18.396994
63.720 18.42099
63.725 18.399431
63.730 18.474808
63.735 18.818182
63.740 18.815985
63.745 18.711193
63.750 18.838823
63.755 19.181841
63.760 19.316605
63.765 18.829411
63.770 18.90486
63.775 19.351864
63.780 19.956421
63.785 20.225275
63.790 20.17671
63.795 20.060534
63.800 20.688213
63.805 20.324678
63.810 20.141102
63.815 19.268061
63.820 18.703091
63.825 18.835524
63.830 19.023819
63.835 19.012104
63.840 19.606762
63.845 19.713102
63.850 20.319084
63.855 20.661308
63.860 20.392513
63.865 20.445517
63.870 20.156361
63.875 19.780148
63.880 19.607403
63.885 19.762346
63.890 19.91633
63.895 19.850422
63.900 19.289652
63.905 19.723597
63.910 20.14501
63.915 19.794136
63.920 19.553905
63.925 19.291662
63.930 20.204496
63.935 20.904154
63.940 20.561039
63.945 20.604084
63.950 21.44828
63.955 21.798555
63.960 22.202955
63.965 22.197145
63.970 22.619614
63.975 23.50654
63.980 23.834736
63.985 23.908403
63.990 23.960741
63.995 24.016832
64.000 23.708315
64.005 23.376787
64.010 23.399704
64.015 23.697514
64.020 23.596508
64.025 23.824829
64.030 23.779139
64.035 24.056744
64.040 24.48369
64.045 24.299461
64.050 24.227346
64.055 23.691179
64.060 23.834946
64.065 23.965244
64.070 23.526421
64.075 23.712532
64.080 24.29141
64.085 24.684761
64.090 25.483116
64.095 25.493311
64.100 25.353178
64.105 25.517971
64.110 25.600973
64.115 25.59388
64.120 25.180849
64.125 24.371475
64.130 24.241894
64.135 24.185518
64.140 24.358324
64.145 23.83531
64.150 22.614222
64.155 22.761909
64.160 23.053041
64.165 23.170238
64.170 23.493132
64.175 23.011887
64.180 22.670704
64.185 23.498909
64.190 23.266769
64.195 23.066111
64.200 22.907103
64.205 22.803343
64.210 23.31706
64.215 23.852318
64.220 23.740356
64.225 24.137623
64.230 24.982943
64.235 25.823923
64.240 26.151125
64.245 25.981468
64.250 25.990339
64.255 26.350529
64.260 26.641453
64.265 26.613998
64.270 25.733814
64.275 25.315695
64.280 25.373337
64.285 25.585686
64.290 25.230101
64.295 24.630981
64.300 24.019934
64.305 24.212975
64.310 24.807735
64.315 25.570887
64.320 25.454399
64.325 25.18478
64.330 24.846008
64.335 24.897799
64.340 24.840967
64.345 24.334536
64.350 23.776793
64.355 23.601191
64.360 24.407324
64.365 25.559801
64.370 25.862745
64.375 25.560053
64.380 25.082987
64.385 24.552399
64.390 24.704733
64.395 24.246117
64.400 24.310715
64.405 24.057571
64.410 24.167822
64.415 24.878735
64.420 24.764303
64.425 24.612776
64.430 24.604254
64.435 23.745407
64.440 23.933287
64.445 24.413618
64.450 24.538177
64.455 24.780104
64.460 25.207232
64.465 25.415169
64.470 25.440687
64.475 25.738909
64.480 25.713167
64.485 25.632561
64.490 25.702459
64.495 25.32263
64.500 25.616659
64.505 25.093607
64.510 24.349705
64.515 24.453859
64.520 24.607683
64.525 24.144827
64.530 23.797161
64.535 23.505585
64.540 23.805183
64.545 24.201262
64.550 23.613356
64.555 22.823214
64.560 22.390446
64.565 22.509762
64.570 22.027832
64.575 22.003782
64.580 21.473232
64.585 21.169798
64.590 21.645605
64.595 21.982929
64.600 21.752216
64.605 21.162201
64.610 21.613962
64.615 21.890224
64.620 22.612362
64.625 22.734306
64.630 23.35524
64.635 23.478552
64.640 23.831909
64.645 23.887148
64.650 24.091869
64.655 22.956364
64.660 22.602627
64.665 22.231537
64.670 22.603436
64.675 23.326229
64.680 22.930714
64.685 22.372101
64.690 22.80213
64.695 22.83259
64.700 22.783388
64.705 21.90531
64.710 21.039026
64.715 20.934307
64.720 21.61128
64.725 22.325623
64.730 22.992737
64.735 23.516102
64.740 23.458521
64.745 23.237848
64.750 23.569618
64.755 23.321537
64.760 22.749546
64.765 22.29187
64.770 21.733393
64.775 22.56097
64.780 23.271063
64.785 23.176622
64.790 22.881517
64.795 22.504934
64.800 22.38965
64.805 22.627783
64.810 22.705706
64.815 23.195194
64.820 23.306641
64.825 22.761177
64.830 22.820768
64.835 22.962826
64.840 23.102722
64.845 22.730608
64.850 21.537928
64.855 20.882759
64.860 21.485111
64.865 21.777321
64.870 21.733646
64.875 21.943886
64.880 21.564936
64.885 22.105936
64.890 22.692244
64.895 22.786079
64.900 22.926208
64.905 22.367128
64.910 22.068012
64.915 22.792217
64.920 22.776005
64.925 23.184561
64.930 22.590544
64.935 22.633308
64.940 23.651773
64.945 23.996504
64.950 23.646074
64.955 23.196165
64.960 22.288828
64.965 22.480705
64.970 22.71946
64.975 22.141623
64.980 22.021708
64.985 22.515532
64.990 22.604733
64.995 22.721413
65.000 22.848616
65.005 22.74069
65.010 23.242561
65.015 23.245552
65.020 22.610167
65.025 22.442577
65.030 22.883381
65.035 23.147209
65.040 22.704865
65.045 22.099953
65.050 22.580652
65.055 23.06426
65.060 22.52961
65.065 22.784893
65.070 22.671684
65.075 23.005758
65.080 23.068016
65.085 22.461414
65.090 22.555489
65.095 23.47772
65.100 23.487411
65.105 23.791309
65.110 24.145884
65.115 25.023609
65.120 25.434113
65.125 25.365351
65.130 24.748285
65.135 24.024277
65.140 23.455681
65.145 23.334099
65.150 23.256947
65.155 23.420475
65.160 24.039684
65.165 24.522686
65.170 25.052061
65.175 25.180309
65.180 25.088329
65.185 24.816847
65.190 24.592026
65.195 24.281271
65.200 24.457064
65.205 24.165335
65.210 24.077297
65.215 23.742767
65.220 23.53746
65.225 23.358849
65.230 23.263866
65.235 23.360083
65.240 23.690741
65.245 23.561155
65.250 23.443342
65.255 23.847231
65.260 23.515272
65.265 23.452002
65.270 23.224325
65.275 22.77676
65.280 22.823267
65.285 23.082481
65.290 22.700403
65.295 22.477798
65.300 22.206245
65.305 22.523607
65.310 22.791214
65.315 22.665169
65.320 22.681387
65.325 22.773731
65.330 23.476074
65.335 23.421045
65.340 23.282936
65.345 23.581268
65.350 23.751371
65.355 23.684504
65.360 23.729366
65.365 23.376448
65.370 23.702137
65.375 23.395664
65.380 23.130388
65.385 23.422447
65.390 23.306282
65.395 23.196947
65.400 23.167706
65.405 22.818203
65.410 22.877724
65.415 22.95973
65.420 22.58046
65.425 22.777992
65.430 22.973038
65.435 22.69265
65.440 22.606287
65.445 22.636953
65.450 22.07752
65.455 21.862236
65.460 21.89011
65.465 21.596188
65.470 21.890778
65.475 22.317806
65.480 22.470587
65.485 22.505363
65.490 22.167368
65.495 21.765989
65.500 21.773573
65.505 21.705276
65.510 21.880003
65.515 21.84589
65.520 21.830669
65.525 21.538233
65.530 21.454542
65.535 22.315285
65.540 23.338655
65.545 23.652283
65.550 24.235205
65.555 24.46134
65.560 25.193979
65.565 25.764215
65.570 25.165379
65.575 24.720947
65.580 24.460346
65.585 24.80562
65.590 24.862972
65.595 24.915508
65.600 25.047651
65.605 24.86342
65.610 25.158218
65.615 25.242134
65.620 24.870373
65.625 25.528219
65.630 25.675238
65.635 25.656441
65.640 25.73761
65.645 25.604475
65.650 25.518999
65.655 25.468384
65.660 25.64295
65.665 25.814041
65.670 26.201756
65.675 26.70241
65.680 26.734118
65.685 27.319681
65.690 27.759323
65.695 27.764147
65.700 27.664631
65.705 27.604837
65.710 27.886059
65.715 28.057261
65.720 27.729115
65.725 27.42384
65.730 26.904934
65.735 26.884186
65.740 26.463972
65.745 25.883577
65.750 25.624582
65.755 26.112387
65.760 26.600142
65.765 26.661879
65.770 27.398436
65.775 27.495165
65.780 27.670736
65.785 27.889467
65.790 27.828941
65.795 27.749329
65.800 28.007965
65.805 27.717209
65.810 27.269634
65.815 26.724169
65.820 27.017439
65.825 26.480698
65.830 26.366442
65.835 26.45875
65.840 26.152971
65.845 26.821024
65.850 27.545731
65.855 28.043152
65.860 29.370646
65.865 29.93539
65.870 29.933638
65.875 30.59453
65.880 31.349428
65.885 31.66918
65.890 31.684652
65.895 31.424
65.900 31.746895
65.905 32.463253
65.910 32.501781
65.915 32.733543
65.920 32.848068
65.925 32.85878
65.930 32.465759
65.935 32.573956
65.940 33.000069
65.945 32.741936
65.950 32.189747
65.955 32.665329
65.960 33.459229
65.965 33.87883
65.970 34.981869
65.975 34.728806
65.980 35.160114
65.985 35.471565
65.990 34.681133
65.995 34.908875
66.000 34.953007
66.005 33.756855
66.010 34.027828
66.015 34.941822
66.020 35.003342
66.025 35.340061
66.030 35.394089
66.035 35.283894
66.040 36.188583
66.045 36.355587
66.050 35.559883
66.055 35.595493
66.060 35.680378
66.065 36.609486
66.070 37.271015
66.075 36.874775
66.080 37.238895
66.085 38.088409
66.090 38.683033
66.095 39.025578
66.100 38.899529
66.105 38.905346
66.110 39.755672
66.115 39.451946
66.120 39.036312
66.125 38.79409
66.130 39.138203
66.135 39.844696
66.140 39.780319
66.145 38.724438
66.150 37.918839
66.155 38.238525
66.160 38.295074
66.165 37.913841
66.170 38.1539
66.175 38.590588
66.180 39.748199
66.185 41.417576
66.190 41.803211
66.195 41.640415
66.200 41.286827
66.205 40.470573
66.210 40.627079
66.215 40.782375
66.220 40.242046
66.225 40.22028
66.230 40.704308
66.235 40.972279
66.240 40.666504
66.245 40.06826
66.250 39.651722
66.255 39.600471
66.260 40.121666
66.265 39.877789
66.270 39.872162
66.275 39.542416
66.280 40.057281
66.285 40.149784
66.290 40.151005
66.295 39.577625
66.300 40.243778
66.305 40.671978
66.310 40.731331
66.315 40.775959
66.320 40.672474
66.325 40.394299
66.330 40.614109
66.335 39.916885
66.340 39.362804
66.345 39.12035
66.350 38.497356
66.355 39.107788
66.360 38.671783
66.365 38.231686
66.370 38.07193
66.375 37.415413
66.380 36.682976
66.385 36.455975
66.390 35.099098
66.395 35.00993
66.400 34.400196
66.405 34.728268
66.410 35.727913
66.415 35.839405
66.420 35.63995
66.425 35.905231
66.430 34.856274
66.435 34.600803
66.440 33.949581
66.445 32.362751
66.450 30.944588
66.455 29.991543
66.460 29.803801
66.465 30.672224
66.470 30.046106
66.475 30.177589
66.480 31.733385
66.485 32.777588
66.490 33.124722
66.495 32.433971
66.500 32.095242
66.505 31.8302
66.510 31.326588
66.515 30.533634
66.520 29.719534
66.525 29.376417
66.530 29.298979
66.535 29.108456
66.540 29.42135
66.545 29.302092
66.550 28.588762
66.555 28.581392
66.560 27.723473
66.565 27.561926
66.570 27.714226
66.575 27.698664
66.580 27.243195
66.585 27.672863
66.590 27.605766
66.595 27.889057
66.600 27.767015
66.605 26.914402
66.610 26.42128
66.615 25.903288
66.620 24.881029
66.625 24.827181
66.630 24.882427
66.635 25.009554
66.640 24.352293
66.645 23.97156
66.650 23.823805
66.655 24.251335
66.660 24.100904
66.665 23.131458
66.670 22.892696
66.675 23.942598
66.680 24.496159
66.685 24.37417
66.690 24.011904
66.695 24.333178
66.700 24.946775
66.705 24.600487
66.710 23.805906
66.715 23.146564
66.720 22.827585
66.725 22.196878
66.730 21.089323
66.735 20.562813
66.740 20.311279
66.745 19.844284
66.750 20.100945
66.755 19.910017
66.760 20.22904
66.765 20.69783
66.770 20.594452
66.775 20.539959
66.780 20.595381
66.785 19.978865
66.790 20.531042
66.795 20.455576
66.800 21.11713
66.805 21.936909
66.810 22.068926
66.815 22.616514
66.820 23.285242
66.825 23.067049
66.830 22.515537
66.835 20.810457
66.840 20.044527
66.845 19.829159
66.850 19.072742
66.855 18.094442
66.860 17.334059
66.865 17.7918
66.870 18.355684
66.875 18.627375
66.880 18.571779
66.885 19.043455
66.890 19.867912
66.895 20.51709
66.900 20.814077
66.905 20.403522
66.910 20.147099
66.915 20.010084
66.920 19.967384
66.925 19.775932
66.930 19.596931
66.935 19.282814
66.940 19.61965
66.945 20.140253
66.950 20.018978
66.955 19.558617
66.960 19.117567
66.965 19.094236
66.970 19.012054
66.975 18.646471
66.980 18.376816
66.985 18.71829
66.990 19.147791
66.995 18.879902
67.000 18.759415
67.005 18.995239
67.010 19.10894
67.015 18.982758
67.020 19.314631
67.025 19.460266
67.030 20.262501
67.035 20.474091
67.040 20.326075
67.045 20.086063
67.050 19.895576
67.055 19.633688
67.060 19.867029
67.065 19.034872
67.070 18.788452
67.075 19.052704
67.080 19.584282
67.085 20.227657
67.090 20.110186
67.095 19.770096
67.100 20.702644
67.105 20.889801
67.110 20.98143
67.115 20.675631
67.120 20.634939
67.125 20.634092
67.130 21.015509
67.135 20.852089
67.140 20.583773
67.145 20.652845
67.150 20.672153
67.155 20.529575
67.160 20.57048
67.165 20.406553
67.170 19.839064
67.175 20.039482
67.180 19.506811
67.185 19.258921
67.190 18.88126
67.195 18.695623
67.200 18.355747
67.205 18.192442
67.210 17.811073
67.215 18.147678
67.220 18.640676
67.225 18.573442
67.230 18.168676
67.235 18.154762
67.240 18.138685
67.245 18.306593
67.250 18.061199
67.255 17.633623
67.260 17.689184
67.265 17.596897
67.270 17.29071
67.275 17.803368
67.280 18.071188
67.285 18.378662
67.290 18.610796
67.295 18.734203
67.300 18.764601
67.305 18.820522
67.310 19.064474
67.315 19.192434
67.320 18.68578
67.325 18.451443
67.330 18.402834
67.335 18.514963
67.340 18.729239
67.345 18.522533
67.350 18.560776
67.355 19.252729
67.360 19.961241
67.365 20.092299
67.370 20.319145
67.375 20.682224
67.380 20.608948
67.385 20.482647
67.390 19.895138
67.395 19.647593
67.400 19.835678
67.405 19.988955
67.410 19.878834
67.415 19.399082
67.420 19.460464
67.425 19.734632
67.430 19.634201
67.435 19.609528
67.440 19.730507
67.445 19.826029
67.450 19.574078
67.455 19.546276
67.460 19.266068
67.465 19.270128
67.470 18.916107
67.475 18.937038
67.480 19.143326
67.485 20.315186
67.490 19.778313
67.495 19.756731
67.500 19.94874
67.505 20.372271
67.510 20.211906
67.515 20.28985
67.520 20.021214
67.525 20.631529
67.530 20.671606
67.535 20.471016
67.540 20.003176
67.545 19.718515
67.550 18.995523
67.555 18.742439
67.560 18.666906
67.565 19.361935
67.570 19.162064
67.575 18.921574
67.580 18.780508
67.585 18.283665
67.590 18.682884
67.595 18.400539
67.600 17.983618
67.605 19.101954
67.610 19.99708
67.615 19.928152
67.620 20.290535
67.625 20.470886
67.630 21.203236
67.635 20.997499
67.640 20.148693
67.645 19.779341
67.650 20.089664
67.655 20.128178
67.660 19.596994
67.665 18.822725
67.670 19.003241
67.675 18.677462
67.680 19.030163
67.685 19.871864
67.690 20.049532
67.695 19.595688
67.700 19.758226
67.705 19.402212
67.710 19.414648
67.715 19.391216
67.720 19.328133
67.725 19.787296
67.730 20.461044
67.735 20.372261
67.740 20.560274
67.745 20.967037
67.750 20.405636
67.755 20.098
67.760 19.618671
67.765 19.138212
67.770 19.065613
67.775 19.085926
67.780 18.882872
67.785 19.148115
67.790 18.9631
67.795 18.746761
67.800 19.37677
67.805 19.68321
67.810 19.297527
67.815 18.717808
67.820 18.673866
67.825 18.45858
67.830 18.626488
67.835 17.825718
67.840 17.265371
67.845 17.324324
67.850 17.773668
67.855 17.893385
67.860 18.510553
67.865 18.230274
67.870 18.647198
67.875 19.463339
67.880 20.017378
67.885 19.954811
67.890 19.462076
67.895 19.370699
67.900 19.808397
67.905 19.826904
67.910 19.525909
67.915 19.451178
67.920 19.631618
67.925 19.364216
67.930 18.76535
67.935 18.819075
67.940 19.45179
67.945 19.848337
67.950 19.509062
67.955 19.587996
67.960 19.974813
67.965 20.000933
67.970 19.328577
67.975 18.781183
67.980 18.657595
67.985 18.594124
67.990 18.897327
67.995 18.763077
68.000 18.802284
68.005 19.374647
68.010 18.930595
68.015 18.377705
68.020 18.171707
68.025 18.138693
68.030 17.970829
68.035 17.935387
68.040 18.034569
68.045 18.487396
68.050 18.727652
68.055 18.860043
68.060 18.625708
68.065 19.197859
68.070 18.819571
68.075 18.652132
68.080 18.632845
68.085 19.084686
68.090 18.690521
68.095 18.793303
68.100 18.872417
68.105 20.206898
68.110 20.442001
68.115 20.223108
68.120 20.228718
68.125 20.719896
68.130 20.775251
68.135 20.724548
68.140 20.699678
68.145 20.166182
68.150 19.666315
68.155 18.96089
68.160 18.766977
68.165 18.88096
68.170 18.847061
68.175 18.379074
68.180 18.570606
68.185 19.200041
68.190 19.658871
68.195 19.041851
68.200 18.757729
68.205 18.476196
68.210 18.60289
68.215 18.843315
68.220 18.366486
68.225 18.447454
68.230 18.573584
68.235 18.717566
68.240 19.162586
68.245 19.571234
68.250 19.349676
68.255 19.594528
68.260 19.845476
68.265 20.479725
68.270 20.483179
68.275 20.229774
68.280 19.832355
68.285 20.006042
68.290 19.94482
68.295 20.218155
68.300 20.453627
68.305 20.272802
68.310 19.902025
68.315 20.518776
68.320 20.641109
68.325 20.5732
68.330 20.273338
68.335 19.699219
68.340 19.923656
68.345 20.855728
68.350 20.674585
68.355 20.543047
68.360 20.468336
68.365 20.117231
68.370 20.241734
68.375 20.074707
68.380 19.525274
68.385 18.953959
68.390 18.719944
68.395 18.961136
68.400 19.07687
68.405 19.569902
68.410 19.478636
68.415 18.569893
68.420 19.195576
68.425 20.105127
68.430 19.764669
68.435 19.480078
68.440 18.779703
68.445 18.65102
68.450 19.302593
68.455 19.362246
68.460 18.459473
68.465 18.448547
68.470 18.82445
68.475 19.150967
68.480 19.165009
68.485 19.272099
68.490 18.79027
68.495 18.910284
68.500 19.011837
68.505 18.611971
68.510 18.664724
68.515 18.362385
68.520 18.051054
68.525 18.951347
68.530 19.228632
68.535 19.291149
68.540 20.144934
68.545 20.383755
68.550 20.703568
68.555 21.2292
68.560 21.678959
68.565 22.015995
68.570 22.956915
68.575 22.12888
68.580 21.313395
68.585 20.70904
68.590 19.845362
68.595 18.931044
68.600 18.323402
68.605 17.718159
68.610 18.18255
68.615 18.76329
68.620 19.37521
68.625 19.669506
68.630 20.134819
68.635 20.898932
68.640 21.097256
68.645 21.329306
68.650 21.604324
68.655 21.45747
68.660 21.774755
68.665 21.521978
68.670 20.379536
68.675 20.439484
68.680 20.466944
68.685 19.892818
68.690 19.428307
68.695 19.738634
68.700 19.541393
68.705 20.185236
68.710 19.962059
68.715 19.652214
68.720 19.740965
68.725 20.236155
68.730 20.224211
68.735 20.588642
68.740 20.43429
68.745 20.853168
68.750 21.293205
68.755 21.573095
68.760 20.832972
68.765 20.818777
68.770 20.201832
68.775 19.728666
68.780 19.184483
68.785 19.022446
68.790 18.994907
68.795 19.20805
68.800 19.125868
68.805 20.000221
68.810 20.452766
68.815 21.030216
68.820 21.146856
68.825 21.315359
68.830 21.724213
68.835 21.694391
68.840 21.591316
68.845 21.397516
68.850 20.780085
68.855 20.880236
68.860 20.75931
68.865 20.196449
68.870 20.505125
68.875 20.734888
68.880 20.73032
68.885 20.873974
68.890 20.47743
68.895 21.033718
68.900 21.586519
68.905 21.05422
68.910 21.162371
68.915 21.30891
68.920 22.236372
68.925 22.744301
68.930 22.360905
68.935 22.079405
68.940 22.033199
68.945 21.795374
68.950 21.915234
68.955 21.724623
68.960 21.74604
68.965 21.854647
68.970 22.884464
68.975 23.745556
68.980 24.074116
68.985 23.890135
68.990 24.098747
68.995 24.234379
69.000 24.763874
69.005 24.328028
69.010 23.946791
69.015 24.427197
69.020 24.735262
69.025 24.819616
69.030 24.434313
69.035 24.110357
69.040 24.171194
69.045 24.926329
69.050 24.562752
69.055 24.237257
69.060 24.247646
69.065 25.335781
69.070 25.505177
69.075 25.402166
69.080 24.585217
69.085 24.454481
69.090 24.504133
69.095 24.417393
69.100 24.465754
69.105 24.507227
69.110 24.805305
69.115 24.860584
69.120 25.469707
69.125 25.597086
69.130 26.223497
69.135 26.529259
69.140 26.274832
69.145 27.04468
69.150 28.197983
69.155 28.707556
69.160 28.607258
69.165 27.775896
69.170 27.801464
69.175 28.518463
69.180 28.077362
69.185 27.711868
69.190 27.691938
69.195 28.308275
69.200 28.602097
69.205 28.899227
69.210 29.428602
69.215 28.861914
69.220 28.810005
69.225 28.108734
69.230 27.461592
69.235 26.958632
69.240 26.900909
69.245 27.15114
69.250 27.341028
69.255 27.882547
69.260 29.21517
69.265 30.033424
69.270 31.157345
69.275 30.068918
69.280 29.66361
69.285 30.183884
69.290 30.137678
69.295 29.842272
69.300 30.224859
69.305 29.693995
69.310 30.444687
69.315 31.167788
69.320 31.349817
69.325 31.436176
69.330 30.993299
69.335 30.831015
69.340 31.490597
69.345 31.360987
69.350 31.704838
69.355 31.200666
69.360 30.96052
69.365 31.162716
69.370 31.48143
69.375 31.424263
69.380 31.639631
69.385 31.917953
69.390 32.719471
69.395 32.977482
69.400 33.021454
69.405 32.49324
69.410 32.991112
69.415 32.675243
69.420 31.761074
69.425 31.258757
69.430 31.570122
69.435 32.050697
69.440 32.910858
69.445 32.831505
69.450 33.441818
69.455 33.791618
69.460 33.992664
69.465 34.211472
69.470 34.413612
69.475 34.703075
69.480 35.119408
69.485 35.323357
69.490 34.836349
69.495 35.093525
69.500 34.630573
69.505 33.715755
69.510 33.052254
69.515 32.932785
69.520 32.90752
69.525 32.98444
69.530 32.582901
69.535 32.423378
69.540 32.510471
69.545 32.251743
69.550 32.345028
69.555 31.894625
69.560 32.24403
69.565 32.34219
69.570 32.964188
69.575 33.285141
69.580 32.891365
69.585 32.894871
69.590 33.864346
69.595 34.213799
69.600 34.496628
69.605 34.147057
69.610 33.729221
69.615 33.872341
69.620 33.742409
69.625 33.709324
69.630 33.095009
69.635 32.607006
69.640 32.07053
69.645 31.865734
69.650 31.680262
69.655 31.294277
69.660 30.403061
69.665 30.672085
69.670 30.929314
69.675 31.490574
69.680 31.373621
69.685 31.180407
69.690 30.506376
69.695 30.65111
69.700 30.180752
69.705 29.285656
69.710 29.191509
69.715 28.779776
69.720 28.616701
69.725 28.466749
69.730 28.468874
69.735 28.513578
69.740 28.831783
69.745 28.867552
69.750 29.14076
69.755 28.581898
69.760 28.395023
69.765 28.026199
69.770 27.841051
69.775 27.544207
69.780 27.206276
69.785 27.737766
69.790 28.578606
69.795 28.698015
69.800 27.674555
69.805 27.475992
69.810 27.430904
69.815 27.73962
69.820 26.878077
69.825 26.291414
69.830 26.326176
69.835 26.572361
69.840 26.456654
69.845 25.949314
69.850 24.897594
69.855 24.599449
69.860 23.91819
69.865 23.473383
69.870 23.563665
69.875 23.94054
69.880 23.825811
69.885 23.895018
69.890 24.101965
69.895 24.353569
69.900 24.180975
69.905 24.403454
69.910 24.128662
69.915 23.992268
69.920 24.113445
69.925 23.779863
69.930 24.248867
69.935 24.454769
69.940 23.890434
69.945 24.455008
69.950 24.802181
69.955 24.442923
69.960 24.28301
69.965 24.088276
69.970 23.948887
69.975 23.044954
69.980 22.440283
69.985 22.329828
69.990 23.460886
69.995 23.800125
70.000 22.738668
70.005 22.558542
70.010 22.693766
70.015 21.893246
70.020 21.248722
70.025 20.31568
70.030 19.98987
70.035 20.142939
70.040 20.571632
70.045 20.703218
70.050 20.508078
70.055 20.05765
70.060 19.660812
70.065 19.215563
70.070 19.363821
70.075 19.335283
70.080 19.401661
70.085 19.682119
70.090 19.859259
70.095 20.027784
70.100 20.521379
70.105 20.59338
70.110 20.487894
70.115 20.715965
70.120 21.365835
70.125 21.89747
70.130 21.946711
70.135 22.115746
70.140 21.566648
70.145 21.72929
70.150 21.563698
70.155 21.684839
70.160 21.163229
70.165 20.712778
70.170 20.639019
70.175 20.691496
70.180 20.385233
70.185 20.574039
70.190 20.158957
70.195 20.293476
70.200 20.098158
70.205 19.493286
70.210 19.493494
70.215 19.511181
70.220 19.228436
70.225 19.440197
70.230 19.719007
70.235 19.64226
70.240 18.990681
70.245 19.090342
70.250 19.545753
70.255 19.317591
70.260 18.566603
70.265 18.228817
70.270 18.207197
70.275 18.828714
70.280 18.376759
70.285 17.82168
70.290 17.867704
70.295 18.416008
70.300 18.295023
70.305 19.029982
70.310 19.371286
70.315 19.570633
70.320 20.00493
70.325 20.29204
70.330 19.998423
70.335 19.836956
70.340 19.738153
70.345 19.535021
70.350 19.246227
70.355 18.80134
70.360 18.696632
70.365 18.788515
70.370 19.169586
70.375 19.083838
70.380 19.191982
70.385 19.090914
70.390 18.936041
70.395 18.723972
70.400 18.785479
70.405 18.3076
70.410 18.384289
70.415 18.085545
70.420 18.058266
70.425 18.075243
70.430 18.345127
70.435 18.765751
70.440 19.25
70.445 19.094286
70.450 19.376211
70.455 19.44993
70.460 19.599207
70.465 20.110157
70.470 19.976294
70.475 19.846216
70.480 19.529333
70.485 18.953493
70.490 18.778618
70.495 19.081644
70.500 18.872564
70.505 19.127251
70.510 19.191311
70.515 19.5494
70.520 20.44883
70.525 20.133663
70.530 19.838499
70.535 19.684439
70.540 19.40519
70.545 19.164625
70.550 19.41905
70.555 19.478365
70.560 19.753811
70.565 19.599915
70.570 19.442997
70.575 18.925003
70.580 19.016859
70.585 18.496143
70.590 18.353676
70.595 18.701246
70.600 19.246805
70.605 19.279791
70.610 19.816402
70.615 19.91288
70.620 20.017712
70.625 19.95439
70.630 19.276764
70.635 18.803312
70.640 18.706167
70.645 18.029766
70.650 17.27688
70.655 16.710323
70.660 16.407343
70.665 16.049677
70.670 16.317047
70.675 16.279144
70.680 16.866493
70.685 17.357128
70.690 18.171177
70.695 18.002798
70.700 18.268066
70.705 18.802025
70.710 18.877541
70.715 18.675779
70.720 19.124882
70.725 19.260851
70.730 20.055683
70.735 19.608452
70.740 19.091675
70.745 19.507956
70.750 19.226395
70.755 18.435884
70.760 17.825678
70.765 17.562672
70.770 17.944233
70.775 17.865429
70.780 16.985643
70.785 16.848337
70.790 16.901936
70.795 17.110556
70.800 17.242065
70.805 16.316978
70.810 16.38126
70.815 16.908617
70.820 17.678854
70.825 17.376135
70.830 17.143459
70.835 16.914633
70.840 17.432501
70.845 17.107615
70.850 16.783695
70.855 16.07494
70.860 15.8929
70.865 16.194572
70.870 16.351038
70.875 16.473124
70.880 16.809475
70.885 17.387527
70.890 18.197083
70.895 18.645473
70.900 18.501207
70.905 18.161425
70.910 18.453327
70.915 17.972071
70.920 17.940838
70.925 17.91637
70.930 17.953959
70.935 18.155878
70.940 18.661011
70.945 19.114813
70.950 19.368418
70.955 19.41783
70.960 18.659519
70.965 19.12258
70.970 19.359167
70.975 19.084219
70.980 18.564373
70.985 18.450579
70.990 18.467419
70.995 18.427433
71.000 17.818005
71.005 18.054375
71.010 17.527853
71.015 17.518904
71.020 17.504013
71.025 17.762308
71.030 17.874905
71.035 17.160515
71.040 17.045029
71.045 17.324083
71.050 17.682362
71.055 17.571945
71.060 17.509005
71.065 17.65122
71.070 17.777044
71.075 17.490263
71.080 17.325624
71.085 17.258183
71.090 17.311516
71.095 17.707989
71.100 17.824226
71.105 18.683414
71.110 19.087132
71.115 19.338089
71.120 19.293736
71.125 18.876646
71.130 18.81963
71.135 18.231306
71.140 17.774729
71.145 17.915762
71.150 17.827593
71.155 17.761841
71.160 18.313707
71.165 18.322582
71.170 18.559671
71.175 18.716261
71.180 18.633595
71.185 18.391956
71.190 18.446125
71.195 17.989256
71.200 18.165491
71.205 18.440306
71.210 18.933809
71.215 18.638779
71.220 18.690279
71.225 18.254082
71.230 18.411114
71.235 18.841206
71.240 18.654003
71.245 18.669521
71.250 19.163492
71.255 19.405424
71.260 19.503563
71.265 19.404337
71.270 18.837471
71.275 18.797392
71.280 18.041145
71.285 18.076311
71.290 18.117891
71.295 18.190273
71.300 17.625719
71.305 17.087629
71.310 16.914463
71.315 17.546206
71.320 17.325052
71.325 16.70105
71.330 16.868368
71.335 17.363743
71.340 17.723909
71.345 17.5037
71.350 17.032421
71.355 16.94631
71.360 17.191181
71.365 16.565355
71.370 16.442244
71.375 16.2395
71.380 16.240772
71.385 16.125999
71.390 16.13451
71.395 16.356312
71.400 17.056742
71.405 17.872076
71.410 18.332104
71.415 18.525518
71.420 18.762848
71.425 19.061672
71.430 19.314821
71.435 19.172132
71.440 18.702162
71.445 18.182543
71.450 18.008297
71.455 17.858616
71.460 17.654249
71.465 17.661705
71.470 17.201933
71.475 17.158966
71.480 17.312145
71.485 17.743347
71.490 17.798676
71.495 18.198294
71.500 18.420506
71.505 18.684767
71.510 18.750187
71.515 19.152431
71.520 19.538778
71.525 19.872011
71.530 19.631832
71.535 19.31951
71.540 19.402338
71.545 19.314074
71.550 19.114502
71.555 18.565901
71.560 18.394777
71.565 18.436041
71.570 18.601843
71.575 19.042788
71.580 19.121981
71.585 19.017092
71.590 19.492212
71.595 19.357832
71.600 19.091965
71.605 19.12142
71.610 18.706533
71.615 18.768276
71.620 18.758274
71.625 17.939041
71.630 17.671219
71.635 17.746204
71.640 18.131811
71.645 18.413752
71.650 17.90263
71.655 17.424826
71.660 17.720926
71.665 17.936953
71.670 17.401352
71.675 17.277374
71.680 16.894802
71.685 17.175035
71.690 17.883127
71.695 17.865753
71.700 17.766991
71.705 18.026705
71.710 18.041613
71.715 18.287075
71.720 18.50444
71.725 18.439173
71.730 18.676945
71.735 19.110025
71.740 19.315222
71.745 19.32954
71.750 19.009964
71.755 18.479668
71.760 18.045309
71.765 17.850847
71.770 17.739761
71.775 17.432972
71.780 17.30541
71.785 17.436382
71.790 17.835331
71.795 17.686331
71.800 17.755695
71.805 17.813623
71.810 17.982285
71.815 17.632498
71.820 17.190775
71.825 17.598661
71.830 17.890707
71.835 18.098013
71.840 17.981518
71.845 17.995886
71.850 18.434111
71.855 18.488258
71.860 17.980869
71.865 17.493017
71.870 17.373222
71.875 17.805334
71.880 17.85548
71.885 18.049332
71.890 18.437403
71.895 18.519407
71.900 19.097427
71.905 19.282722
71.910 18.660919
71.915 18.639948
71.920 18.849657
71.925 19.091869
71.930 19.731129
71.935 19.448671
71.940 19.132738
71.945 19.513386
71.950 19.238901
71.955 18.514927
71.960 18.264214
71.965 18.006271
71.970 17.776812
71.975 17.360945
71.980 17.104763
71.985 17.354391
71.990 17.565636
71.995 17.229738
72.000 16.973465
72.005 17.21125
72.010 17.187208
72.015 17.320526
72.020 17.471277
72.025 16.991175
72.030 16.935387
72.035 17.531155
72.040 17.238224
72.045 17.705204
72.050 17.338844
72.055 17.261147
72.060 17.740286
72.065 17.194435
72.070 16.452429
72.075 16.738754
72.080 16.958769
72.085 17.464182
72.090 17.821844
72.095 17.84935
72.100 18.01506
72.105 18.378912
72.110 17.967482
72.115 17.81068
72.120 17.509874
72.125 17.444162
72.130 17.787737
72.135 17.696175
72.140 17.565752
72.145 17.445862
72.150 17.284531
72.155 16.692686
72.160 16.631413
72.165 16.555155
72.170 16.467567
72.175 16.275394
72.180 16.012056
72.185 16.634771
72.190 16.719406
72.195 16.530149
72.200 16.507231
72.205 16.588131
72.210 16.987326
72.215 17.161674
72.220 16.611929
72.225 16.744326
72.230 17.113886
72.235 17.215103
72.240 17.204905
72.245 16.907784
72.250 16.920506
72.255 16.649353
72.260 16.223236
72.265 15.773882
72.270 15.658287
72.275 15.457024
72.280 15.954631
72.285 16.665646
72.290 17.157099
72.295 17.762501
72.300 17.775436
72.305 18.199677
72.310 18.560871
72.315 18.256393
72.320 18.07044
72.325 17.614426
72.330 17.917521
72.335 18.19072
72.340 17.741589
72.345 17.977369
72.350 18.71595
72.355 18.804611
72.360 19.152798
72.365 18.821571
72.370 18.930338
72.375 19.003012
72.380 18.324766
72.385 17.470144
72.390 17.175543
72.395 16.719423
72.400 16.491972
72.405 16.11216
72.410 16.321346
72.415 17.041651
72.420 17.306932
72.425 17.572906
72.430 18.204506
72.435 18.610746
72.440 19.140726
72.445 19.39595
72.450 19.636442
72.455 18.849989
72.460 18.261204
72.465 17.899452
72.470 17.608391
72.475 16.919649
72.480 16.173222
72.485 15.671931
72.490 16.362074
72.495 16.664827
72.500 16.240746
72.505 15.735784
72.510 15.392997
72.515 15.673896
72.520 15.848624
72.525 15.913057
72.530 16.606401
72.535 16.94713
72.540 17.266285
72.545 17.623928
72.550 17.911478
72.555 18.611141
72.560 17.997931
72.565 17.944092
72.570 18.536037
72.575 18.679153
72.580 18.919851
72.585 18.829605
72.590 18.324493
72.595 18.56555
72.600 18.865459
72.605 19.291866
72.610 19.425985
72.615 18.917009
72.620 19.043772
72.625 19.039682
72.630 18.657833
72.635 18.273727
72.640 17.909567
72.645 18.05542
72.650 17.708185
72.655 17.652521
72.660 17.902514
72.665 17.850288
72.670 18.384768
72.675 18.361879
72.680 18.289204
72.685 18.129192
72.690 18.521786
72.695 18.814062
72.700 18.328497
72.705 16.992418
72.710 16.980604
72.715 17.063093
72.720 16.657911
72.725 15.392661
72.730 15.117179
72.735 15.413872
72.740 15.855784
72.745 15.512093
72.750 15.525404
72.755 16.157227
72.760 16.704605
72.765 17.021631
72.770 17.342556
72.775 17.575563
72.780 17.724422
72.785 17.207151
72.790 16.570667
72.795 16.841785
72.800 16.777874
72.805 16.485546
72.810 16.665682
72.815 17.137362
72.820 17.421282
72.825 17.830204
72.830 17.172697
72.835 17.285984
72.840 17.378288
72.845 16.540188
72.850 16.811623
72.855 17.092997
72.860 16.842789
72.865 17.160194
72.870 17.231068
72.875 16.977224
72.880 17.375704
72.885 16.952986
72.890 17.229975
72.895 18.126568
72.900 17.795296
72.905 18.150286
72.910 18.69248
72.915 18.446569
72.920 18.751961
72.925 18.037066
72.930 17.788326
72.935 18.004471
72.940 18.026203
72.945 18.085922
72.950 17.499359
72.955 17.384928
72.960 17.11157
72.965 17.029949
72.970 16.779139
72.975 16.195572
72.980 15.929869
72.985 16.028561
72.990 16.239885
72.995 16.192432
73.000 16.756868
