!@!!GADDS PLOTSO FILE: Chi integration type
!@!!Title/SampleName: map-9f
!@!!Comment: ?
!@!!User: Bruker Instrument Administrator
!@!!Site: University of Illinois Chicago
!@!!Frame: map-9f_01_000.gfrm
!@!!Wavelengths    1.54184   1.54056   1.54439
!@!!Frame angles: 2Theta: 63.000 Omega: 50.000 Phi: 0.000 Chi: 90.000
!@!!Integration range: 2Theta: 53.000 to 73.000  Gamma: -105.000 to -75.000
!@!!Integration method: bin normalized
!@!N
!@!SS
!@!M
!@!L 0.0 0.0 0.0 0.0
!@!XDegrees
!@!YCounts
53.000 9.092961
53.005 8.943279
53.010 9.012023
53.015 8.803364
53.020 8.620382
53.025 8.304789
53.030 8.227319
53.035 7.590435
53.040 7.492126
53.045 7.235322
53.050 7.199984
53.055 7.303789
53.060 7.486742
53.065 7.806392
53.070 8.197717
53.075 8.317054
53.080 8.497788
53.085 8.517757
53.090 8.229448
53.095 7.878233
53.100 8.117356
53.105 8.119535
53.110 8.558603
53.115 8.176716
53.120 8.420767
53.125 9.032047
53.130 9.07726
53.135 8.593921
53.140 8.13479
53.145 7.754324
53.150 8.195838
53.155 7.997548
53.160 7.583932
53.165 7.712184
53.170 8.180779
53.175 8.614016
53.180 8.725754
53.185 8.619002
53.190 8.603677
53.195 8.782911
53.200 8.753569
53.205 8.731204
53.210 8.499306
53.215 8.613764
53.220 8.722878
53.225 8.555939
53.230 8.320884
53.235 8.182424
53.240 7.989458
53.245 8.170383
53.250 8.041544
53.255 8.071398
53.260 8.090989
53.265 7.949174
53.270 7.896177
53.275 7.943836
53.280 8.035526
53.285 7.645246
53.290 7.675051
53.295 7.651376
53.300 7.785205
53.305 7.885329
53.310 7.798967
53.315 7.653753
53.320 7.920752
53.325 8.049493
53.330 8.148744
53.335 7.770865
53.340 7.780985
53.345 8.288807
53.350 8.582141
53.355 8.825499
53.360 8.698677
53.365 9.093735
53.370 9.534459
53.375 9.48465
53.380 9.025463
53.385 8.805798
53.390 8.547744
53.395 8.317648
53.400 8.091605
53.405 7.925197
53.410 8.17516
53.415 8.436876
53.420 8.643209
53.425 9.203259
53.430 9.571212
53.435 9.615763
53.440 9.662651
53.445 9.378139
53.450 8.745682
53.455 8.0826
53.460 7.599884
53.465 7.612687
53.470 6.984689
53.475 6.65579
53.480 6.666915
53.485 7.308358
53.490 7.57955
53.495 7.662349
53.500 7.90317
53.505 8.26093
53.510 8.437637
53.515 8.359138
53.520 8.800504
53.525 8.962012
53.530 8.998494
53.535 9.551357
53.540 9.398511
53.545 9.494975
53.550 9.449739
53.555 9.087908
53.560 9.43165
53.565 8.801301
53.570 8.032224
53.575 7.898574
53.580 7.992514
53.585 8.004604
53.590 7.728818
53.595 7.553283
53.600 8.178977
53.605 8.618952
53.610 9.158596
53.615 9.070928
53.620 9.470147
53.625 9.998552
53.630 9.911241
53.635 9.517618
53.640 9.393618
53.645 8.909746
53.650 8.462386
53.655 8.365161
53.660 8.163554
53.665 8.35931
53.670 8.644696
53.675 8.665416
53.680 9.163244
53.685 9.496354
53.690 9.515845
53.695 9.61758
53.700 9.635853
53.705 10.070593
53.710 10.099394
53.715 9.755668
53.720 9.48877
53.725 9.147008
53.730 8.753888
53.735 8.700415
53.740 8.395141
53.745 8.254124
53.750 8.59413
53.755 8.712868
53.760 9.078665
53.765 9.098272
53.770 8.713402
53.775 8.562634
53.780 8.545166
53.785 8.511114
53.790 8.29692
53.795 7.898206
53.800 7.943605
53.805 8.196362
53.810 8.30566
53.815 8.388439
53.820 8.213119
53.825 9.031449
53.830 9.769986
53.835 9.878859
53.840 10.002727
53.845 10.095926
53.850 10.491856
53.855 10.601199
53.860 9.974608
53.865 9.987048
53.870 9.959164
53.875 9.889093
53.880 9.838947
53.885 9.160363
53.890 8.95669
53.895 8.848795
53.900 8.289453
53.905 8.465015
53.910 8.692287
53.915 8.992775
53.920 9.751954
53.925 10.119534
53.930 10.151858
53.935 10.217237
53.940 9.691752
53.945 9.717261
53.950 9.781944
53.955 9.566997
53.960 9.570373
53.965 9.128963
53.970 9.293178
53.975 9.847859
53.980 9.740316
53.985 9.218378
53.990 8.478311
53.995 8.872659
54.000 9.527011
54.005 9.317739
54.010 8.270642
54.015 7.977618
54.020 8.0966
54.025 8.376001
54.030 7.938919
54.035 7.650527
54.040 8.067927
54.045 8.531387
54.050 8.59369
54.055 8.714978
54.060 8.709283
54.065 8.992831
54.070 8.956798
54.075 8.778611
54.080 9.059218
54.085 8.942032
54.090 9.109169
54.095 8.86408
54.100 8.871252
54.105 9.337461
54.110 9.474624
54.115 9.34382
54.120 9.238771
54.125 9.267025
54.130 9.485396
54.135 9.62013
54.140 9.674864
54.145 9.829574
54.150 9.883255
54.155 10.091887
54.160 9.939981
54.165 9.8926
54.170 9.632826
54.175 9.391406
54.180 9.173782
54.185 9.415216
54.190 9.511289
54.195 9.34219
54.200 9.35686
54.205 9.23278
54.210 9.218209
54.215 8.879436
54.220 8.867592
54.225 8.975285
54.230 8.875761
54.235 9.31964
54.240 9.089364
54.245 8.969554
54.250 9.344928
54.255 9.224452
54.260 9.470208
54.265 9.499022
54.270 9.974277
54.275 10.445755
54.280 10.588065
54.285 10.708489
54.290 10.644959
54.295 10.904229
54.300 10.822789
54.305 9.985538
54.310 9.966064
54.315 9.541261
54.320 9.161189
54.325 9.018764
54.330 8.627355
54.335 8.726591
54.340 9.191278
54.345 9.502058
54.350 10.016468
54.355 10.304049
54.360 10.453068
54.365 10.361989
54.370 10.025742
54.375 9.719978
54.380 9.673337
54.385 9.375594
54.390 8.835831
54.395 8.802928
54.400 8.894738
54.405 8.68095
54.410 8.727751
54.415 8.594697
54.420 8.798726
54.425 9.134309
54.430 9.208363
54.435 9.423182
54.440 9.688014
54.445 9.299967
54.450 9.176125
54.455 9.08266
54.460 9.106453
54.465 9.15875
54.470 9.264239
54.475 9.046743
54.480 9.498591
54.485 9.918625
54.490 10.470083
54.495 10.115171
54.500 9.767302
54.505 9.696612
54.510 9.904483
54.515 9.684078
54.520 9.351108
54.525 9.392677
54.530 9.638338
54.535 10.185967
54.540 10.541086
54.545 10.54094
54.550 10.381642
54.555 10.53843
54.560 10.727182
54.565 10.59223
54.570 10.094815
54.575 9.71575
54.580 9.917239
54.585 9.651159
54.590 9.348213
54.595 9.033787
54.600 8.946519
54.605 9.008801
54.610 8.809475
54.615 8.935193
54.620 9.0927
54.625 8.923807
54.630 8.638298
54.635 8.576711
54.640 8.918672
54.645 9.226013
54.650 9.47564
54.655 9.505157
54.660 9.654671
54.665 10.182111
54.670 10.097715
54.675 9.576906
54.680 9.476929
54.685 9.0212
54.690 8.912362
54.695 8.877382
54.700 8.660542
54.705 8.774911
54.710 9.555323
54.715 9.567994
54.720 9.407604
54.725 9.371029
54.730 9.076287
54.735 9.398595
54.740 9.468298
54.745 9.218865
54.750 9.428465
54.755 9.885001
54.760 10.143806
54.765 10.656061
54.770 10.594531
54.775 10.694737
54.780 10.587243
54.785 10.690014
54.790 10.850157
54.795 10.753977
54.800 10.691244
54.805 10.58899
54.810 10.457506
54.815 10.55048
54.820 10.178377
54.825 9.793714
54.830 9.986528
54.835 9.878862
54.840 9.968351
54.845 10.10999
54.850 9.840895
54.855 9.703625
54.860 9.859086
54.865 9.515168
54.870 9.686906
54.875 9.38556
54.880 8.879177
54.885 9.140757
54.890 9.261367
54.895 9.075505
54.900 8.918562
54.905 8.552448
54.910 8.823906
54.915 9.115191
54.920 9.158124
54.925 8.716557
54.930 8.793691
54.935 9.40209
54.940 9.335459
54.945 9.488443
54.950 9.569438
54.955 9.814757
54.960 10.229865
54.965 10.014883
54.970 9.968768
54.975 10.002381
54.980 10.221571
54.985 10.258026
54.990 10.301671
54.995 10.315081
55.000 10.424845
55.005 10.086924
55.010 10.167324
55.015 10.343081
55.020 10.587603
55.025 10.504509
55.030 10.378413
55.035 10.566542
55.040 11.130494
55.045 10.828023
55.050 9.981978
55.055 9.456964
55.060 9.322233
55.065 9.32117
55.070 9.235592
55.075 9.287163
55.080 9.866175
55.085 10.062235
55.090 10.268744
55.095 10.715439
55.100 10.973209
55.105 10.717855
55.110 10.642017
55.115 10.533733
55.120 10.74103
55.125 10.553308
55.130 10.676972
55.135 10.822521
55.140 10.609451
55.145 10.386914
55.150 10.439539
55.155 10.100088
55.160 10.11523
55.165 10.287077
55.170 9.963791
55.175 9.719249
55.180 9.463106
55.185 9.229538
55.190 9.134928
55.195 8.811693
55.200 8.453204
55.205 9.003592
55.210 9.658496
55.215 9.953171
55.220 10.099853
55.225 10.279398
55.230 9.677304
55.235 9.830872
55.240 9.594748
55.245 9.259482
55.250 9.268799
55.255 9.163863
55.260 9.464366
55.265 10.011814
55.270 9.908752
55.275 10.200693
55.280 10.44237
55.285 10.571239
55.290 10.737245
55.295 10.69628
55.300 10.279766
55.305 10.217621
55.310 9.718202
55.315 9.516994
55.320 9.664258
55.325 9.661646
55.330 9.720228
55.335 10.346192
55.340 10.683989
55.345 10.950861
55.350 11.26509
55.355 10.969607
55.360 11.327273
55.365 11.303458
55.370 11.761924
55.375 11.516136
55.380 11.415336
55.385 11.284783
55.390 11.740602
55.395 12.215785
55.400 11.879505
55.405 11.318923
55.410 11.503921
55.415 11.654731
55.420 11.926219
55.425 11.601832
55.430 11.409873
55.435 11.474681
55.440 11.323694
55.445 11.178534
55.450 11.235552
55.455 11.319455
55.460 11.443205
55.465 11.499081
55.470 11.927766
55.475 11.874075
55.480 12.149086
55.485 11.835087
55.490 12.11519
55.495 11.291578
55.500 11.10563
55.505 10.86943
55.510 10.791828
55.515 10.453748
55.520 10.584901
55.525 10.116651
55.530 10.187305
55.535 10.589449
55.540 10.735486
55.545 11.111806
55.550 11.25272
55.555 11.153336
55.560 11.657006
55.565 11.798652
55.570 11.223409
55.575 11.379884
55.580 11.570271
55.585 11.3504
55.590 10.932716
55.595 10.43315
55.600 10.024653
55.605 9.656013
55.610 9.327627
55.615 9.054929
55.620 9.690059
55.625 10.365748
55.630 11.044588
55.635 11.472328
55.640 11.436385
55.645 11.687709
55.650 11.642014
55.655 11.48401
55.660 10.76476
55.665 10.015012
55.670 10.136287
55.675 9.911288
55.680 9.310539
55.685 9.169152
55.690 8.969543
55.695 9.165365
55.700 9.472785
55.705 9.23269
55.710 9.750567
55.715 10.217023
55.720 10.611582
55.725 10.835868
55.730 10.844163
55.735 11.132058
55.740 11.622233
55.745 11.765117
55.750 11.6471
55.755 11.42513
55.760 11.046193
55.765 11.205891
55.770 11.58781
55.775 11.226124
55.780 10.815096
55.785 10.583381
55.790 10.484708
55.795 10.729893
55.800 10.889379
55.805 10.876349
55.810 11.249461
55.815 11.40817
55.820 11.684171
55.825 11.559588
55.830 11.58478
55.835 11.412576
55.840 11.127316
55.845 11.286049
55.850 11.770889
55.855 11.571276
55.860 11.399093
55.865 11.397766
55.870 11.330567
55.875 11.786911
55.880 11.884258
55.885 11.864683
55.890 12.299195
55.895 12.753632
55.900 12.867863
55.905 12.461319
55.910 11.634783
55.915 11.236969
55.920 11.16784
55.925 11.08292
55.930 11.164611
55.935 11.555105
55.940 11.68046
55.945 12.638332
55.950 12.975164
55.955 12.902265
55.960 12.999767
55.965 12.912626
55.970 12.566611
55.975 12.352274
55.980 11.720065
55.985 11.59764
55.990 11.427731
55.995 11.277815
56.000 10.820359
56.005 11.053983
56.010 11.407661
56.015 11.804513
56.020 11.324101
56.025 11.192376
56.030 11.48934
56.035 11.286442
56.040 10.694234
56.045 10.669663
56.050 10.499456
56.055 11.010322
56.060 10.920297
56.065 10.859496
56.070 11.016863
56.075 11.511305
56.080 11.331506
56.085 11.008649
56.090 10.838206
56.095 10.724404
56.100 10.438045
56.105 10.559476
56.110 10.390366
56.115 10.32957
56.120 10.668994
56.125 11.481166
56.130 11.89504
56.135 12.095401
56.140 12.072054
56.145 12.012144
56.150 12.063692
56.155 11.947701
56.160 11.756728
56.165 11.870505
56.170 12.458433
56.175 12.506073
56.180 11.921882
56.185 11.800172
56.190 11.879889
56.195 11.844354
56.200 11.723381
56.205 11.230021
56.210 11.201153
56.215 11.938494
56.220 12.03581
56.225 11.831829
56.230 11.803917
56.235 11.612653
56.240 11.761621
56.245 12.187637
56.250 12.627192
56.255 12.331331
56.260 12.16393
56.265 12.289798
56.270 12.12397
56.275 12.581747
56.280 12.163527
56.285 11.641416
56.290 11.956431
56.295 12.299744
56.300 12.31213
56.305 12.372205
56.310 11.80909
56.315 11.697157
56.320 11.562927
56.325 11.716544
56.330 11.228492
56.335 11.152025
56.340 10.816147
56.345 10.784575
56.350 11.354462
56.355 11.698191
56.360 11.563682
56.365 11.709203
56.370 11.64252
56.375 11.548372
56.380 11.382003
56.385 11.317618
56.390 10.895838
56.395 10.608795
56.400 10.952721
56.405 11.205061
56.410 11.823873
56.415 12.338428
56.420 12.215796
56.425 12.235632
56.430 12.482187
56.435 12.173982
56.440 12.211651
56.445 12.440122
56.450 12.114829
56.455 11.761014
56.460 11.760412
56.465 11.814123
56.470 12.01731
56.475 11.92124
56.480 11.50009
56.485 11.835388
56.490 12.683381
56.495 12.865668
56.500 13.193337
56.505 13.107718
56.510 13.241561
56.515 12.790135
56.520 12.465567
56.525 12.126952
56.530 11.756934
56.535 11.081376
56.540 11.101611
56.545 11.122351
56.550 11.586218
56.555 11.660393
56.560 12.392025
56.565 12.324117
56.570 12.550307
56.575 12.462635
56.580 12.592816
56.585 12.310647
56.590 11.826689
56.595 11.559875
56.600 11.750581
56.605 11.512209
56.610 11.814422
56.615 12.411585
56.620 12.946591
56.625 12.991416
56.630 12.936065
56.635 13.042527
56.640 13.005924
56.645 12.517981
56.650 11.895059
56.655 11.54252
56.660 11.533988
56.665 11.376806
56.670 11.207856
56.675 10.819543
56.680 11.22817
56.685 11.413346
56.690 11.383699
56.695 11.30625
56.700 11.45676
56.705 11.852112
56.710 12.341052
56.715 12.220549
56.720 12.626549
56.725 12.645815
56.730 12.529918
56.735 12.237593
56.740 12.083961
56.745 11.826776
56.750 11.68485
56.755 11.569181
56.760 12.294953
56.765 12.981527
56.770 13.144435
56.775 13.452021
56.780 13.424564
56.785 13.130365
56.790 13.057913
56.795 12.326546
56.800 11.787902
56.805 11.788233
56.810 11.872087
56.815 11.958243
56.820 11.893581
56.825 11.391496
56.830 11.19281
56.835 11.27435
56.840 11.963778
56.845 12.054457
56.850 11.885663
56.855 12.043552
56.860 12.556118
56.865 13.361207
56.870 13.420141
56.875 12.978886
56.880 12.814397
56.885 13.136177
56.890 13.405657
56.895 13.402588
56.900 12.968229
56.905 12.791342
56.910 12.250826
56.915 12.099165
56.920 11.781143
56.925 11.630058
56.930 11.217126
56.935 10.728735
56.940 10.762905
56.945 11.400531
56.950 11.861969
56.955 12.072044
56.960 12.393764
56.965 12.536396
56.970 12.974644
56.975 13.140643
56.980 12.972987
56.985 12.634489
56.990 12.470761
56.995 12.572073
57.000 12.74299
57.005 12.726161
57.010 12.513283
57.015 12.638378
57.020 12.530549
57.025 12.335971
57.030 12.08486
57.035 12.099719
57.040 12.170459
57.045 12.738326
57.050 13.011374
57.055 13.757675
57.060 13.972458
57.065 13.837302
57.070 13.51879
57.075 13.297438
57.080 12.776977
57.085 12.16106
57.090 12.000483
57.095 11.94172
57.100 12.16754
57.105 12.58014
57.110 12.248634
57.115 12.202327
57.120 12.336689
57.125 12.080482
57.130 12.559582
57.135 12.948783
57.140 12.891272
57.145 12.680608
57.150 12.406414
57.155 12.175868
57.160 11.915291
57.165 11.597857
57.170 11.066825
57.175 11.716033
57.180 12.523895
57.185 12.102913
57.190 12.69377
57.195 13.305772
57.200 13.66326
57.205 14.292367
57.210 13.646742
57.215 13.717023
57.220 13.847475
57.225 13.093385
57.230 12.407339
57.235 11.75302
57.240 11.405136
57.245 11.405882
57.250 11.323891
57.255 11.791768
57.260 12.298491
57.265 12.68543
57.270 13.249445
57.275 13.654767
57.280 13.423926
57.285 13.618695
57.290 13.609748
57.295 13.791595
57.300 13.850213
57.305 13.329883
57.310 13.388998
57.315 13.590209
57.320 13.250329
57.325 12.883884
57.330 12.540709
57.335 12.382606
57.340 12.401978
57.345 11.788613
57.350 11.503591
57.355 11.950182
57.360 12.215028
57.365 12.381639
57.370 12.746122
57.375 12.916311
57.380 13.659189
57.385 14.080936
57.390 14.062235
57.395 14.043941
57.400 13.86709
57.405 13.468359
57.410 13.576282
57.415 13.233027
57.420 13.374153
57.425 13.409688
57.430 13.10509
57.435 13.09915
57.440 13.380704
57.445 13.586745
57.450 13.935973
57.455 13.659728
57.460 13.978905
57.465 14.525899
57.470 14.487696
57.475 14.157307
57.480 13.920035
57.485 13.950521
57.490 14.027373
57.495 13.658389
57.500 13.56779
57.505 13.424514
57.510 13.243057
57.515 13.469511
57.520 13.276059
57.525 13.070277
57.530 13.095446
57.535 13.845807
57.540 14.126694
57.545 14.721882
57.550 14.747518
57.555 14.605083
57.560 14.853501
57.565 14.73128
57.570 14.361309
57.575 14.93095
57.580 14.423804
57.585 14.155331
57.590 14.782551
57.595 14.776455
57.600 14.898816
57.605 14.348824
57.610 14.185678
57.615 14.232668
57.620 13.97187
57.625 14.293964
57.630 14.07255
57.635 13.836742
57.640 14.393939
57.645 14.751433
57.650 15.292555
57.655 15.708591
57.660 14.980021
57.665 14.98104
57.670 15.386017
57.675 14.917679
57.680 14.168489
57.685 13.903618
57.690 13.893696
57.695 14.219662
57.700 14.518444
57.705 14.600954
57.710 14.56067
57.715 14.535502
57.720 14.416018
57.725 14.49105
57.730 14.972206
57.735 15.19263
57.740 14.414506
57.745 14.097548
57.750 14.296075
57.755 14.286602
57.760 14.287115
57.765 13.907591
57.770 13.279186
57.775 14.062708
57.780 14.353092
57.785 14.613918
57.790 14.398026
57.795 14.407291
57.800 14.322999
57.805 14.582548
57.810 14.523964
57.815 14.806571
57.820 15.124795
57.825 15.339322
57.830 14.96702
57.835 15.022142
57.840 15.170754
57.845 15.013148
57.850 14.287148
57.855 13.525217
57.860 13.088564
57.865 13.052572
57.870 12.780444
57.875 12.28163
57.880 11.768195
57.885 11.792487
57.890 12.295054
57.895 12.779069
57.900 12.736732
57.905 13.230511
57.910 13.491022
57.915 13.918637
57.920 13.953579
57.925 13.71708
57.930 12.825129
57.935 12.342559
57.940 11.836389
57.945 11.913283
57.950 12.105277
57.955 11.834458
57.960 11.966475
57.965 12.534754
57.970 13.339714
57.975 13.762019
57.980 13.924638
57.985 13.783626
57.990 13.739961
57.995 13.508501
58.000 13.58615
58.005 13.697251
58.010 13.714293
58.015 13.797768
58.020 13.810575
58.025 14.586344
58.030 15.158598
58.035 15.448727
58.040 15.678482
58.045 15.555494
58.050 15.46243
58.055 15.869241
58.060 15.199646
58.065 14.454959
58.070 14.527201
58.075 14.339152
58.080 14.458232
58.085 14.507283
58.090 14.028232
58.095 14.011398
58.100 14.289889
58.105 13.336497
58.110 13.127876
58.115 13.005962
58.120 12.765485
58.125 12.752591
58.130 12.738241
58.135 12.990623
58.140 13.474716
58.145 13.536725
58.150 13.635483
58.155 13.825805
58.160 14.809926
58.165 14.894098
58.170 14.505698
58.175 14.325607
58.180 14.112278
58.185 14.557012
58.190 14.435867
58.195 13.72262
58.200 14.351845
58.205 15.064932
58.210 15.481936
58.215 15.85131
58.220 15.564299
58.225 15.539863
58.230 15.482018
58.235 15.054256
58.240 14.848848
58.245 14.769966
58.250 14.237716
58.255 14.80121
58.260 15.011332
58.265 14.904722
58.270 15.215167
58.275 15.028571
58.280 14.738884
58.285 14.875622
58.290 14.50423
58.295 14.78084
58.300 15.395973
58.305 15.542518
58.310 15.244574
58.315 15.514287
58.320 15.507257
58.325 15.407649
58.330 14.845044
58.335 15.165667
58.340 15.263954
58.345 15.458521
58.350 15.435499
58.355 15.29039
58.360 15.870787
58.365 16.141073
58.370 15.64293
58.375 16.027979
58.380 16.183804
58.385 15.915437
58.390 15.806977
58.395 15.823934
58.400 15.694536
58.405 15.301707
58.410 14.723468
58.415 14.651665
58.420 14.844596
58.425 15.099298
58.430 15.157389
58.435 15.564633
58.440 15.878983
58.445 16.083889
58.450 16.395475
58.455 16.477509
58.460 16.152075
58.465 15.446293
58.470 15.007118
58.475 14.8071
58.480 14.494081
58.485 14.724678
58.490 15.304992
58.495 15.37036
58.500 15.597201
58.505 15.954013
58.510 16.158537
58.515 16.760597
58.520 17.141796
58.525 17.251539
58.530 17.416567
58.535 16.741051
58.540 16.426886
58.545 16.12509
58.550 15.333353
58.555 15.876753
58.560 15.705728
58.565 16.508659
58.570 16.845768
58.575 16.795769
58.580 16.599602
58.585 16.714758
58.590 16.054804
58.595 15.831274
58.600 15.318192
58.605 15.490499
58.610 15.952715
58.615 16.637321
58.620 16.448973
58.625 16.378248
58.630 16.51796
58.635 16.386583
58.640 16.913382
58.645 16.591644
58.650 16.361794
58.655 16.755678
58.660 16.61084
58.665 16.229567
58.670 15.876042
58.675 15.125032
58.680 15.01136
58.685 14.695016
58.690 14.716374
58.695 14.969449
58.700 15.408491
58.705 15.734814
58.710 16.015553
58.715 15.991237
58.720 15.974128
58.725 15.442771
58.730 15.937705
58.735 16.500307
58.740 17.023521
58.745 17.291908
58.750 17.627968
58.755 17.701359
58.760 17.724504
58.765 17.145977
58.770 16.630617
58.775 16.492208
58.780 16.375376
58.785 16.401367
58.790 16.9219
58.795 17.664135
58.800 17.602093
58.805 17.931324
58.810 17.896441
58.815 18.249609
58.820 18.204706
58.825 17.627439
58.830 16.779356
58.835 16.548849
58.840 16.237539
58.845 15.686812
58.850 14.906281
58.855 14.731475
58.860 14.951349
58.865 15.62145
58.870 15.942347
58.875 16.540405
58.880 17.065516
58.885 17.498425
58.890 17.625469
58.895 17.401089
58.900 17.339142
58.905 17.103464
58.910 17.306437
58.915 17.492582
58.920 18.094276
58.925 18.224848
58.930 17.926184
58.935 17.465586
58.940 17.191568
58.945 16.959776
58.950 16.846481
58.955 16.304224
58.960 16.372046
58.965 16.738926
58.970 17.099192
58.975 17.381748
58.980 17.339508
58.985 16.873674
58.990 17.042429
58.995 17.508221
59.000 17.692198
59.005 17.930723
59.010 18.222111
59.015 18.135088
59.020 18.596111
59.025 19.054932
59.030 19.400026
59.035 19.379688
59.040 18.884161
59.045 18.643705
59.050 18.332693
59.055 18.059811
59.060 17.408619
59.065 16.621542
59.070 16.242485
59.075 16.147167
59.080 16.316828
59.085 16.389093
59.090 16.075548
59.095 15.765807
59.100 16.079113
59.105 16.038176
59.110 16.287975
59.115 15.895101
59.120 15.934656
59.125 16.100676
59.130 16.647274
59.135 16.371391
59.140 16.711575
59.145 16.453753
59.150 16.966372
59.155 17.319185
59.160 17.823519
59.165 18.202057
59.170 18.569723
59.175 18.343493
59.180 18.203226
59.185 17.897741
59.190 17.510395
59.195 17.077145
59.200 16.458
59.205 16.349197
59.210 17.194073
59.215 17.812958
59.220 17.679775
59.225 18.159651
59.230 18.641243
59.235 18.40354
59.240 18.486589
59.245 17.987402
59.250 17.710155
59.255 17.312056
59.260 16.734079
59.265 16.189798
59.270 15.884096
59.275 15.551747
59.280 15.499396
59.285 15.693023
59.290 15.840651
59.295 15.906331
59.300 16.379787
59.305 17.18335
59.310 17.128679
59.315 17.554632
59.320 18.1045
59.325 18.360733
59.330 18.078041
59.335 18.420528
59.340 17.608273
59.345 17.201473
59.350 16.662851
59.355 16.321838
59.360 17.08259
59.365 17.355017
59.370 17.032053
59.375 17.663141
59.380 18.313602
59.385 18.86006
59.390 19.119785
59.395 18.612856
59.400 18.751133
59.405 18.824751
59.410 18.687431
59.415 18.728701
59.420 18.38431
59.425 18.3269
59.430 18.487291
59.435 18.275974
59.440 18.481636
59.445 18.228548
59.450 18.122877
59.455 18.429361
59.460 18.437145
59.465 18.246059
59.470 18.423702
59.475 18.163027
59.480 18.327291
59.485 18.34148
59.490 18.655069
59.495 19.447372
59.500 19.409367
59.505 19.58923
59.510 19.826195
59.515 19.890009
59.520 19.736843
59.525 18.816042
59.530 18.546581
59.535 18.655087
59.540 18.625055
59.545 18.555117
59.550 18.906445
59.555 18.973999
59.560 19.178886
59.565 18.735456
59.570 18.949522
59.575 19.406618
59.580 20.101025
59.585 19.774227
59.590 19.667164
59.595 19.180313
59.600 18.733824
59.605 18.707836
59.610 17.999512
59.615 17.310463
59.620 17.282089
59.625 17.248644
59.630 17.69562
59.635 17.505766
59.640 17.679129
59.645 17.777304
59.650 18.161734
59.655 18.151323
59.660 18.004538
59.665 18.364313
59.670 19.302809
59.675 18.792042
59.680 18.634518
59.685 17.977039
59.690 18.512432
59.695 19.185846
59.700 19.403025
59.705 19.031368
59.710 19.790245
59.715 20.180939
59.720 20.501352
59.725 20.654484
59.730 20.518091
59.735 20.138132
59.740 20.090107
59.745 19.486071
59.750 19.783371
59.755 19.407557
59.760 18.829018
59.765 19.105614
59.770 18.84856
59.775 18.645891
59.780 18.582426
59.785 18.262728
59.790 18.398659
59.795 18.493826
59.800 18.147074
59.805 18.094219
59.810 17.791887
59.815 18.196938
59.820 18.263479
59.825 18.135908
59.830 17.782949
59.835 18.429583
59.840 18.742453
59.845 19.14193
59.850 19.100895
59.855 19.516502
59.860 20.399454
59.865 20.433403
59.870 19.384485
59.875 19.527369
59.880 19.997583
59.885 20.021336
59.890 20.015148
59.895 19.657171
59.900 19.527092
59.905 20.063255
59.910 20.254784
59.915 19.777552
59.920 19.846649
59.925 19.534443
59.930 19.4284
59.935 20.043009
59.940 20.052769
59.945 19.906725
59.950 20.110619
59.955 20.099266
59.960 20.671648
59.965 21.18181
59.970 21.764175
59.975 21.933155
59.980 21.982256
59.985 22.258728
59.990 22.193306
59.995 21.573147
60.000 21.137585
60.005 20.790848
60.010 20.749201
60.015 20.696512
60.020 20.174894
60.025 19.667236
60.030 19.845552
60.035 19.563213
60.040 19.1283
60.045 18.760347
60.050 19.312511
60.055 19.520376
60.060 19.730032
60.065 19.137966
60.070 19.273964
60.075 19.458395
60.080 19.393566
60.085 18.913677
60.090 18.978247
60.095 19.009375
60.100 19.771711
60.105 20.269407
60.110 20.406301
60.115 20.479813
60.120 19.857906
60.125 19.760168
60.130 20.090469
60.135 20.125635
60.140 19.344225
60.145 19.352419
60.150 19.941706
60.155 20.639807
60.160 20.531086
60.165 20.168152
60.170 19.57185
60.175 19.801105
60.180 19.591953
60.185 19.535229
60.190 19.277822
60.195 19.228706
60.200 19.083242
60.205 19.243227
60.210 19.696604
60.215 19.465687
60.220 18.786011
60.225 18.799026
60.230 18.741219
60.235 18.826881
60.240 18.583567
60.245 18.843918
60.250 18.932871
60.255 18.930473
60.260 18.64171
60.265 19.017599
60.270 19.299339
60.275 19.270279
60.280 18.956268
60.285 19.36146
60.290 19.402891
60.295 20.158169
60.300 20.07995
60.305 20.093216
60.310 20.205887
60.315 20.13961
60.320 20.17145
60.325 20.673897
60.330 20.09692
60.335 20.124968
60.340 19.817797
60.345 19.782181
60.350 19.46114
60.355 18.912415
60.360 18.679193
60.365 18.73708
60.370 18.062752
60.375 18.098936
60.380 17.963537
60.385 18.366182
60.390 18.751118
60.395 19.414236
60.400 19.294092
60.405 19.806538
60.410 19.891861
60.415 19.978508
60.420 19.530787
60.425 19.336514
60.430 17.934353
60.435 17.81967
60.440 17.706974
60.445 17.17296
60.450 16.945152
60.455 17.045002
60.460 17.237513
60.465 17.921707
60.470 18.214582
60.475 18.676805
60.480 18.916706
60.485 19.049856
60.490 19.126722
60.495 18.376078
60.500 18.295935
60.505 18.065012
60.510 17.661516
60.515 17.638912
60.520 17.312805
60.525 17.309959
60.530 17.439699
60.535 16.930038
60.540 16.834129
60.545 16.750225
60.550 17.012503
60.555 16.889982
60.560 17.341665
60.565 17.648256
60.570 17.999186
60.575 17.481461
60.580 17.607975
60.585 18.03874
60.590 18.037523
60.595 18.429914
60.600 18.475515
60.605 18.607477
60.610 19.296932
60.615 19.709751
60.620 19.675823
60.625 19.816479
60.630 18.897461
60.635 18.621826
60.640 17.713335
60.645 17.21822
60.650 16.45512
60.655 15.986988
60.660 16.051668
60.665 16.193493
60.670 15.889876
60.675 16.398335
60.680 16.461321
60.685 16.383802
60.690 16.494507
60.695 15.999837
60.700 16.230137
60.705 16.966091
60.710 17.122515
60.715 17.398449
60.720 17.687525
60.725 17.203176
60.730 17.466089
60.735 17.357244
60.740 17.435045
60.745 17.053535
60.750 16.646994
60.755 16.931711
60.760 17.21793
60.765 17.300922
60.770 17.218626
60.775 16.697165
60.780 17.191463
60.785 17.349092
60.790 16.99781
60.795 16.551456
60.800 16.150558
60.805 16.218311
60.810 16.634628
60.815 16.668825
60.820 16.642006
60.825 16.927382
60.830 17.527592
60.835 17.902176
60.840 17.622114
60.845 17.057072
60.850 16.832148
60.855 16.85306
60.860 16.486893
60.865 16.074907
60.870 16.123346
60.875 16.00835
60.880 16.387684
60.885 16.055151
60.890 15.165881
60.895 15.837186
60.900 15.926343
60.905 15.754578
60.910 15.680455
60.915 15.442924
60.920 15.660435
60.925 16.286247
60.930 15.388661
60.935 14.962213
60.940 14.892033
60.945 15.045604
60.950 14.907597
60.955 15.756633
60.960 16.028782
60.965 16.294998
60.970 16.620661
60.975 16.413845
60.980 16.643305
60.985 16.129831
60.990 15.484284
60.995 15.382668
61.000 15.338361
61.005 15.257551
61.010 15.055282
61.015 14.834997
61.020 15.301706
61.025 15.559648
61.030 15.880369
61.035 16.212048
61.040 16.239244
61.045 16.249668
61.050 16.510181
61.055 16.143103
61.060 15.832104
61.065 15.387982
61.070 15.038548
61.075 15.266279
61.080 16.083982
61.085 16.427948
61.090 16.810797
61.095 16.796862
61.100 17.048412
61.105 16.838373
61.110 16.822014
61.115 16.143959
61.120 15.118446
61.125 14.886303
61.130 14.525813
61.135 15.166664
61.140 15.454844
61.145 15.421351
61.150 15.975823
61.155 16.330208
61.160 16.820637
61.165 17.242874
61.170 16.347427
61.175 16.098751
61.180 16.053013
61.185 16.012333
61.190 15.498691
61.195 15.315351
61.200 15.326465
61.205 15.53094
61.210 15.845004
61.215 15.772302
61.220 15.8406
61.225 16.735971
61.230 16.30048
61.235 16.283108
61.240 16.451256
61.245 16.100788
61.250 15.938091
61.255 15.843125
61.260 15.419578
61.265 14.915318
61.270 14.851841
61.275 15.167652
61.280 15.565593
61.285 15.919017
61.290 15.608468
61.295 15.708447
61.300 16.130184
61.305 15.639507
61.310 15.420253
61.315 15.568337
61.320 15.422105
61.325 15.892767
61.330 15.972218
61.335 15.767842
61.340 15.621695
61.345 15.603806
61.350 15.323312
61.355 15.561855
61.360 15.470709
61.365 15.827746
61.370 16.303457
61.375 16.674786
61.380 16.858295
61.385 17.169443
61.390 17.30265
61.395 17.442095
61.400 17.334196
61.405 17.717913
61.410 17.638636
61.415 17.823372
61.420 17.182108
61.425 16.533806
61.430 16.389456
61.435 16.11694
61.440 15.619415
61.445 15.482992
61.450 14.843318
61.455 15.131068
61.460 15.354574
61.465 15.520248
61.470 15.525585
61.475 15.764553
61.480 15.848508
61.485 15.92665
61.490 15.661022
61.495 15.787171
61.500 15.888861
61.505 15.775375
61.510 15.961542
61.515 16.458019
61.520 16.97319
61.525 16.679832
61.530 16.720449
61.535 16.73303
61.540 16.787622
61.545 16.62443
61.550 16.76063
61.555 17.144321
61.560 17.404406
61.565 17.25209
61.570 16.928986
61.575 17.139605
61.580 16.532661
61.585 15.624881
61.590 15.075697
61.595 15.338857
61.600 14.769083
61.605 14.708479
61.610 14.722932
61.615 14.90704
61.620 15.618032
61.625 15.64289
61.630 15.552083
61.635 16.029659
61.640 16.35091
61.645 16.274504
61.650 16.580696
61.655 15.887602
61.660 15.638159
61.665 15.533683
61.670 15.768806
61.675 15.925482
61.680 16.175453
61.685 15.820318
61.690 16.153704
61.695 16.213249
61.700 16.165426
61.705 15.46846
61.710 15.515492
61.715 15.952513
61.720 15.483018
61.725 15.027944
61.730 15.337185
61.735 16.008467
61.740 15.73127
61.745 15.345995
61.750 15.67204
61.755 16.424047
61.760 17.712528
61.765 17.658569
61.770 17.399437
61.775 18.050787
61.780 18.294897
61.785 17.692118
61.790 17.799522
61.795 17.890617
61.800 17.960205
61.805 17.969791
61.810 18.007235
61.815 18.076029
61.820 17.850662
61.825 17.566837
61.830 16.361387
61.835 15.937425
61.840 15.783947
61.845 15.38361
61.850 15.051566
61.855 15.277151
61.860 15.674143
61.865 16.48505
61.870 16.978348
61.875 17.01726
61.880 17.730158
61.885 18.055101
61.890 18.283825
61.895 17.954031
61.900 17.648144
61.905 17.361137
61.910 17.479391
61.915 17.178333
61.920 16.917467
61.925 16.808968
61.930 17.032146
61.935 17.244238
61.940 18.077843
61.945 17.709795
61.950 17.571501
61.955 17.452234
61.960 17.160532
61.965 16.530882
61.970 16.189362
61.975 15.806774
61.980 16.414291
61.985 16.289303
61.990 16.527355
61.995 16.799894
62.000 17.284651
62.005 17.405602
62.010 17.434175
62.015 17.237457
62.020 18.057674
62.025 18.282913
62.030 18.253414
62.035 18.00592
62.040 17.807199
62.045 17.792074
62.050 17.700336
62.055 16.903341
62.060 16.699293
62.065 16.747896
62.070 16.416409
62.075 16.382635
62.080 16.557882
62.085 16.627151
62.090 16.483034
62.095 16.151567
62.100 15.877067
62.105 16.454447
62.110 16.25885
62.115 15.848063
62.120 15.807249
62.125 16.765247
62.130 16.783333
62.135 16.590254
62.140 15.79451
62.145 15.424861
62.150 15.65316
62.155 15.814454
62.160 15.347914
62.165 15.982945
62.170 17.473932
62.175 18.622198
62.180 19.299673
62.185 18.914171
62.190 18.32803
62.195 18.517731
62.200 18.188457
62.205 17.488617
62.210 16.957745
62.215 16.743895
62.220 16.365583
62.225 16.175707
62.230 15.796465
62.235 15.500773
62.240 15.255834
62.245 15.149649
62.250 15.212884
62.255 15.510062
62.260 16.069004
62.265 15.823508
62.270 15.709213
62.275 15.851655
62.280 16.271521
62.285 16.074896
62.290 16.20994
62.295 16.000204
62.300 16.552933
62.305 16.66157
62.310 15.723987
62.315 14.842519
62.320 14.742256
62.325 14.507757
62.330 14.397371
62.335 14.448445
62.340 14.517035
62.345 15.268908
62.350 15.609994
62.355 15.895133
62.360 16.299669
62.365 16.627048
62.370 16.645233
62.375 16.734709
62.380 16.875381
62.385 16.917801
62.390 16.511759
62.395 16.628716
62.400 16.609026
62.405 16.797514
62.410 17.368895
62.415 17.561447
62.420 17.777182
62.425 18.094437
62.430 18.320208
62.435 18.512634
62.440 18.107538
62.445 17.883455
62.450 17.815775
62.455 18.087704
62.460 18.477324
62.465 18.143345
62.470 17.692963
62.475 17.991787
62.480 17.904633
62.485 17.05839
62.490 16.604555
62.495 16.453272
62.500 16.44194
62.505 16.416168
62.510 16.224972
62.515 16.10894
62.520 16.814686
62.525 16.555994
62.530 16.288631
62.535 16.081295
62.540 15.851372
62.545 15.985328
62.550 15.486022
62.555 15.568306
62.560 16.006685
62.565 15.830099
62.570 16.074694
62.575 16.160719
62.580 15.892672
62.585 16.027428
62.590 15.981274
62.595 16.133965
62.600 16.314169
62.605 15.987041
62.610 15.925262
62.615 16.418022
62.620 16.058937
62.625 15.997802
62.630 16.002481
62.635 16.401098
62.640 16.421127
62.645 16.213261
62.650 15.797434
62.655 16.533693
62.660 16.502047
62.665 15.977426
62.670 15.84331
62.675 16.655865
62.680 17.267693
62.685 17.093924
62.690 16.636734
62.695 16.219149
62.700 16.176287
62.705 15.860723
62.710 15.037816
62.715 14.720286
62.720 14.608611
62.725 15.576431
62.730 15.979954
62.735 16.539227
62.740 16.497274
62.745 17.271425
62.750 17.563759
62.755 17.980515
62.760 17.44841
62.765 17.645924
62.770 17.604584
62.775 17.26951
62.780 16.820038
62.785 16.745718
62.790 16.613903
62.795 16.727728
62.800 16.600189
62.805 16.962463
62.810 17.408098
62.815 17.346624
62.820 17.326439
62.825 17.672983
62.830 17.356289
62.835 17.342516
62.840 16.7892
62.845 16.580482
62.850 17.030142
62.855 17.226952
62.860 17.060999
62.865 17.413361
62.870 16.911903
62.875 16.921858
62.880 17.380468
62.885 16.956322
62.890 16.558352
62.895 16.361368
62.900 15.750705
62.905 16.438227
62.910 16.710966
62.915 16.228567
62.920 16.178389
62.925 16.125654
62.930 16.143545
62.935 16.617014
62.940 16.526228
62.945 16.036036
62.950 16.06459
62.955 16.562235
62.960 16.7892
62.965 16.919983
62.970 17.127132
62.975 17.051086
62.980 17.12767
62.985 17.005524
62.990 16.580799
62.995 16.586086
63.000 16.877811
63.005 16.744001
63.010 16.955023
63.015 17.003584
63.020 17.00181
63.025 17.375628
63.030 17.198103
63.035 17.192429
63.040 16.836046
63.045 16.506121
63.050 16.946424
63.055 17.031111
63.060 16.969513
63.065 17.222038
63.070 17.16556
63.075 17.35363
63.080 17.286684
63.085 16.743069
63.090 16.528868
63.095 16.581018
63.100 16.639883
63.105 16.688496
63.110 16.510599
63.115 16.873337
63.120 17.152105
63.125 16.951385
63.130 17.067507
63.135 17.040161
63.140 16.766193
63.145 16.711876
63.150 16.722763
63.155 17.226944
63.160 17.795784
63.165 17.168043
63.170 16.691378
63.175 17.364487
63.180 17.863194
63.185 17.809708
63.190 17.592245
63.195 17.301243
63.200 17.532164
63.205 17.409494
63.210 16.866264
63.215 16.766783
63.220 16.55221
63.225 16.350479
63.230 16.546961
63.235 16.694618
63.240 17.156981
63.245 17.580975
63.250 17.524158
63.255 17.522957
63.260 17.883621
63.265 17.980715
63.270 17.848553
63.275 17.714443
63.280 17.771233
63.285 17.311619
63.290 16.559282
63.295 16.543173
63.300 16.470711
63.305 16.677113
63.310 17.053823
63.315 17.054913
63.320 17.363518
63.325 17.904961
63.330 17.623783
63.335 17.623251
63.340 17.303783
63.345 16.939377
63.350 16.441198
63.355 16.686888
63.360 16.860857
63.365 16.954969
63.370 17.446209
63.375 18.103371
63.380 18.562714
63.385 19.135742
63.390 18.857376
63.395 18.484449
63.400 17.707802
63.405 17.386808
63.410 16.669064
63.415 16.173124
63.420 15.893025
63.425 15.913148
63.430 16.536903
63.435 17.724506
63.440 17.990818
63.445 18.681566
63.450 19.24214
63.455 19.524864
63.460 19.854544
63.465 19.94313
63.470 19.457539
63.475 19.237463
63.480 18.635397
63.485 18.623938
63.490 19.028889
63.495 19.115089
63.500 18.947971
63.505 18.989443
63.510 18.763418
63.515 18.573912
63.520 17.62294
63.525 16.737783
63.530 16.483986
63.535 16.40589
63.540 16.388624
63.545 16.172474
63.550 16.25869
63.555 16.759954
63.560 17.201902
63.565 17.247185
63.570 16.778185
63.575 16.404221
63.580 16.667273
63.585 16.516167
63.590 16.86515
63.595 16.808256
63.600 16.682209
63.605 17.276812
63.610 17.134939
63.615 17.288174
63.620 17.862875
63.625 18.206303
63.630 18.859077
63.635 18.573322
63.640 18.818148
63.645 19.189226
63.650 19.640625
63.655 19.658215
63.660 19.304333
63.665 19.021877
63.670 19.472309
63.675 19.153856
63.680 18.782421
63.685 18.584255
63.690 18.38958
63.695 18.356493
63.700 18.509806
63.705 18.606709
63.710 18.748741
63.715 19.097145
63.720 18.83374
63.725 18.617638
63.730 17.99226
63.735 17.823174
63.740 17.372349
63.745 17.20841
63.750 17.028543
63.755 16.857601
63.760 16.791162
63.765 16.871401
63.770 16.328526
63.775 16.609926
63.780 16.83433
63.785 16.972729
63.790 16.901522
63.795 16.993505
63.800 17.200682
63.805 17.500572
63.810 17.716854
63.815 18.192503
63.820 18.197336
63.825 18.710434
63.830 18.734646
63.835 18.740339
63.840 18.819185
63.845 18.529078
63.850 17.601557
63.855 16.927847
63.860 16.376383
63.865 16.407623
63.870 16.322552
63.875 16.627977
63.880 16.704268
63.885 17.215313
63.890 17.792229
63.895 17.514177
63.900 17.226116
63.905 17.36694
63.910 17.487957
63.915 17.524536
63.920 16.997946
63.925 17.053082
63.930 17.24164
63.935 17.588528
63.940 17.698799
63.945 17.354458
63.950 17.01576
63.955 17.79026
63.960 17.959703
63.965 18.126133
63.970 18.357067
63.975 18.648598
63.980 18.975651
63.985 19.372225
63.990 19.072254
63.995 18.991545
64.000 19.181726
64.005 19.219318
64.010 18.98678
64.015 18.672009
64.020 18.832148
64.025 19.220148
64.030 19.22135
64.035 19.097956
64.040 19.118931
64.045 19.002306
64.050 18.837868
64.055 18.918531
64.060 19.083906
64.065 19.354584
64.070 19.6619
64.075 19.417822
64.080 19.57379
64.085 19.569237
64.090 19.696384
64.095 19.390062
64.100 19.463812
64.105 19.328827
64.110 19.329878
64.115 19.226759
64.120 19.321478
64.125 18.863167
64.130 18.683588
64.135 18.770111
64.140 18.576088
64.145 18.189342
64.150 17.733826
64.155 17.778204
64.160 17.734743
64.165 17.916344
64.170 17.424578
64.175 18.069225
64.180 18.730476
64.185 19.278065
64.190 19.352617
64.195 19.17495
64.200 18.798761
64.205 19.229877
64.210 18.65662
64.215 18.141479
64.220 17.703936
64.225 17.557251
64.230 17.849257
64.235 18.122669
64.240 18.15053
64.245 18.579615
64.250 18.748793
64.255 18.974937
64.260 18.785822
64.265 18.994974
64.270 18.580862
64.275 18.580885
64.280 18.456186
64.285 18.598742
64.290 19.113966
64.295 19.109901
64.300 18.882677
64.305 19.13714
64.310 18.587177
64.315 18.251062
64.320 17.904894
64.325 17.501444
64.330 18.061125
64.335 18.060108
64.340 18.164946
64.345 18.224236
64.350 18.190136
64.355 18.730318
64.360 19.168488
64.365 19.55435
64.370 19.406492
64.375 19.57897
64.380 20.458845
64.385 20.787138
64.390 20.808268
64.395 21.078583
64.400 20.736
64.405 21.075626
64.410 20.61529
64.415 20.07292
64.420 20.364597
64.425 20.255108
64.430 19.586521
64.435 19.411678
64.440 19.616243
64.445 19.738319
64.450 19.872864
64.455 19.661625
64.460 19.949677
64.465 20.190351
64.470 20.398293
64.475 20.324903
64.480 20.949142
64.485 20.836725
64.490 20.571564
64.495 20.144239
64.500 19.815189
64.505 20.334249
64.510 20.759712
64.515 20.698309
64.520 21.419786
64.525 21.629881
64.530 21.854185
64.535 22.284313
64.540 21.840937
64.545 21.559803
64.550 21.225727
64.555 21.230347
64.560 21.40801
64.565 21.635445
64.570 21.012251
64.575 21.056784
64.580 20.63958
64.585 20.141485
64.590 19.626181
64.595 19.310904
64.600 19.242823
64.605 19.468521
64.610 19.138903
64.615 19.426846
64.620 19.525888
64.625 19.574421
64.630 19.497818
64.635 19.522057
64.640 19.724005
64.645 19.572102
64.650 19.144829
64.655 19.171522
64.660 18.748037
64.665 18.419279
64.670 18.362555
64.675 18.326292
64.680 18.823441
64.685 19.140766
64.690 19.796753
64.695 20.492924
64.700 20.955997
64.705 20.777571
64.710 21.015448
64.715 21.119268
64.720 21.720581
64.725 21.359598
64.730 20.779844
64.735 20.369234
64.740 20.555824
64.745 20.295197
64.750 19.630695
64.755 19.298061
64.760 19.282719
64.765 19.583246
64.770 19.465595
64.775 19.36594
64.780 19.448545
64.785 20.154945
64.790 20.059269
64.795 19.630796
64.800 20.059237
64.805 20.350809
64.810 20.449747
64.815 20.876276
64.820 20.9147
64.825 20.791397
64.830 21.476158
64.835 21.719753
64.840 21.957899
64.845 21.916063
64.850 22.146589
64.855 22.264551
64.860 22.650215
64.865 22.254465
64.870 22.113773
64.875 21.380461
64.880 20.691986
64.885 20.151863
64.890 20.165817
64.895 20.138868
64.900 20.261745
64.905 20.048815
64.910 20.405119
64.915 20.890278
64.920 20.563572
64.925 20.442648
64.930 20.529234
64.935 20.826391
64.940 20.847622
64.945 21.082344
64.950 20.654158
64.955 20.950611
64.960 21.054945
64.965 20.62035
64.970 20.063955
64.975 20.108316
64.980 20.437513
64.985 20.901087
64.990 20.524813
64.995 20.633818
65.000 21.110977
65.005 21.760605
65.010 21.941565
65.015 21.995247
65.020 22.999758
65.025 24.286146
65.030 24.903187
65.035 24.617994
65.040 24.307074
65.045 24.327599
65.050 24.203751
65.055 23.123653
65.060 22.581419
65.065 22.698776
65.070 22.811911
65.075 22.939142
65.080 23.34203
65.085 23.778255
65.090 24.585159
65.095 24.752306
65.100 25.029646
65.105 25.42569
65.110 25.753611
65.115 25.569057
65.120 25.167334
65.125 25.242052
65.130 25.336803
65.135 24.688025
65.140 24.794765
65.145 24.202263
65.150 24.024611
65.155 23.864212
65.160 23.602001
65.165 23.394732
65.170 23.602194
65.175 23.922184
65.180 23.911139
65.185 23.830708
65.190 24.19733
65.195 24.159359
65.200 24.180349
65.205 23.980541
65.210 23.317133
65.215 23.609104
65.220 23.94013
65.225 23.809187
65.230 23.308472
65.235 22.850054
65.240 22.418535
65.245 22.834574
65.250 23.317894
65.255 23.041647
65.260 22.777147
65.265 23.230919
65.270 23.935881
65.275 23.827089
65.280 23.214916
65.285 22.597481
65.290 22.451931
65.295 22.796938
65.300 22.761829
65.305 22.249435
65.310 22.608297
65.315 23.274298
65.320 23.288347
65.325 23.222551
65.330 22.994652
65.335 22.34199
65.340 21.901699
65.345 21.842218
65.350 21.856663
65.355 22.196579
65.360 22.199772
65.365 22.551113
65.370 23.217274
65.375 23.67729
65.380 24.203089
65.385 24.240379
65.390 24.1859
65.395 24.506363
65.400 24.41836
65.405 24.63619
65.410 25.166988
65.415 25.320612
65.420 25.224962
65.425 25.057188
65.430 24.539387
65.435 23.980349
65.440 23.259008
65.445 22.898556
65.450 22.174198
65.455 21.71377
65.460 21.846344
65.465 22.248999
65.470 22.917088
65.475 23.806501
65.480 24.210945
65.485 24.930624
65.490 25.467127
65.495 26.067963
65.500 26.12117
65.505 25.88493
65.510 26.157732
65.515 26.086411
65.520 25.827417
65.525 25.679918
65.530 25.878843
65.535 26.420633
65.540 25.951361
65.545 25.362684
65.550 25.80411
65.555 25.770708
65.560 25.943018
65.565 25.52422
65.570 24.661963
65.575 25.683289
65.580 25.667099
65.585 25.148447
65.590 25.50172
65.595 25.358368
65.600 25.734116
65.605 26.493814
65.610 27.024014
65.615 27.783161
65.620 28.40254
65.625 28.958328
65.630 29.500883
65.635 29.593933
65.640 29.658941
65.645 30.027311
65.650 30.335381
65.655 30.026073
65.660 29.653145
65.665 29.332518
65.670 29.416809
65.675 29.392849
65.680 29.334873
65.685 29.153173
65.690 29.594986
65.695 30.339033
65.700 30.699247
65.705 31.392111
65.710 32.091152
65.715 31.91696
65.720 31.70562
65.725 31.814014
65.730 31.888166
65.735 31.972672
65.740 31.28546
65.745 31.022499
65.750 31.810005
65.755 32.535641
65.760 32.455795
65.765 31.941944
65.770 31.847536
65.775 31.572235
65.780 30.628292
65.785 30.0425
65.790 29.769297
65.795 29.586233
65.800 29.548695
65.805 29.705235
65.810 30.061378
65.815 31.559963
65.820 31.978218
65.825 31.354778
65.830 32.021011
65.835 32.327942
65.840 32.738747
65.845 33.506836
65.850 33.185894
65.855 33.855274
65.860 35.321056
65.865 35.913334
65.870 36.429066
65.875 36.383327
65.880 36.358162
65.885 36.613277
65.890 36.703678
65.895 36.384892
65.900 36.351448
65.905 36.309422
65.910 36.905605
65.915 36.696693
65.920 36.647175
65.925 36.611912
65.930 36.574219
65.935 36.592823
65.940 36.795292
65.945 36.830006
65.950 36.628838
65.955 35.986298
65.960 35.676617
65.965 36.038799
65.970 36.427959
65.975 36.556023
65.980 36.580132
65.985 37.583656
65.990 39.302872
65.995 40.012924
66.000 40.377865
66.005 40.245819
66.010 39.771255
66.015 39.952908
66.020 39.429501
66.025 38.215717
66.030 38.406227
66.035 37.885178
66.040 37.462082
66.045 38.2985
66.050 38.327957
66.055 38.046463
66.060 37.575005
66.065 36.641495
66.070 37.167843
66.075 37.417633
66.080 37.503132
66.085 37.734081
66.090 38.225998
66.095 38.794052
66.100 38.902973
66.105 38.386383
66.110 38.08646
66.115 37.538704
66.120 37.40078
66.125 37.71426
66.130 37.70697
66.135 37.525299
66.140 37.42659
66.145 36.776833
66.150 36.784298
66.155 36.565113
66.160 36.020805
66.165 35.494209
66.170 35.621727
66.175 36.024372
66.180 36.73922
66.185 36.745174
66.190 36.884026
66.195 36.960613
66.200 37.932877
66.205 37.602154
66.210 37.089207
66.215 36.688244
66.220 36.347321
66.225 36.809471
66.230 37.314186
66.235 37.36758
66.240 38.014065
66.245 38.065536
66.250 37.825264
66.255 38.238766
66.260 38.000221
66.265 37.920586
66.270 37.16214
66.275 36.93388
66.280 37.063663
66.285 37.00938
66.290 36.305912
66.295 34.896431
66.300 34.625275
66.305 34.465931
66.310 34.377872
66.315 34.407333
66.320 34.790504
66.325 34.741901
66.330 35.099216
66.335 35.118759
66.340 34.630062
66.345 34.59584
66.350 34.768265
66.355 34.514004
66.360 34.917843
66.365 35.080242
66.370 35.394508
66.375 34.981396
66.380 34.352474
66.385 33.623871
66.390 33.122059
66.395 32.579006
66.400 31.834349
66.405 30.677254
66.410 31.021688
66.415 31.201902
66.420 31.010107
66.425 30.693913
66.430 30.495756
66.435 30.45475
66.440 31.22591
66.445 31.41102
66.450 31.191002
66.455 30.991735
66.460 30.093983
66.465 30.069139
66.470 29.228079
66.475 28.38899
66.480 28.227814
66.485 27.786854
66.490 28.567511
66.495 29.401449
66.500 29.50169
66.505 29.96892
66.510 30.083345
66.515 29.175346
66.520 28.921152
66.525 28.007153
66.530 27.363253
66.535 27.361511
66.540 27.367193
66.545 27.168285
66.550 27.348749
66.555 27.228531
66.560 27.564707
66.565 27.766121
66.570 27.486206
66.575 26.851442
66.580 26.075603
66.585 25.64856
66.590 25.718933
66.595 25.004286
66.600 24.812082
66.605 24.919331
66.610 25.533442
66.615 25.752848
66.620 26.02849
66.625 25.702274
66.630 25.792957
66.635 25.429413
66.640 24.816189
66.645 24.51465
66.650 24.495731
66.655 23.929628
66.660 24.083811
66.665 24.354044
66.670 24.240309
66.675 24.182524
66.680 24.204609
66.685 23.987652
66.690 24.559982
66.695 24.305931
66.700 23.516384
66.705 24.174641
66.710 24.460093
66.715 24.437481
66.720 25.225563
66.725 25.194336
66.730 25.43404
66.735 25.422264
66.740 24.975286
66.745 24.525866
66.750 23.805229
66.755 23.178625
66.760 22.976028
66.765 22.366734
66.770 22.543335
66.775 22.085312
66.780 22.298952
66.785 22.508034
66.790 21.924885
66.795 22.077862
66.800 22.010748
66.805 22.518833
66.810 22.665169
66.815 22.505255
66.820 23.159124
66.825 23.870846
66.830 23.475025
66.835 23.899557
66.840 22.904457
66.845 22.874468
66.850 22.182772
66.855 21.385132
66.860 20.797819
66.865 20.804424
66.870 20.342796
66.875 19.937603
66.880 20.307465
66.885 20.825991
66.890 21.004959
66.895 21.088577
66.900 20.537014
66.905 20.910362
66.910 21.393152
66.915 21.066357
66.920 20.923471
66.925 20.896494
66.930 21.106127
66.935 21.633194
66.940 20.932446
66.945 20.679695
66.950 20.553106
66.955 20.315622
66.960 20.535072
66.965 21.024199
66.970 20.817989
66.975 21.105225
66.980 20.975128
66.985 21.169952
66.990 21.460091
66.995 20.788357
67.000 19.980888
67.005 20.097778
67.010 20.493601
67.015 20.903643
67.020 21.070221
67.025 21.239326
67.030 21.531849
67.035 21.962759
67.040 21.800034
67.045 22.081818
67.050 22.368839
67.055 21.912279
67.060 21.57733
67.065 21.588964
67.070 21.471811
67.075 21.589024
67.080 21.416986
67.085 21.099192
67.090 21.36359
67.095 21.520504
67.100 21.493111
67.105 21.182264
67.110 20.790199
67.115 20.550976
67.120 20.42655
67.125 20.703369
67.130 20.809219
67.135 20.702129
67.140 20.149227
67.145 20.426468
67.150 20.128965
67.155 19.967615
67.160 19.571884
67.165 19.208126
67.170 19.383448
67.175 19.519541
67.180 19.64926
67.185 20.249079
67.190 20.730297
67.195 21.111273
67.200 21.21151
67.205 21.410421
67.210 21.556065
67.215 21.804909
67.220 21.680334
67.225 21.187929
67.230 21.088587
67.235 21.378218
67.240 21.339802
67.245 21.900215
67.250 21.803949
67.255 21.778917
67.260 21.436203
67.265 21.163918
67.270 20.778112
67.275 20.95904
67.280 20.583143
67.285 20.779697
67.290 20.969671
67.295 21.139994
67.300 21.179977
67.305 21.268805
67.310 21.137144
67.315 21.522972
67.320 21.645493
67.325 21.384525
67.330 21.387192
67.335 21.039772
67.340 21.146074
67.345 21.073578
67.350 20.296776
67.355 19.655907
67.360 20.320713
67.365 19.973722
67.370 20.325106
67.375 20.201942
67.380 19.574646
67.385 19.561581
67.390 19.249212
67.395 18.457275
67.400 18.631292
67.405 18.54331
67.410 18.304291
67.415 18.226488
67.420 18.550409
67.425 18.896227
67.430 19.597124
67.435 19.511448
67.440 19.202217
67.445 19.336866
67.450 19.570307
67.455 19.245569
67.460 19.377993
67.465 19.358641
67.470 19.95175
67.475 20.497627
67.480 20.984636
67.485 21.967346
67.490 22.390512
67.495 22.191885
67.500 22.306957
67.505 22.377708
67.510 22.782135
67.515 22.565079
67.520 21.950754
67.525 21.510038
67.530 21.922432
67.535 21.597414
67.540 21.378719
67.545 20.624958
67.550 20.231754
67.555 19.889368
67.560 19.635616
67.565 19.982941
67.570 19.99004
67.575 19.49165
67.580 19.310362
67.585 19.885252
67.590 20.571068
67.595 20.443384
67.600 19.774607
67.605 19.729315
67.610 20.474688
67.615 20.823156
67.620 20.785875
67.625 20.507465
67.630 20.840763
67.635 21.221725
67.640 21.155329
67.645 21.303318
67.650 21.449379
67.655 21.272303
67.660 21.468664
67.665 21.368874
67.670 21.435772
67.675 21.582739
67.680 20.944275
67.685 20.437077
67.690 19.640364
67.695 19.554125
67.700 19.136551
67.705 18.696817
67.710 18.223207
67.715 18.60754
67.720 18.982813
67.725 19.567392
67.730 20.226538
67.735 19.86047
67.740 20.182123
67.745 20.138273
67.750 20.048706
67.755 19.847145
67.760 19.86253
67.765 19.431534
67.770 19.753902
67.775 20.347363
67.780 20.042606
67.785 19.933788
67.790 19.785084
67.795 19.667965
67.800 19.515366
67.805 19.368576
67.810 18.81781
67.815 18.833807
67.820 18.936863
67.825 18.864729
67.830 18.332836
67.835 18.485474
67.840 18.543098
67.845 18.67342
67.850 18.025259
67.855 18.294155
67.860 18.585905
67.865 19.118141
67.870 18.869045
67.875 19.315001
67.880 19.88829
67.885 20.261873
67.890 20.47827
67.895 20.439821
67.900 20.259733
67.905 20.210464
67.910 19.6968
67.915 19.458282
67.920 20.11792
67.925 19.858591
67.930 19.748117
67.935 19.554932
67.940 19.609655
67.945 20.203295
67.950 20.527042
67.955 19.718121
67.960 19.36216
67.965 19.643362
67.970 20.315441
67.975 20.334864
67.980 19.606047
67.985 19.50943
67.990 19.846182
67.995 20.116938
68.000 20.591484
68.005 20.160709
68.010 20.241419
68.015 20.429651
68.020 20.04615
68.025 20.20999
68.030 20.258444
68.035 19.594683
68.040 19.492348
68.045 19.527119
68.050 19.826687
68.055 20.688341
68.060 20.532465
68.065 20.032175
68.070 19.920992
68.075 19.945385
68.080 19.947165
68.085 20.110682
68.090 19.451233
68.095 19.544327
68.100 19.917992
68.105 20.867876
68.110 21.215771
68.115 21.412891
68.120 21.250254
68.125 21.223639
68.130 21.903959
68.135 21.786961
68.140 20.748341
68.145 19.945639
68.150 19.341942
68.155 18.774315
68.160 18.4834
68.165 18.711113
68.170 18.942789
68.175 19.411375
68.180 19.518322
68.185 19.601162
68.190 19.911699
68.195 19.481621
68.200 18.90266
68.205 18.570936
68.210 18.570442
68.215 18.983101
68.220 19.153898
68.225 19.016958
68.230 19.555964
68.235 19.616615
68.240 19.945045
68.245 20.001938
68.250 19.744621
68.255 20.118399
68.260 20.326834
68.265 20.321264
68.270 20.182726
68.275 19.544495
68.280 19.604006
68.285 19.635933
68.290 19.76133
68.295 19.567446
68.300 20.075867
68.305 20.283001
68.310 20.926689
68.315 21.543919
68.320 21.983622
68.325 22.237099
68.330 22.045515
68.335 21.769928
68.340 21.414413
68.345 21.066759
68.350 20.284327
68.355 19.588856
68.360 19.007748
68.365 18.731833
68.370 18.539188
68.375 18.926676
68.380 19.503998
68.385 20.077354
68.390 19.987299
68.395 19.816599
68.400 19.970881
68.405 19.400764
68.410 19.33576
68.415 19.225224
68.420 19.588739
68.425 19.963408
68.430 20.076344
68.435 19.73929
68.440 20.408319
68.445 20.366217
68.450 19.843649
68.455 19.026743
68.460 19.202766
68.465 19.446781
68.470 19.760994
68.475 19.490475
68.480 19.596407
68.485 19.706177
68.490 19.77652
68.495 19.682898
68.500 19.816578
68.505 20.129148
68.510 20.323414
68.515 20.301315
68.520 20.276823
68.525 20.756485
68.530 21.02548
68.535 20.785896
68.540 20.512245
68.545 20.523094
68.550 20.490879
68.555 20.087282
68.560 19.669065
68.565 19.697617
68.570 20.223072
68.575 20.039455
68.580 19.849934
68.585 19.690502
68.590 20.37986
68.595 19.790352
68.600 19.729252
68.605 19.70392
68.610 20.323896
68.615 20.655935
68.620 20.55949
68.625 21.130896
68.630 22.312637
68.635 22.560839
68.640 22.25103
68.645 21.116421
68.650 20.952486
68.655 20.881861
68.660 20.110712
68.665 19.20076
68.670 18.727798
68.675 18.969151
68.680 19.931646
68.685 19.883427
68.690 19.940271
68.695 20.709557
68.700 21.225239
68.705 21.740376
68.710 21.159513
68.715 20.416183
68.720 20.275908
68.725 20.566349
68.730 20.251873
68.735 19.67831
68.740 19.715614
68.745 20.573866
68.750 20.82967
68.755 21.503408
68.760 21.575087
68.765 21.479671
68.770 21.444775
68.775 21.114876
68.780 21.046867
68.785 20.907692
68.790 20.689283
68.795 20.364109
68.800 20.907003
68.805 20.824211
68.810 20.487165
68.815 20.560968
68.820 20.702923
68.825 20.829195
68.830 20.089607
68.835 20.221968
68.840 20.249552
68.845 21.00795
68.850 21.394339
68.855 21.739525
68.860 21.884863
68.865 21.925034
68.870 21.390198
68.875 21.772274
68.880 21.223122
68.885 21.088848
68.890 21.078096
68.895 21.523426
68.900 22.089472
68.905 22.58559
68.910 22.487398
68.915 22.787661
68.920 22.723627
68.925 22.470875
68.930 22.31554
68.935 22.496838
68.940 23.046926
68.945 23.118677
68.950 22.945017
68.955 22.584517
68.960 22.603914
68.965 22.328964
68.970 21.972614
68.975 21.613602
68.980 22.121851
68.985 22.17342
68.990 22.4939
68.995 22.710276
69.000 23.494539
69.005 23.738018
69.010 23.657928
69.015 23.676376
69.020 23.58268
69.025 23.482748
69.030 23.317404
69.035 22.668655
69.040 22.951622
69.045 22.34009
69.050 22.153189
69.055 22.496311
69.060 22.701452
69.065 22.908653
69.070 23.297178
69.075 23.297411
69.080 23.943243
69.085 24.215412
69.090 24.758318
69.095 25.092894
69.100 25.036411
69.105 25.214613
69.110 25.36817
69.115 25.022846
69.120 24.911449
69.125 24.718493
69.130 24.807873
69.135 24.453291
69.140 24.587994
69.145 24.703768
69.150 25.159575
69.155 25.351774
69.160 24.886122
69.165 24.459299
69.170 24.234438
69.175 24.523994
69.180 24.573141
69.185 24.467329
69.190 24.941179
69.195 25.409868
69.200 26.387239
69.205 26.92074
69.210 27.302753
69.215 26.951975
69.220 26.446766
69.225 26.391684
69.230 26.743519
69.235 26.060472
69.240 25.853373
69.245 25.559855
69.250 26.713236
69.255 27.172575
69.260 27.059326
69.265 27.441957
69.270 28.162367
69.275 28.6215
69.280 28.737553
69.285 28.474327
69.290 28.518787
69.295 28.017481
69.300 27.555136
69.305 27.655987
69.310 28.450907
69.315 28.594591
69.320 28.004412
69.325 27.378141
69.330 27.656092
69.335 27.825401
69.340 27.356348
69.345 26.64496
69.350 27.930016
69.355 29.086115
69.360 29.965715
69.365 30.058981
69.370 29.907425
69.375 30.925257
69.380 30.871176
69.385 30.725639
69.390 30.275259
69.395 30.235956
69.400 30.268744
69.405 30.382336
69.410 30.068714
69.415 30.447113
69.420 30.064922
69.425 30.577427
69.430 31.030174
69.435 32.020535
69.440 32.660267
69.445 32.536026
69.450 32.352043
69.455 31.785749
69.460 31.915722
69.465 31.558317
69.470 30.804771
69.475 30.060766
69.480 30.086243
69.485 30.793547
69.490 31.250374
69.495 30.822891
69.500 31.191418
69.505 30.970526
69.510 30.591871
69.515 30.319998
69.520 29.453131
69.525 29.627941
69.530 29.393032
69.535 29.099367
69.540 29.777634
69.545 30.041555
69.550 30.600359
69.555 31.395025
69.560 31.272346
69.565 31.100058
69.570 30.97529
69.575 30.889349
69.580 31.08515
69.585 30.964535
69.590 31.077761
69.595 31.252214
69.600 31.432436
69.605 31.21838
69.610 30.632847
69.615 30.046675
69.620 30.293491
69.625 30.213779
69.630 30.508379
69.635 30.754255
69.640 31.342596
69.645 31.62981
69.650 32.256664
69.655 31.034081
69.660 31.122952
69.665 31.098963
69.670 31.106394
69.675 31.745029
69.680 31.833952
69.685 31.994698
69.690 31.994871
69.695 31.607733
69.700 31.275116
69.705 30.991444
69.710 30.42041
69.715 29.932829
69.720 29.936388
69.725 29.877134
69.730 28.782061
69.735 28.908323
69.740 28.715372
69.745 28.848745
69.750 28.820766
69.755 28.702824
69.760 28.832247
69.765 28.950247
69.770 28.40144
69.775 28.253424
69.780 28.365654
69.785 28.840883
69.790 28.494001
69.795 28.07696
69.800 28.131042
69.805 28.29711
69.810 27.788616
69.815 27.254799
69.820 26.757383
69.825 26.658255
69.830 26.285183
69.835 25.567505
69.840 24.73752
69.845 24.359726
69.850 24.411846
69.855 23.911692
69.860 23.819725
69.865 24.110945
69.870 24.559084
69.875 24.266703
69.880 24.211977
69.885 24.461256
69.890 24.56745
69.895 24.865511
69.900 24.753351
69.905 24.949453
69.910 25.049826
69.915 24.687981
69.920 24.563641
69.925 25.163799
69.930 24.438623
69.935 24.274492
69.940 23.616896
69.945 23.868328
69.950 23.953484
69.955 23.851139
69.960 23.654072
69.965 23.832699
69.970 23.584894
69.975 23.213865
69.980 22.941519
69.985 22.837204
69.990 22.267395
69.995 21.184669
70.000 20.357471
70.005 20.405083
70.010 20.628111
70.015 20.446611
70.020 20.331121
70.025 20.578012
70.030 21.100237
70.035 22.043068
70.040 22.006889
70.045 22.167316
70.050 22.161421
70.055 21.877798
70.060 20.802349
70.065 20.402517
70.070 19.860184
70.075 20.376595
70.080 19.907255
70.085 20.138321
70.090 19.926054
70.095 20.500828
70.100 20.849831
70.105 20.260107
70.110 20.209351
70.115 20.019646
70.120 20.151075
70.125 20.764044
70.130 20.630095
70.135 20.098381
70.140 19.956743
70.145 20.162466
70.150 20.167093
70.155 19.555796
70.160 19.224272
70.165 19.142756
70.170 19.29051
70.175 19.094196
70.180 19.286789
70.185 19.608629
70.190 20.064137
70.195 19.989296
70.200 20.00276
70.205 20.46612
70.210 20.151545
70.215 20.311255
70.220 19.953972
70.225 19.751308
70.230 20.65645
70.235 20.307648
70.240 20.410944
70.245 20.446596
70.250 20.698868
70.255 21.289661
70.260 20.947502
70.265 20.323603
70.270 20.950809
70.275 20.3806
70.280 19.674185
70.285 19.311312
70.290 18.692385
70.295 18.271749
70.300 18.295757
70.305 18.348955
70.310 18.820078
70.315 19.372564
70.320 19.63954
70.325 20.328917
70.330 20.829142
70.335 20.69792
70.340 20.331867
70.345 20.097923
70.350 19.747454
70.355 19.425535
70.360 18.740501
70.365 18.200865
70.370 17.730192
70.375 17.559097
70.380 17.491411
70.385 17.535379
70.390 17.57234
70.395 18.201668
70.400 18.300333
70.405 18.752464
70.410 18.933872
70.415 19.053787
70.420 19.147543
70.425 18.736965
70.430 18.451374
70.435 18.387245
70.440 18.55217
70.445 18.989008
70.450 19.037432
70.455 19.055477
70.460 19.509346
70.465 19.784313
70.470 19.754837
70.475 19.770401
70.480 18.795654
70.485 18.6511
70.490 18.741369
70.495 18.803587
70.500 19.033176
70.505 18.745193
70.510 19.155838
70.515 19.548742
70.520 19.368534
70.525 19.505976
70.530 19.157959
70.535 19.81291
70.540 20.092306
70.545 19.339294
70.550 19.300951
70.555 19.098455
70.560 19.173735
70.565 19.663429
70.570 19.223152
70.575 19.008627
70.580 19.398638
70.585 19.937046
70.590 20.471109
70.595 20.407787
70.600 19.773518
70.605 19.928429
70.610 20.210661
70.615 20.051744
70.620 19.804024
70.625 20.007698
70.630 19.601107
70.635 19.245691
70.640 18.973274
70.645 19.580435
70.650 19.749554
70.655 19.429228
70.660 18.727926
70.665 18.718298
70.670 19.49526
70.675 19.924271
70.680 19.182741
70.685 18.947542
70.690 19.214792
70.695 19.909569
70.700 19.600502
70.705 18.748447
70.710 18.074814
70.715 18.063923
70.720 18.21628
70.725 17.844269
70.730 17.895369
70.735 18.280807
70.740 18.634377
70.745 18.66993
70.750 19.061037
70.755 18.854826
70.760 18.872499
70.765 18.547033
70.770 18.680172
70.775 19.191177
70.780 19.168699
70.785 17.952705
70.790 17.88657
70.795 17.580925
70.800 17.632622
70.805 17.370497
70.810 17.005354
70.815 17.361256
70.820 19.225058
70.825 19.191582
70.830 19.220814
70.835 18.877907
70.840 19.009361
70.845 19.724689
70.850 19.39057
70.855 18.986851
70.860 19.392523
70.865 19.903971
70.870 20.075432
70.875 19.906414
70.880 19.714245
70.885 19.808035
70.890 19.375265
70.895 19.512625
70.900 19.416309
70.905 18.87747
70.910 18.256863
70.915 17.865679
70.920 17.626127
70.925 17.341175
70.930 16.842062
70.935 16.52545
70.940 16.700438
70.945 17.203548
70.950 17.614729
70.955 17.833998
70.960 18.850603
70.965 19.446646
70.970 19.488583
70.975 19.51075
70.980 19.322287
70.985 19.277023
70.990 19.353773
70.995 18.884251
71.000 18.529486
71.005 18.52915
71.010 18.393047
71.015 18.296776
71.020 18.306841
71.025 17.753736
71.030 17.398621
71.035 17.906223
71.040 18.283894
71.045 18.562662
71.050 18.651379
71.055 18.365971
71.060 18.123753
71.065 18.168907
71.070 17.710627
71.075 17.83634
71.080 17.629665
71.085 17.196409
71.090 17.247364
71.095 17.838366
71.100 18.400738
71.105 18.71339
71.110 18.182055
71.115 18.262709
71.120 18.483561
71.125 18.49588
71.130 18.426796
71.135 17.988342
71.140 17.315447
71.145 17.648462
71.150 17.932516
71.155 17.912844
71.160 18.183504
71.165 17.885765
71.170 18.078409
71.175 18.805965
71.180 18.660765
71.185 18.188793
71.190 18.03327
71.195 18.317533
71.200 18.0079
71.205 18.3559
71.210 18.524445
71.215 18.670706
71.220 18.96233
71.225 19.235611
71.230 19.053436
71.235 19.34075
71.240 19.02302
71.245 18.529783
71.250 17.955509
71.255 17.57765
71.260 16.927853
71.265 16.694353
71.270 16.661327
71.275 16.061049
71.280 16.273741
71.285 17.444895
71.290 18.052635
71.295 18.858385
71.300 18.767967
71.305 19.426544
71.310 20.296619
71.315 20.610605
71.320 20.684013
71.325 20.479549
71.330 20.578148
71.335 20.766417
71.340 20.10981
71.345 19.945721
71.350 20.016903
71.355 19.829168
71.360 19.128242
71.365 18.680962
71.370 18.660164
71.375 18.707209
71.380 18.364071
71.385 18.340172
71.390 18.069925
71.395 18.61937
71.400 18.900459
71.405 19.651674
71.410 20.107504
71.415 19.879074
71.420 19.592314
71.425 20.078001
71.430 19.730152
71.435 18.989521
71.440 18.414375
71.445 18.913445
71.450 19.2279
71.455 19.400194
71.460 19.276237
71.465 19.650082
71.470 19.763477
71.475 19.41847
71.480 18.684795
71.485 18.487196
71.490 18.277987
71.495 18.134653
71.500 18.201952
71.505 18.521696
71.510 18.529005
71.515 18.570719
71.520 18.649731
71.525 18.577663
71.530 18.339233
71.535 18.217932
71.540 17.946365
71.545 18.203131
71.550 18.617342
71.555 18.337761
71.560 18.641788
71.565 18.942572
71.570 18.794643
71.575 19.235682
71.580 18.884335
71.585 19.085619
71.590 19.417103
71.595 19.206379
71.600 19.398952
71.605 19.809122
71.610 19.49538
71.615 19.568811
71.620 19.166279
71.625 18.806005
71.630 18.951139
71.635 19.406685
71.640 19.744713
71.645 19.544464
71.650 19.793501
71.655 20.11322
71.660 20.493902
71.665 20.338598
71.670 19.358246
71.675 19.273455
71.680 19.47443
71.685 19.304392
71.690 18.952757
71.695 18.88352
71.700 19.115873
71.705 19.264992
71.710 18.655136
71.715 18.334852
71.720 18.652576
71.725 18.460138
71.730 18.276665
71.735 17.777287
71.740 17.75494
71.745 18.640129
71.750 19.242594
71.755 19.238762
71.760 19.571041
71.765 19.358131
71.770 19.354809
71.775 18.826235
71.780 18.274117
71.785 17.566385
71.790 17.171455
71.795 17.008644
71.800 17.560591
71.805 17.558195
71.810 17.50737
71.815 17.436945
71.820 17.439825
71.825 17.620155
71.830 17.642073
71.835 17.517754
71.840 17.701456
71.845 18.254969
71.850 19.174711
71.855 19.602903
71.860 19.778784
71.865 19.134989
71.870 19.22275
71.875 19.516926
71.880 18.980415
71.885 18.415897
71.890 18.56011
71.895 19.271753
71.900 19.464899
71.905 19.136784
71.910 18.635363
71.915 18.15197
71.920 17.650105
71.925 17.05982
71.930 16.078558
71.935 16.532486
71.940 16.796129
71.945 17.050207
71.950 17.335047
71.955 17.607937
71.960 17.987026
71.965 18.252417
71.970 18.282299
71.975 18.028831
71.980 18.654415
71.985 19.049721
71.990 18.537973
71.995 18.356405
72.000 18.5973
72.005 18.005468
72.010 17.800522
72.015 17.625381
72.020 18.082836
72.025 18.139774
72.030 18.231516
72.035 18.220852
72.040 18.91011
72.045 19.143555
72.050 18.911686
72.055 18.828724
72.060 18.612223
72.065 18.114235
72.070 18.10931
72.075 17.839243
72.080 17.84646
72.085 17.452991
72.090 17.324188
72.095 17.314871
72.100 17.597351
72.105 17.719475
72.110 17.756735
72.115 17.432306
72.120 17.194815
72.125 17.153212
72.130 16.984999
72.135 17.229767
72.140 17.157784
72.145 17.267006
72.150 17.739525
72.155 18.578432
72.160 19.214462
72.165 19.07725
72.170 19.267324
72.175 19.410049
72.180 19.335217
72.185 19.016453
72.190 18.401333
72.195 18.511795
72.200 18.611223
72.205 18.1672
72.210 17.962831
72.215 17.554285
72.220 17.800335
72.225 17.651138
72.230 17.305941
72.235 16.851973
72.240 16.599438
72.245 16.746521
72.250 17.261688
72.255 17.326944
72.260 17.47681
72.265 17.360762
72.270 17.997875
72.275 18.165174
72.280 18.054703
72.285 17.753544
72.290 17.498306
72.295 17.44677
72.300 17.884796
72.305 17.574007
72.310 17.974894
72.315 18.132595
72.320 17.427135
72.325 17.420177
72.330 18.23554
72.335 18.67094
72.340 18.675245
72.345 18.137453
72.350 18.322769
72.355 18.712599
72.360 18.504038
72.365 17.555826
72.370 17.14443
72.375 17.022005
72.380 17.063616
72.385 17.692944
72.390 17.761045
72.395 17.97534
72.400 18.156269
72.405 18.620625
72.410 19.291405
72.415 19.147762
72.420 19.071104
72.425 18.88711
72.430 18.770876
72.435 19.195967
72.440 18.70134
72.445 18.131155
72.450 17.84551
72.455 17.558228
72.460 17.802135
72.465 17.749172
72.470 17.463221
72.475 17.547981
72.480 17.614498
72.485 17.612638
72.490 17.07271
72.495 16.81188
72.500 16.585819
72.505 16.300009
72.510 16.46771
72.515 16.512362
72.520 17.370264
72.525 18.494135
72.530 18.289114
72.535 18.283644
72.540 18.358583
72.545 18.526258
72.550 18.95318
72.555 18.37294
72.560 18.884459
72.565 19.275084
72.570 19.10306
72.575 18.919966
72.580 18.900972
72.585 19.101082
72.590 18.952503
72.595 18.678024
72.600 19.03783
72.605 19.076626
72.610 18.655962
72.615 18.206005
72.620 17.802414
72.625 17.254608
72.630 17.043058
72.635 17.035402
72.640 17.057882
72.645 17.313084
72.650 17.022312
72.655 16.910372
72.660 16.533596
72.665 16.215487
72.670 16.518488
72.675 16.984396
72.680 16.978582
72.685 17.516521
72.690 17.904242
72.695 18.391022
72.700 17.902235
72.705 17.769764
72.710 17.733797
72.715 17.716208
72.720 17.480453
72.725 17.456556
72.730 17.776976
72.735 17.600859
72.740 17.419353
72.745 17.482887
72.750 17.442236
72.755 17.553171
72.760 17.690485
72.765 17.602722
72.770 17.671122
72.775 17.577362
72.780 17.849052
72.785 18.148096
72.790 17.556013
72.795 17.288013
72.800 17.746799
72.805 17.888924
72.810 18.068523
72.815 17.710476
72.820 17.110296
72.825 17.238569
72.830 16.917423
72.835 16.953503
72.840 16.967106
72.845 17.037169
72.850 17.1446
72.855 17.357441
72.860 17.306833
72.865 16.755789
72.870 16.77676
72.875 16.323898
72.880 16.015547
72.885 16.047493
72.890 16.125668
72.895 16.641455
72.900 16.732151
72.905 16.718805
72.910 16.822746
72.915 16.693645
72.920 16.786549
72.925 16.232248
72.930 16.173697
72.935 16.095392
72.940 15.972368
72.945 16.420193
72.950 16.2024
72.955 16.474979
72.960 16.966997
72.965 17.10816
72.970 17.083561
72.975 17.614126
72.980 18.184046
72.985 18.755993
72.990 18.605551
72.995 18.277145
73.000 18.259272
