!@!!GADDS PLOTSO FILE: Chi integration type
!@!!Title/SampleName: map-b5
!@!!Comment: ?
!@!!User: Bruker Instrument Administrator
!@!!Site: University of Illinois Chicago
!@!!Frame: map-b5_01_000.gfrm
!@!!Wavelengths    1.54184   1.54056   1.54439
!@!!Frame angles: 2Theta: 63.000 Omega: 50.000 Phi: 0.000 Chi: 90.000
!@!!Integration range: 2Theta: 53.000 to 73.000  Gamma: -105.000 to -75.000
!@!!Integration method: bin normalized
!@!N
!@!SS
!@!M
!@!L 0.0 0.0 0.0 0.0
!@!XDegrees
!@!YCounts
53.000 9.333914
53.005 9.520934
53.010 9.445308
53.015 9.577306
53.020 9.532725
53.025 9.071656
53.030 8.622943
53.035 8.0702
53.040 7.902291
53.045 8.135944
53.050 7.775001
53.055 7.919418
53.060 8.072087
53.065 8.199971
53.070 8.379498
53.075 8.10587
53.080 8.359093
53.085 8.57985
53.090 8.799627
53.095 8.932466
53.100 9.180141
53.105 9.760139
53.110 9.861392
53.115 9.522135
53.120 9.109342
53.125 8.868697
53.130 8.93265
53.135 8.722961
53.140 8.587676
53.145 8.742458
53.150 9.02765
53.155 8.985905
53.160 9.510143
53.165 10.246747
53.170 10.446826
53.175 10.498564
53.180 10.616175
53.185 11.033825
53.190 11.44115
53.195 10.524789
53.200 10.159474
53.205 9.920357
53.210 9.800329
53.215 9.81676
53.220 9.387658
53.225 9.138414
53.230 9.295451
53.235 8.742309
53.240 8.929096
53.245 9.01579
53.250 9.009928
53.255 9.066812
53.260 9.319457
53.265 9.440761
53.270 9.350781
53.275 9.27385
53.280 9.024179
53.285 9.299859
53.290 9.525019
53.295 9.620635
53.300 9.83411
53.305 10.13873
53.310 10.362738
53.315 10.541319
53.320 10.073939
53.325 10.070697
53.330 9.779467
53.335 9.458709
53.340 9.09635
53.345 9.119037
53.350 8.737953
53.355 8.896709
53.360 8.83364
53.365 8.985672
53.370 9.067122
53.375 8.892705
53.380 8.816068
53.385 8.902061
53.390 8.510172
53.395 8.728454
53.400 9.397899
53.405 9.881662
53.410 9.921115
53.415 10.12204
53.420 10.130699
53.425 10.409913
53.430 9.748363
53.435 9.360716
53.440 9.349931
53.445 9.223343
53.450 9.225993
53.455 9.557428
53.460 9.907862
53.465 10.649472
53.470 10.261376
53.475 10.516165
53.480 10.788656
53.485 10.662035
53.490 10.819512
53.495 10.320289
53.500 9.972041
53.505 9.914225
53.510 9.219033
53.515 9.07516
53.520 9.377853
53.525 9.239683
53.530 9.291824
53.535 9.587667
53.540 9.780502
53.545 10.255744
53.550 10.274993
53.555 9.83339
53.560 10.36829
53.565 10.127972
53.570 10.112506
53.575 10.638124
53.580 10.465788
53.585 10.22156
53.590 10.185738
53.595 10.01158
53.600 10.080523
53.605 9.794983
53.610 9.303703
53.615 9.672228
53.620 9.727261
53.625 9.093451
53.630 8.803443
53.635 8.834141
53.640 9.13192
53.645 9.23413
53.650 8.99823
53.655 9.097813
53.660 9.206738
53.665 9.61459
53.670 9.691488
53.675 9.617982
53.680 9.718243
53.685 9.447297
53.690 9.585977
53.695 9.48976
53.700 9.233794
53.705 9.684402
53.710 9.960621
53.715 9.78729
53.720 9.812353
53.725 10.101697
53.730 11.135712
53.735 11.19588
53.740 10.895797
53.745 10.775848
53.750 10.914314
53.755 10.89202
53.760 10.539918
53.765 9.965588
53.770 9.939706
53.775 10.311862
53.780 10.718534
53.785 10.75234
53.790 10.813002
53.795 10.626416
53.800 10.218484
53.805 9.901399
53.810 9.196892
53.815 9.194583
53.820 9.611001
53.825 10.035387
53.830 10.147698
53.835 10.711489
53.840 10.818533
53.845 10.959708
53.850 11.020226
53.855 10.646289
53.860 10.555975
53.865 10.753428
53.870 10.991839
53.875 11.039727
53.880 10.63631
53.885 10.263512
53.890 10.120247
53.895 10.191278
53.900 9.785682
53.905 9.506678
53.910 9.664668
53.915 9.937093
53.920 10.153849
53.925 10.32923
53.930 9.759967
53.935 9.958469
53.940 9.738977
53.945 9.531839
53.950 9.1547
53.955 8.847721
53.960 8.82351
53.965 9.404376
53.970 9.583026
53.975 9.572203
53.980 9.686489
53.985 10.556555
53.990 10.623184
53.995 10.698479
54.000 10.597953
54.005 10.29406
54.010 10.189951
54.015 9.727017
54.020 9.526092
54.025 9.769614
54.030 9.606736
54.035 9.615435
54.040 9.66991
54.045 10.189099
54.050 10.419968
54.055 10.38706
54.060 10.277078
54.065 10.209464
54.070 10.640367
54.075 10.907402
54.080 11.134778
54.085 10.923268
54.090 10.705597
54.095 10.517979
54.100 10.093324
54.105 10.00386
54.110 9.9907
54.115 9.66844
54.120 9.600553
54.125 9.943188
54.130 10.506681
54.135 10.981267
54.140 10.985494
54.145 11.035132
54.150 11.31487
54.155 11.845016
54.160 11.577432
54.165 11.81267
54.170 11.695742
54.175 11.706194
54.180 11.848172
54.185 11.962201
54.190 11.601929
54.195 11.511687
54.200 11.438492
54.205 11.568802
54.210 11.444967
54.215 11.509929
54.220 11.378237
54.225 11.576628
54.230 11.657554
54.235 11.731055
54.240 11.288035
54.245 11.301092
54.250 11.199599
54.255 11.206608
54.260 11.327743
54.265 10.906525
54.270 10.129543
54.275 10.213675
54.280 10.158635
54.285 10.382594
54.290 10.312805
54.295 10.485341
54.300 10.688425
54.305 10.955966
54.310 10.673378
54.315 10.145967
54.320 9.658089
54.325 9.411678
54.330 8.821739
54.335 8.850454
54.340 8.613573
54.345 8.900124
54.350 9.458818
54.355 9.720804
54.360 9.89362
54.365 10.243965
54.370 10.497522
54.375 10.898717
54.380 10.758813
54.385 10.561806
54.390 10.415563
54.395 10.298127
54.400 9.918954
54.405 10.241387
54.410 9.996236
54.415 10.040206
54.420 10.156305
54.425 10.434424
54.430 10.565244
54.435 10.853724
54.440 10.786656
54.445 10.863262
54.450 10.562222
54.455 10.410116
54.460 10.361523
54.465 9.77741
54.470 9.553745
54.475 9.516982
54.480 9.770278
54.485 9.916731
54.490 10.095548
54.495 10.668781
54.500 11.15126
54.505 11.815872
54.510 11.855651
54.515 12.254654
54.520 12.186483
54.525 12.016509
54.530 12.009871
54.535 12.238432
54.540 11.896566
54.545 11.898359
54.550 12.068622
54.555 12.551703
54.560 12.161483
54.565 11.867433
54.570 11.596501
54.575 11.454532
54.580 11.264883
54.585 11.095523
54.590 11.078941
54.595 10.753333
54.600 10.943797
54.605 11.393289
54.610 11.460641
54.615 11.254394
54.620 10.96294
54.625 11.229934
54.630 11.483607
54.635 11.102176
54.640 10.973691
54.645 11.161415
54.650 10.935571
54.655 10.777226
54.660 10.598396
54.665 10.655575
54.670 10.406393
54.675 9.876286
54.680 9.532091
54.685 9.611485
54.690 9.627314
54.695 9.705517
54.700 9.850643
54.705 10.178884
54.710 10.385093
54.715 10.838161
54.720 10.865671
54.725 11.092353
54.730 11.17279
54.735 11.037676
54.740 10.937418
54.745 10.774254
54.750 10.742438
54.755 10.620649
54.760 10.147433
54.765 9.856759
54.770 9.806651
54.775 10.010466
54.780 10.014045
54.785 9.980011
54.790 10.500338
54.795 10.755545
54.800 11.163794
54.805 11.741705
54.810 11.368815
54.815 11.198814
54.820 11.116025
54.825 11.047989
54.830 10.799159
54.835 10.385409
54.840 9.959013
54.845 10.802888
54.850 11.572426
54.855 12.019288
54.860 11.974487
54.865 12.248273
54.870 12.43824
54.875 12.31244
54.880 12.375948
54.885 12.291769
54.890 11.940798
54.895 12.444297
54.900 12.683856
54.905 13.12173
54.910 13.172066
54.915 12.381042
54.920 12.200547
54.925 12.158776
54.930 11.611054
54.935 11.345694
54.940 11.284154
54.945 11.708036
54.950 11.976076
54.955 12.222813
54.960 12.480062
54.965 12.156154
54.970 11.712949
54.975 11.299754
54.980 11.092088
54.985 10.628153
54.990 10.150747
54.995 10.080924
55.000 10.023741
55.005 10.55578
55.010 11.086003
55.015 11.063593
55.020 11.41604
55.025 11.580051
55.030 11.650669
55.035 12.027085
55.040 12.058437
55.045 12.042689
55.050 11.689901
55.055 11.680891
55.060 11.302435
55.065 11.437574
55.070 11.477052
55.075 10.827709
55.080 10.738213
55.085 11.238463
55.090 11.174318
55.095 11.37843
55.100 11.802686
55.105 12.182681
55.110 12.430739
55.115 12.569061
55.120 12.634747
55.125 12.321188
55.130 12.141164
55.135 11.658272
55.140 11.170362
55.145 11.411632
55.150 11.436425
55.155 11.717512
55.160 12.025915
55.165 11.855742
55.170 11.836765
55.175 11.833536
55.180 11.984944
55.185 12.101306
55.190 12.161511
55.195 11.899291
55.200 11.771617
55.205 12.13938
55.210 12.392371
55.215 11.7874
55.220 11.617554
55.225 11.829809
55.230 12.185541
55.235 12.928667
55.240 12.969441
55.245 13.136638
55.250 13.64217
55.255 13.597564
55.260 13.468342
55.265 13.481802
55.270 13.511704
55.275 13.373194
55.280 13.114393
55.285 12.714664
55.290 13.211068
55.295 13.317226
55.300 12.962935
55.305 12.524594
55.310 12.294494
55.315 12.022477
55.320 11.83178
55.325 10.753939
55.330 10.514823
55.335 10.526854
55.340 10.451539
55.345 10.107008
55.350 10.420102
55.355 10.722698
55.360 11.235993
55.365 11.256179
55.370 11.249245
55.375 10.940694
55.380 11.210935
55.385 11.282633
55.390 11.432549
55.395 11.573442
55.400 11.770997
55.405 11.542353
55.410 11.846222
55.415 12.274767
55.420 12.637773
55.425 12.852371
55.430 12.25745
55.435 11.748636
55.440 11.984052
55.445 11.658731
55.450 11.150908
55.455 10.557998
55.460 10.536029
55.465 11.141538
55.470 11.095989
55.475 11.352085
55.480 11.902421
55.485 11.962402
55.490 12.064751
55.495 12.155094
55.500 12.273848
55.505 12.9885
55.510 12.675028
55.515 12.209522
55.520 12.434194
55.525 12.17262
55.530 11.73717
55.535 11.927264
55.540 11.681568
55.545 11.799332
55.550 11.825029
55.555 11.49113
55.560 11.465569
55.565 11.512499
55.570 10.875772
55.575 10.559832
55.580 11.028183
55.585 11.298507
55.590 11.471705
55.595 11.85877
55.600 12.115021
55.605 12.340635
55.610 12.232183
55.615 11.424657
55.620 11.412293
55.625 11.410267
55.630 10.748902
55.635 10.516313
55.640 10.112627
55.645 10.232595
55.650 10.537335
55.655 10.042065
55.660 10.149663
55.665 10.015644
55.670 9.949311
55.675 10.696172
55.680 10.924269
55.685 10.970757
55.690 11.446342
55.695 11.482712
55.700 12.591488
55.705 13.150028
55.710 12.809419
55.715 12.67771
55.720 12.868263
55.725 12.622003
55.730 12.514774
55.735 11.885201
55.740 11.836693
55.745 11.93708
55.750 11.870017
55.755 11.615792
55.760 11.369023
55.765 10.875554
55.770 10.778887
55.775 10.964776
55.780 11.152152
55.785 11.340752
55.790 11.708934
55.795 12.312922
55.800 12.947179
55.805 13.323361
55.810 13.561384
55.815 13.513982
55.820 13.656622
55.825 13.85607
55.830 13.638509
55.835 13.593805
55.840 13.079885
55.845 12.774978
55.850 12.924753
55.855 12.937251
55.860 12.758101
55.865 13.269867
55.870 13.412021
55.875 14.126976
55.880 14.088497
55.885 14.29133
55.890 14.145895
55.895 14.267493
55.900 13.757272
55.905 13.727483
55.910 13.697401
55.915 14.10673
55.920 13.672499
55.925 13.560756
55.930 13.448097
55.935 13.904408
55.940 13.727168
55.945 13.895885
55.950 13.806225
55.955 13.891337
55.960 14.260914
55.965 14.128425
55.970 13.688202
55.975 13.207536
55.980 12.423576
55.985 12.048658
55.990 11.725849
55.995 11.382269
56.000 11.85088
56.005 11.95239
56.010 12.660268
56.015 13.343623
56.020 13.687175
56.025 13.930413
56.030 13.79536
56.035 13.221249
56.040 13.128124
56.045 12.751486
56.050 12.54734
56.055 12.424153
56.060 12.41353
56.065 12.428384
56.070 12.095062
56.075 11.973233
56.080 12.020522
56.085 11.894279
56.090 11.681921
56.095 11.845959
56.100 12.325828
56.105 12.930407
56.110 13.05094
56.115 12.858269
56.120 12.47219
56.125 12.29271
56.130 11.727592
56.135 11.441905
56.140 11.379608
56.145 11.915184
56.150 12.135894
56.155 12.456049
56.160 12.337886
56.165 12.622934
56.170 12.658498
56.175 12.328463
56.180 12.270929
56.185 12.094908
56.190 11.706712
56.195 11.961835
56.200 12.301614
56.205 12.831015
56.210 13.148767
56.215 13.042136
56.220 13.706801
56.225 14.27196
56.230 14.765429
56.235 14.385571
56.240 14.088599
56.245 14.15113
56.250 13.478658
56.255 13.391226
56.260 13.621283
56.265 13.240491
56.270 13.395783
56.275 13.576427
56.280 13.553331
56.285 14.172541
56.290 14.246009
56.295 14.426713
56.300 14.401705
56.305 14.173029
56.310 13.791179
56.315 13.986668
56.320 13.568362
56.325 13.335716
56.330 12.834913
56.335 12.666534
56.340 12.891169
56.345 12.850865
56.350 13.090841
56.355 13.289989
56.360 13.336142
56.365 13.839195
56.370 14.345399
56.375 13.831976
56.380 13.33569
56.385 12.701449
56.390 12.862745
56.395 12.165998
56.400 11.527939
56.405 10.958063
56.410 11.569008
56.415 12.271362
56.420 12.670672
56.425 12.883243
56.430 13.249426
56.435 13.72542
56.440 14.135041
56.445 13.99483
56.450 13.484159
56.455 12.929487
56.460 13.04097
56.465 13.264868
56.470 12.510645
56.475 12.465991
56.480 12.743013
56.485 13.05812
56.490 13.525126
56.495 13.10467
56.500 13.152412
56.505 13.318364
56.510 13.183234
56.515 13.391861
56.520 13.374907
56.525 13.453166
56.530 13.901075
56.535 13.823546
56.540 14.171178
56.545 14.542663
56.550 14.36332
56.555 14.049151
56.560 13.732825
56.565 13.637026
56.570 13.72922
56.575 13.289268
56.580 12.857344
56.585 12.76406
56.590 13.07948
56.595 13.674082
56.600 13.44422
56.605 13.458043
56.610 13.631419
56.615 14.164791
56.620 14.493625
56.625 14.265768
56.630 13.783505
56.635 13.543299
56.640 13.311939
56.645 13.198377
56.650 11.906063
56.655 11.325209
56.660 11.293976
56.665 11.758919
56.670 12.003854
56.675 11.944338
56.680 12.202675
56.685 12.770181
56.690 12.945373
56.695 12.570186
56.700 12.097383
56.705 12.25512
56.710 12.659983
56.715 13.197597
56.720 13.528013
56.725 14.093492
56.730 14.558184
56.735 15.201078
56.740 15.642172
56.745 15.50207
56.750 15.255843
56.755 14.91642
56.760 15.089161
56.765 14.349385
56.770 14.104984
56.775 13.733134
56.780 13.509584
56.785 13.253195
56.790 13.365922
56.795 13.273785
56.800 13.501021
56.805 13.301126
56.810 13.756763
56.815 14.080494
56.820 14.456043
56.825 14.895455
56.830 15.261316
56.835 15.986222
56.840 16.385265
56.845 16.382391
56.850 16.510199
56.855 16.058277
56.860 15.39642
56.865 14.698772
56.870 14.462661
56.875 14.13856
56.880 13.491176
56.885 13.558017
56.890 13.458646
56.895 13.254174
56.900 13.361052
56.905 12.841177
56.910 12.449637
56.915 12.871062
56.920 12.826068
56.925 13.24227
56.930 13.73153
56.935 14.23108
56.940 14.137376
56.945 14.393394
56.950 14.223121
56.955 14.466835
56.960 14.397323
56.965 14.103201
56.970 13.686562
56.975 14.026737
56.980 14.388185
56.985 14.252724
56.990 14.111576
56.995 14.134279
57.000 14.041721
57.005 13.695013
57.010 13.689629
57.015 13.934069
57.020 13.845826
57.025 13.830405
57.030 13.735909
57.035 13.957188
57.040 14.336016
57.045 14.209099
57.050 13.865359
57.055 14.502888
57.060 14.409753
57.065 14.781689
57.070 15.396107
57.075 15.500622
57.080 15.063456
57.085 14.689758
57.090 14.035066
57.095 13.925778
57.100 13.183679
57.105 12.440261
57.110 12.387984
57.115 12.756339
57.120 12.260725
57.125 12.766665
57.130 13.053416
57.135 13.457081
57.140 13.858095
57.145 13.885443
57.150 14.236292
57.155 14.756632
57.160 14.475522
57.165 14.556591
57.170 14.477086
57.175 14.385419
57.180 14.545068
57.185 14.403123
57.190 13.942858
57.195 13.404663
57.200 13.069459
57.205 13.000575
57.210 13.203535
57.215 12.76574
57.220 12.366481
57.225 12.307998
57.230 12.486919
57.235 12.482397
57.240 12.272596
57.245 12.204283
57.250 12.395468
57.255 12.758086
57.260 12.922861
57.265 13.60351
57.270 13.870716
57.275 14.040133
57.280 13.913358
57.285 13.725496
57.290 13.613209
57.295 13.893312
57.300 13.832867
57.305 14.746197
57.310 14.959663
57.315 14.860647
57.320 15.660994
57.325 16.613407
57.330 17.037966
57.335 16.602278
57.340 15.7015
57.345 15.726516
57.350 15.532774
57.355 15.437286
57.360 15.479465
57.365 15.023645
57.370 15.138268
57.375 15.513179
57.380 15.777098
57.385 15.912737
57.390 15.887401
57.395 15.382183
57.400 15.733315
57.405 15.738879
57.410 15.520509
57.415 15.222008
57.420 15.562187
57.425 15.234509
57.430 14.741899
57.435 14.367449
57.440 14.309271
57.445 14.321518
57.450 14.185545
57.455 14.148213
57.460 13.94961
57.465 14.37588
57.470 14.516955
57.475 14.353812
57.480 14.267739
57.485 14.36927
57.490 14.327202
57.495 14.841469
57.500 14.544847
57.505 14.407164
57.510 14.431478
57.515 14.670058
57.520 14.569617
57.525 14.293919
57.530 13.905643
57.535 13.951573
57.540 14.12573
57.545 13.521158
57.550 13.153477
57.555 13.593838
57.560 14.220082
57.565 14.716245
57.570 15.182836
57.575 14.983367
57.580 15.791572
57.585 16.371944
57.590 16.383623
57.595 15.716085
57.600 15.630207
57.605 15.39527
57.610 15.508347
57.615 15.235086
57.620 15.329386
57.625 15.632442
57.630 15.857201
57.635 15.814573
57.640 15.821027
57.645 15.862632
57.650 15.794656
57.655 15.496361
57.660 15.601422
57.665 15.642518
57.670 15.401383
57.675 15.207724
57.680 14.791446
57.685 14.527496
57.690 14.413526
57.695 14.060852
57.700 14.07841
57.705 14.103707
57.710 14.140241
57.715 14.191434
57.720 14.572598
57.725 14.737901
57.730 15.414689
57.735 15.673162
57.740 16.376936
57.745 16.619793
57.750 16.83073
57.755 16.671291
57.760 16.198881
57.765 15.097018
57.770 14.315231
57.775 14.077571
57.780 14.573263
57.785 14.864848
57.790 15.100098
57.795 15.854504
57.800 16.334242
57.805 16.735304
57.810 16.821913
57.815 17.370785
57.820 17.218348
57.825 16.809378
57.830 16.840031
57.835 17.510681
57.840 17.484524
57.845 17.039789
57.850 16.279528
57.855 16.198645
57.860 16.139793
57.865 15.526197
57.870 15.072731
57.875 15.232276
57.880 15.125059
57.885 15.283184
57.890 15.597995
57.895 15.515227
57.900 15.490541
57.905 15.278678
57.910 14.951401
57.915 15.123347
57.920 15.176771
57.925 15.184447
57.930 15.676596
57.935 16.091963
57.940 16.711224
57.945 17.305571
57.950 17.501471
57.955 17.164804
57.960 16.860016
57.965 16.956116
57.970 16.504223
57.975 16.583969
57.980 16.683029
57.985 16.241011
57.990 16.505308
57.995 16.291094
58.000 16.433741
58.005 17.115608
58.010 16.678614
58.015 16.834473
58.020 17.315464
58.025 17.32839
58.030 17.0769
58.035 16.543283
58.040 16.285677
58.045 15.708311
58.050 14.951974
58.055 14.95421
58.060 15.734228
58.065 16.348862
58.070 16.753414
58.075 17.228352
58.080 17.886497
58.085 17.978712
58.090 17.961876
58.095 18.097939
58.100 18.297626
58.105 18.408171
58.110 17.874893
58.115 17.505589
58.120 17.35181
58.125 17.067698
58.130 16.748255
58.135 17.166037
58.140 17.179222
58.145 17.549751
58.150 18.090618
58.155 18.474169
58.160 18.673466
58.165 18.448599
58.170 18.101881
58.175 18.269024
58.180 18.018499
58.185 18.143263
58.190 18.156055
58.195 17.976852
58.200 18.484997
58.205 18.373743
58.210 18.429243
58.215 18.937918
58.220 18.880095
58.225 18.851137
58.230 19.435656
58.235 18.919725
58.240 18.856518
58.245 19.029697
58.250 18.88975
58.255 18.886179
58.260 18.997955
58.265 18.675386
58.270 18.734568
58.275 19.245045
58.280 19.164209
58.285 19.768221
58.290 20.274166
58.295 20.688334
58.300 20.934282
58.305 21.130409
58.310 21.053663
58.315 20.549791
58.320 20.190887
58.325 20.238203
58.330 20.427479
58.335 20.930845
58.340 21.416502
58.345 21.488319
58.350 22.277401
58.355 22.486006
58.360 22.501238
58.365 22.509638
58.370 22.272835
58.375 22.318529
58.380 22.191616
58.385 21.831451
58.390 21.886501
58.395 21.623371
58.400 21.383352
58.405 21.006926
58.410 20.878073
58.415 20.947317
58.420 21.384157
58.425 21.48205
58.430 21.61149
58.435 21.633524
58.440 21.955723
58.445 22.277294
58.450 22.143572
58.455 21.34103
58.460 21.007488
58.465 20.93866
58.470 20.710657
58.475 20.710325
58.480 21.209461
58.485 21.498631
58.490 21.896952
58.495 21.93268
58.500 22.265049
58.505 22.883987
58.510 23.028593
58.515 22.836927
58.520 22.377363
58.525 22.249868
58.530 22.202688
58.535 22.386929
58.540 22.241192
58.545 22.161163
58.550 21.342289
58.555 21.376148
58.560 21.835966
58.565 21.873144
58.570 21.822617
58.575 22.357605
58.580 22.155245
58.585 23.209761
58.590 24.536818
58.595 24.973583
58.600 25.714031
58.605 25.528082
58.610 25.206364
58.615 25.265982
58.620 24.587776
58.625 24.292645
58.630 24.159533
58.635 23.549259
58.640 23.24896
58.645 22.584581
58.650 22.626425
58.655 22.465652
58.660 22.29653
58.665 22.451468
58.670 22.333632
58.675 22.483257
58.680 22.723299
58.685 22.354939
58.690 22.330469
58.695 22.336002
58.700 21.664717
58.705 21.710047
58.710 21.92185
58.715 22.266701
58.720 23.280699
58.725 23.630173
58.730 23.398825
58.735 23.466862
58.740 23.733152
58.745 23.486082
58.750 23.067923
58.755 22.442081
58.760 22.591684
58.765 22.597448
58.770 23.062588
58.775 22.819321
58.780 22.630995
58.785 22.174374
58.790 22.134068
58.795 21.664286
58.800 21.737392
58.805 21.823351
58.810 22.310444
58.815 22.561216
58.820 23.043619
58.825 23.10359
58.830 22.77565
58.835 22.768236
58.840 22.581566
58.845 22.345675
58.850 22.258547
58.855 21.711275
58.860 21.776115
58.865 21.85454
58.870 21.840509
58.875 21.806784
58.880 22.102823
58.885 22.644014
58.890 23.300364
58.895 23.740955
58.900 23.440176
58.905 22.398132
58.910 21.748758
58.915 21.748713
58.920 21.198755
58.925 20.656616
58.930 20.06855
58.935 20.137526
58.940 20.775551
58.945 21.358286
58.950 21.212816
58.955 21.633522
58.960 21.851732
58.965 22.283962
58.970 22.437218
58.975 22.851698
58.980 22.843977
58.985 22.186012
58.990 21.786509
58.995 21.325739
59.000 20.912907
59.005 20.928848
59.010 20.382687
59.015 20.551699
59.020 21.30966
59.025 21.60857
59.030 22.061977
59.035 22.289295
59.040 22.454189
59.045 22.338873
59.050 21.549185
59.055 20.89073
59.060 20.439516
59.065 20.235239
59.070 20.497606
59.075 20.080584
59.080 20.325676
59.085 20.282864
59.090 20.015596
59.095 20.081076
59.100 19.571291
59.105 18.675215
59.110 18.585445
59.115 18.015518
59.120 17.981583
59.125 17.685553
59.130 17.618273
59.135 17.537613
59.140 17.943464
59.145 18.784689
59.150 19.459383
59.155 20.231289
59.160 20.870207
59.165 21.299034
59.170 21.471806
59.175 21.275349
59.180 20.855396
59.185 20.326113
59.190 19.945951
59.195 19.734921
59.200 19.638802
59.205 19.879704
59.210 20.1082
59.215 20.379593
59.220 20.494749
59.225 20.303474
59.230 20.355822
59.235 19.963411
59.240 19.897909
59.245 19.689329
59.250 19.330011
59.255 19.459938
59.260 20.284676
59.265 20.85018
59.270 21.197998
59.275 21.121649
59.280 20.911865
59.285 20.938478
59.290 20.49353
59.295 19.49581
59.300 19.051748
59.305 19.427267
59.310 19.772036
59.315 19.892685
59.320 19.276665
59.325 19.447491
59.330 19.230867
59.335 19.204149
59.340 18.620413
59.345 18.852612
59.350 18.681841
59.355 18.506016
59.360 18.721373
59.365 19.235247
59.370 19.234877
59.375 19.417889
59.380 19.273214
59.385 19.25647
59.390 19.57296
59.395 19.059919
59.400 19.192198
59.405 19.276262
59.410 19.01717
59.415 18.579645
59.420 18.817291
59.425 18.721611
59.430 19.39682
59.435 18.924042
59.440 18.904127
59.445 19.171482
59.450 19.588825
59.455 19.415707
59.460 19.688599
59.465 19.641872
59.470 19.704924
59.475 19.601145
59.480 19.750252
59.485 19.812628
59.490 19.64563
59.495 19.30419
59.500 18.89979
59.505 18.983212
59.510 19.202171
59.515 18.997875
59.520 18.772568
59.525 18.843916
59.530 18.288969
59.535 17.933516
59.540 17.700716
59.545 17.463964
59.550 17.712778
59.555 17.445313
59.560 17.411942
59.565 17.711975
59.570 17.630432
59.575 17.776564
59.580 17.739283
59.585 17.033548
59.590 17.301825
59.595 17.359182
59.600 17.735422
59.605 18.349251
59.610 18.656452
59.615 18.381498
59.620 18.141985
59.625 18.347965
59.630 18.559935
59.635 18.434481
59.640 18.669928
59.645 18.10792
59.650 17.600393
59.655 17.467293
59.660 17.303146
59.665 16.568003
59.670 16.214151
59.675 15.993851
59.680 16.385538
59.685 17.112766
59.690 17.308458
59.695 17.397524
59.700 18.083233
59.705 18.077185
59.710 17.715696
59.715 17.586002
59.720 17.716639
59.725 18.271603
59.730 18.328484
59.735 18.565676
59.740 18.35564
59.745 17.904707
59.750 17.530565
59.755 17.509443
59.760 17.126488
59.765 17.306108
59.770 17.436728
59.775 17.95504
59.780 18.554007
59.785 18.734446
59.790 18.373016
59.795 18.608255
59.800 18.497684
59.805 18.329063
59.810 18.219755
59.815 18.138306
59.820 18.189468
59.825 18.764654
59.830 18.66468
59.835 18.598677
59.840 18.53421
59.845 18.581375
59.850 18.823757
59.855 18.92704
59.860 18.409798
59.865 18.427248
59.870 18.024622
59.875 17.612612
59.880 17.369364
59.885 17.038298
59.890 17.355316
59.895 17.615114
59.900 17.516893
59.905 17.848701
59.910 17.782665
59.915 17.577604
59.920 17.601534
59.925 16.959263
59.930 16.382149
59.935 15.612549
59.940 15.368633
59.945 15.772335
59.950 16.079174
59.955 16.26354
59.960 16.633238
59.965 17.095192
59.970 17.710571
59.975 17.405497
59.980 17.129112
59.985 16.712793
59.990 16.046679
59.995 15.77437
60.000 15.395316
60.005 15.432128
60.010 15.490026
60.015 15.190084
60.020 15.984365
60.025 16.804176
60.030 17.032766
60.035 17.462439
60.040 17.516813
60.045 17.698971
60.050 17.979658
60.055 17.739754
60.060 17.535469
60.065 17.254059
60.070 16.762611
60.075 16.768652
60.080 16.922352
60.085 16.637321
60.090 16.218552
60.095 16.151312
60.100 16.628468
60.105 17.179064
60.110 17.068394
60.115 17.154581
60.120 16.959408
60.125 17.142378
60.130 16.728067
60.135 16.463242
60.140 16.019329
60.145 15.891059
60.150 15.635115
60.155 15.606085
60.160 15.448346
60.165 15.087341
60.170 15.115481
60.175 15.397837
60.180 15.668701
60.185 15.929928
60.190 16.327297
60.195 16.451794
60.200 16.969215
60.205 17.494375
60.210 17.857426
60.215 17.758913
60.220 17.770611
60.225 17.69021
60.230 17.788567
60.235 17.718769
60.240 16.874706
60.245 16.500124
60.250 16.090847
60.255 15.952529
60.260 15.844562
60.265 15.576549
60.270 15.460692
60.275 15.275876
60.280 15.069499
60.285 15.364353
60.290 15.781048
60.295 15.477558
60.300 15.505118
60.305 15.505175
60.310 15.089649
60.315 14.845726
60.320 14.523869
60.325 14.669748
60.330 15.241118
60.335 15.332191
60.340 15.237466
60.345 16.031616
60.350 16.510374
60.355 16.889223
60.360 16.407055
60.365 16.374207
60.370 16.752785
60.375 17.148569
60.380 16.755516
60.385 16.11405
60.390 14.967091
60.395 15.700798
60.400 15.720673
60.405 15.537431
60.410 15.418908
60.415 15.63062
60.420 16.193274
60.425 16.850319
60.430 16.325384
60.435 15.901054
60.440 15.416569
60.445 15.760787
60.450 15.993501
60.455 15.791733
60.460 15.52967
60.465 15.244705
60.470 15.564692
60.475 15.978255
60.480 15.796402
60.485 15.936506
60.490 16.443783
60.495 16.671862
60.500 17.161219
60.505 17.282583
60.510 16.944201
60.515 16.938292
60.520 16.557817
60.525 16.080296
60.530 15.957853
60.535 15.287254
60.540 14.706382
60.545 15.043983
60.550 15.289687
60.555 15.299343
60.560 15.719664
60.565 16.041384
60.570 16.173264
60.575 16.647579
60.580 16.402409
60.585 16.902681
60.590 17.429813
60.595 17.358492
60.600 17.324945
60.605 17.365009
60.610 17.550896
60.615 17.552217
60.620 17.14694
60.625 16.841213
60.630 16.614332
60.635 16.495316
60.640 16.618292
60.645 16.615866
60.650 16.587835
60.655 16.351383
60.660 16.263094
60.665 16.320145
60.670 16.268995
60.675 17.109713
60.680 16.735409
60.685 16.625061
60.690 16.106148
60.695 15.799317
60.700 16.06802
60.705 16.175699
60.710 15.640483
60.715 16.063204
60.720 16.067978
60.725 16.458685
60.730 17.018724
60.735 17.20422
60.740 16.715227
60.745 16.662254
60.750 16.648932
60.755 16.574169
60.760 16.980333
60.765 16.772421
60.770 16.785252
60.775 16.804199
60.780 16.31251
60.785 16.852591
60.790 17.215048
60.795 16.977356
60.800 16.942791
60.805 16.491171
60.810 17.103745
60.815 18.095572
60.820 17.578022
60.825 17.527025
60.830 17.722504
60.835 17.947842
60.840 18.043249
60.845 17.84671
60.850 17.592268
60.855 17.847212
60.860 17.661936
60.865 17.027798
60.870 16.407494
60.875 15.943126
60.880 15.114543
60.885 14.690693
60.890 14.61269
60.895 14.867266
60.900 15.178052
60.905 15.658094
60.910 16.044519
60.915 16.623875
60.920 16.587618
60.925 15.91483
60.930 15.728093
60.935 16.036081
60.940 16.308872
60.945 16.567778
60.950 16.412626
60.955 16.270172
60.960 16.67775
60.965 16.798462
60.970 16.479431
60.975 16.250761
60.980 15.841663
60.985 15.447795
60.990 15.041428
60.995 15.406348
61.000 14.595826
61.005 14.877099
61.010 14.651467
61.015 14.886365
61.020 15.443156
61.025 15.753251
61.030 16.058521
61.035 16.461868
61.040 16.079647
61.045 15.797354
61.050 15.806129
61.055 15.563498
61.060 15.825119
61.065 15.255223
61.070 15.456885
61.075 15.392901
61.080 15.686235
61.085 15.317154
61.090 15.578718
61.095 15.247428
61.100 14.977035
61.105 14.672921
61.110 14.968379
61.115 15.184574
61.120 15.400426
61.125 15.089022
61.130 15.742607
61.135 16.280216
61.140 16.522028
61.145 16.49486
61.150 16.151487
61.155 16.432272
61.160 16.857834
61.165 16.456099
61.170 16.20569
61.175 15.81893
61.180 15.742553
61.185 16.344862
61.190 16.626156
61.195 16.316641
61.200 16.121979
61.205 15.911948
61.210 16.263542
61.215 16.596916
61.220 16.212101
61.225 16.223532
61.230 16.33987
61.235 16.292799
61.240 16.319637
61.245 16.72571
61.250 17.155857
61.255 17.669853
61.260 17.627256
61.265 17.681095
61.270 18.340952
61.275 18.303614
61.280 17.665747
61.285 17.057695
61.290 16.229277
61.295 16.072588
61.300 16.104939
61.305 15.852968
61.310 16.191893
61.315 16.368961
61.320 16.041307
61.325 15.884053
61.330 16.106718
61.335 15.999714
61.340 16.000242
61.345 15.587011
61.350 15.686188
61.355 16.149652
61.360 16.166967
61.365 16.035809
61.370 15.91007
61.375 16.258389
61.380 16.816242
61.385 16.756798
61.390 16.941336
61.395 17.116539
61.400 16.90176
61.405 17.051989
61.410 16.814959
61.415 16.504444
61.420 16.345182
61.425 16.019663
61.430 16.159361
61.435 16.435381
61.440 16.264488
61.445 16.308979
61.450 16.660437
61.455 16.32604
61.460 16.38842
61.465 16.479115
61.470 16.272923
61.475 15.97734
61.480 15.323247
61.485 14.621479
61.490 15.078044
61.495 15.293077
61.500 14.856866
61.505 14.768429
61.510 14.909101
61.515 15.409586
61.520 15.626225
61.525 15.558922
61.530 15.770225
61.535 15.803938
61.540 16.446892
61.545 17.400513
61.550 17.808399
61.555 18.345627
61.560 18.375593
61.565 18.564262
61.570 18.975618
61.575 18.489204
61.580 18.091267
61.585 17.86167
61.590 17.678041
61.595 17.648808
61.600 16.799698
61.605 16.487791
61.610 16.773731
61.615 16.304838
61.620 16.594717
61.625 16.941036
61.630 16.785988
61.635 16.804384
61.640 17.216909
61.645 17.089073
61.650 17.323961
61.655 17.363283
61.660 17.225824
61.665 17.51333
61.670 18.162876
61.675 18.018778
61.680 17.936041
61.685 17.680628
61.690 17.190159
61.695 16.403671
61.700 16.652081
61.705 16.741592
61.710 16.435022
61.715 17.43799
61.720 17.833248
61.725 18.033543
61.730 18.325407
61.735 17.957678
61.740 17.670525
61.745 17.865812
61.750 16.836437
61.755 16.693102
61.760 16.376419
61.765 16.182566
61.770 15.912406
61.775 15.405678
61.780 15.14525
61.785 15.263152
61.790 15.511271
61.795 16.369549
61.800 17.043856
61.805 17.629316
61.810 18.29488
61.815 18.99472
61.820 19.391684
61.825 20.289051
61.830 20.01276
61.835 20.164755
61.840 19.991066
61.845 19.47814
61.850 19.33227
61.855 19.380346
61.860 18.847517
61.865 18.940845
61.870 18.905569
61.875 19.009563
61.880 19.106487
61.885 18.723768
61.890 19.105886
61.895 18.940042
61.900 18.393801
61.905 17.836576
61.910 17.946655
61.915 17.987562
61.920 17.759954
61.925 17.621712
61.930 17.711264
61.935 17.7812
61.940 18.835411
61.945 18.663685
61.950 18.788584
61.955 19.061636
61.960 18.379759
61.965 18.384119
61.970 18.297716
61.975 18.121481
61.980 18.378265
61.985 18.299866
61.990 18.245483
61.995 18.125114
62.000 17.745531
62.005 18.027864
62.010 17.797846
62.015 17.381895
62.020 17.152067
62.025 17.176056
62.030 17.02832
62.035 17.213303
62.040 16.938984
62.045 16.54261
62.050 17.101858
62.055 17.297665
62.060 17.156424
62.065 17.167126
62.070 17.159639
62.075 17.101156
62.080 16.815977
62.085 16.208792
62.090 16.092377
62.095 16.481562
62.100 16.353106
62.105 16.240612
62.110 16.211569
62.115 16.629887
62.120 16.476498
62.125 16.287718
62.130 16.060858
62.135 16.5359
62.140 16.391113
62.145 16.455965
62.150 16.138105
62.155 16.394173
62.160 16.598742
62.165 16.606026
62.170 16.641148
62.175 16.953056
62.180 17.599649
62.185 18.214952
62.190 18.152472
62.195 17.983177
62.200 17.942696
62.205 17.997051
62.210 17.27779
62.215 16.405975
62.220 16.16074
62.225 16.252419
62.230 16.078501
62.235 15.675541
62.240 15.259252
62.245 15.625335
62.250 15.618194
62.255 15.492564
62.260 15.76312
62.265 16.276855
62.270 16.67168
62.275 16.733669
62.280 16.384729
62.285 16.757395
62.290 16.845058
62.295 16.635296
62.300 16.430017
62.305 16.168337
62.310 16.358688
62.315 16.645111
62.320 16.621986
62.325 16.735991
62.330 16.632881
62.335 16.669069
62.340 17.002338
62.345 17.092438
62.350 17.075445
62.355 16.752165
62.360 16.706703
62.365 17.327267
62.370 17.144033
62.375 16.543861
62.380 16.104774
62.385 16.213673
62.390 16.644281
62.395 16.721939
62.400 16.371048
62.405 16.659294
62.410 17.088907
62.415 17.639618
62.420 17.485067
62.425 16.976358
62.430 16.544249
62.435 16.827736
62.440 17.19569
62.445 17.428913
62.450 17.730261
62.455 18.207802
62.460 18.569292
62.465 19.0378
62.470 18.630461
62.475 18.810579
62.480 19.004253
62.485 19.400595
62.490 19.334127
62.495 19.360979
62.500 19.748987
62.505 19.94529
62.510 19.246075
62.515 18.834564
62.520 17.973848
62.525 17.732752
62.530 17.548664
62.535 17.240429
62.540 16.924658
62.545 17.334133
62.550 17.036057
62.555 17.502111
62.560 18.171839
62.565 18.260061
62.570 18.459301
62.575 18.32346
62.580 18.090425
62.585 18.40781
62.590 18.258011
62.595 17.997461
62.600 17.82283
62.605 17.788013
62.610 18.061331
62.615 18.061501
62.620 17.980543
62.625 17.552406
62.630 17.237673
62.635 17.462656
62.640 17.3577
62.645 17.783236
62.650 17.727331
62.655 17.364645
62.660 17.733807
62.665 17.869864
62.670 17.45002
62.675 17.514906
62.680 17.453844
62.685 17.502314
62.690 17.943464
62.695 17.58214
62.700 17.452772
62.705 17.452379
62.710 17.646885
62.715 17.340124
62.720 16.972389
62.725 17.276945
62.730 17.747368
62.735 17.68465
62.740 17.623312
62.745 18.159639
62.750 18.279409
62.755 18.89852
62.760 18.471807
62.765 18.639727
62.770 18.711996
62.775 18.208527
62.780 17.55039
62.785 17.947927
62.790 17.955816
62.795 18.188427
62.800 17.921024
62.805 17.913988
62.810 18.353905
62.815 17.979784
62.820 17.689318
62.825 17.601385
62.830 17.199986
62.835 16.913671
62.840 16.913607
62.845 17.011761
62.850 16.902132
62.855 16.736917
62.860 16.957777
62.865 17.446665
62.870 18.157732
62.875 18.380217
62.880 18.834961
62.885 19.243607
62.890 19.08536
62.895 18.337805
62.900 17.61771
62.905 17.52997
62.910 17.391197
62.915 17.271204
62.920 17.275526
62.925 17.330952
62.930 17.507223
62.935 17.749603
62.940 17.582348
62.945 17.255823
62.950 17.615662
62.955 17.746367
62.960 17.420029
62.965 17.743513
62.970 17.900225
62.975 18.44173
62.980 18.843163
62.985 18.15394
62.990 18.303469
62.995 18.753962
63.000 18.857975
63.005 18.524849
63.010 18.051443
63.015 17.872801
63.020 17.970074
63.025 17.411015
63.030 17.004984
63.035 16.951677
63.040 17.151958
63.045 17.649549
63.050 17.722504
63.055 17.998819
63.060 18.482096
63.065 18.676113
63.070 18.584246
63.075 18.573765
63.080 18.295128
63.085 17.766989
63.090 17.788605
63.095 17.985712
63.100 18.388916
63.105 18.090322
63.110 17.572809
63.115 17.78936
63.120 18.332176
63.125 18.188263
63.130 17.902359
63.135 17.577177
63.140 17.629766
63.145 18.022182
63.150 17.196716
63.155 16.932051
63.160 16.994473
63.165 17.362915
63.170 17.702362
63.175 17.964844
63.180 17.782648
63.185 17.91291
63.190 17.637577
63.195 17.459
63.200 17.463287
63.205 17.286518
63.210 16.775118
63.215 16.885025
63.220 16.731222
63.225 16.698174
63.230 16.538116
63.235 16.182003
63.240 16.125528
63.245 15.86505
63.250 15.761012
63.255 16.278793
63.260 16.347692
63.265 16.088158
63.270 16.472563
63.275 16.985346
63.280 17.954338
63.285 18.234455
63.290 17.969339
63.295 18.226982
63.300 18.793648
63.305 18.963177
63.310 19.209545
63.315 18.761633
63.320 18.401009
63.325 18.401537
63.330 18.780554
63.335 18.323631
63.340 17.560631
63.345 17.388895
63.350 17.801786
63.355 18.128195
63.360 18.676533
63.365 18.939371
63.370 19.102678
63.375 19.191339
63.380 19.159456
63.385 19.284264
63.390 19.266655
63.395 19.000584
63.400 18.54007
63.405 18.581219
63.410 18.720089
63.415 18.933203
63.420 18.866522
63.425 18.58202
63.430 18.507425
63.435 18.2799
63.440 18.244228
63.445 17.952568
63.450 17.86891
63.455 17.975842
63.460 18.473911
63.465 18.293367
63.470 18.468025
63.475 18.328671
63.480 18.646786
63.485 18.030016
63.490 16.907007
63.495 16.919548
63.500 17.272163
63.505 17.518932
63.510 18.026419
63.515 18.34234
63.520 19.018103
63.525 19.585701
63.530 19.07704
63.535 19.054731
63.540 19.049156
63.545 18.983067
63.550 18.401747
63.555 18.425234
63.560 18.880873
63.565 18.783247
63.570 19.176512
63.575 19.587791
63.580 19.324741
63.585 18.883249
63.590 18.324244
63.595 18.205273
63.600 18.91394
63.605 18.367676
63.610 17.91857
63.615 18.599405
63.620 19.119558
63.625 19.348799
63.630 19.333752
63.635 18.54829
63.640 18.805973
63.645 19.452391
63.650 19.369148
63.655 20.047478
63.660 20.269276
63.665 20.154793
63.670 20.507545
63.675 20.452267
63.680 19.570282
63.685 19.484858
63.690 19.250271
63.695 19.053181
63.700 19.910168
63.705 20.285549
63.710 19.61425
63.715 19.327545
63.720 18.599394
63.725 17.884329
63.730 18.080086
63.735 18.100231
63.740 18.000841
63.745 19.31436
63.750 20.092531
63.755 20.707716
63.760 20.899324
63.765 20.727682
63.770 20.411285
63.775 19.811537
63.780 19.477322
63.785 19.799314
63.790 19.439869
63.795 19.758997
63.800 19.927053
63.805 20.198586
63.810 21.589888
63.815 22.636995
63.820 23.070349
63.825 23.59083
63.830 23.509291
63.835 23.631428
63.840 23.84516
63.845 23.83514
63.850 22.736526
63.855 22.771395
63.860 22.72477
63.865 23.205988
63.870 22.991911
63.875 23.029587
63.880 23.217989
63.885 23.833921
63.890 23.506212
63.895 23.965004
63.900 23.938566
63.905 24.571344
63.910 24.551956
63.915 24.544867
63.920 24.862614
63.925 24.72674
63.930 24.755762
63.935 25.20278
63.940 25.547346
63.945 25.503927
63.950 24.699553
63.955 25.037201
63.960 25.863523
63.965 25.471741
63.970 25.665134
63.975 25.677031
63.980 26.223093
63.985 26.412474
63.990 25.769783
63.995 25.967785
64.000 26.684237
64.005 26.266247
64.010 26.833027
64.015 27.239714
64.020 27.519394
64.025 28.129375
64.030 27.809076
64.035 27.654305
64.040 28.103153
64.045 27.889891
64.050 27.949015
64.055 27.51026
64.060 26.492779
64.065 26.146263
64.070 25.851284
64.075 25.789871
64.080 25.172401
64.085 25.172754
64.090 25.542791
64.095 25.995037
64.100 26.369095
64.105 26.769669
64.110 27.351591
64.115 28.260294
64.120 28.676533
64.125 28.908712
64.130 28.821735
64.135 29.239424
64.140 29.103607
64.145 28.507061
64.150 27.345671
64.155 26.7873
64.160 26.754827
64.165 26.650438
64.170 26.566263
64.175 26.604305
64.180 26.35174
64.185 26.822741
64.190 26.15493
64.195 25.94503
64.200 25.755964
64.205 25.07415
64.210 24.555883
64.215 25.041788
64.220 24.517132
64.225 25.215414
64.230 25.662415
64.235 26.004215
64.240 26.974245
64.245 27.751434
64.250 27.842678
64.255 28.657669
64.260 28.60734
64.265 28.120041
64.270 28.085716
64.275 27.489466
64.280 26.943754
64.285 27.184839
64.290 26.564844
64.295 26.172693
64.300 26.822149
64.305 26.970304
64.310 26.84713
64.315 26.960035
64.320 26.571943
64.325 26.537994
64.330 26.175495
64.335 25.90667
64.340 25.136621
64.345 24.857576
64.350 24.326664
64.355 24.156534
64.360 23.639727
64.365 22.835693
64.370 22.586231
64.375 23.001234
64.380 23.168695
64.385 23.167709
64.390 22.703064
64.395 23.098797
64.400 23.958847
64.405 24.127275
64.410 24.240076
64.415 24.364811
64.420 24.393316
64.425 25.050083
64.430 25.368376
64.435 25.253538
64.440 25.078861
64.445 25.718466
64.450 26.050657
64.455 26.26494
64.460 25.874149
64.465 26.22035
64.470 26.459064
64.475 26.326788
64.480 26.110201
64.485 25.087517
64.490 25.147478
64.495 25.810762
64.500 25.958452
64.505 25.934153
64.510 25.456894
64.515 24.894884
64.520 25.427568
64.525 25.08131
64.530 24.957893
64.535 24.459286
64.540 24.78273
64.545 25.421583
64.550 25.476484
64.555 25.686142
64.560 26.5256
64.565 26.911179
64.570 26.745697
64.575 26.538437
64.580 27.115383
64.585 27.373304
64.590 26.447826
64.595 25.707649
64.600 25.262691
64.605 24.831299
64.610 24.646013
64.615 24.185831
64.620 24.512442
64.625 25.482641
64.630 25.530392
64.635 25.580929
64.640 25.78833
64.645 24.915354
64.650 25.251816
64.655 24.968674
64.660 25.16433
64.665 25.14991
64.670 25.08709
64.675 24.736198
64.680 24.314213
64.685 23.08326
64.690 22.756298
64.695 22.16387
64.700 22.596867
64.705 22.899366
64.710 23.699089
64.715 24.507723
64.720 24.798489
64.725 24.763336
64.730 24.464056
64.735 23.131748
64.740 22.778156
64.745 22.38929
64.750 22.249947
64.755 22.449661
64.760 22.608875
64.765 22.269724
64.770 22.762991
64.775 22.727839
64.780 22.419285
64.785 22.656862
64.790 22.862923
64.795 23.751858
64.800 24.223692
64.805 24.409628
64.810 24.520651
64.815 24.506784
64.820 23.999443
64.825 23.464453
64.830 22.386799
64.835 22.221813
64.840 21.933302
64.845 22.053524
64.850 22.814592
64.855 23.483469
64.860 23.878593
64.865 24.152269
64.870 23.853159
64.875 23.532318
64.880 23.254496
64.885 22.798973
64.890 22.326221
64.895 22.430269
64.900 22.351969
64.905 22.093473
64.910 22.357182
64.915 22.56674
64.920 22.865669
64.925 23.392282
64.930 23.047777
64.935 23.204365
64.940 23.810684
64.945 23.968725
64.950 24.192745
64.955 24.195993
64.960 24.067326
64.965 24.474228
64.970 24.892384
64.975 25.537251
64.980 25.118509
64.985 25.162106
64.990 25.44754
64.995 25.117817
65.000 25.358217
65.005 25.60725
65.010 25.534616
65.015 25.674686
65.020 25.931925
65.025 25.473127
65.030 25.338078
65.035 24.914066
65.040 24.860836
65.045 24.729973
65.050 24.870903
65.055 23.900742
65.060 22.730646
65.065 22.072113
65.070 22.009075
65.075 21.700407
65.080 22.393812
65.085 22.815939
65.090 24.274412
65.095 25.59057
65.100 26.158533
65.105 25.892822
65.110 25.130377
65.115 24.493116
65.120 24.764057
65.125 24.065119
65.130 24.385075
65.135 24.279804
65.140 24.449356
65.145 25.064556
65.150 24.784061
65.155 23.811657
65.160 24.176868
65.165 23.672283
65.170 23.869293
65.175 23.277822
65.180 22.82881
65.185 22.992798
65.190 23.063057
65.195 21.833302
65.200 21.627979
65.205 21.970028
65.210 22.017868
65.215 21.98554
65.220 23.018785
65.225 23.258459
65.230 23.584024
65.235 23.55797
65.240 23.874073
65.245 24.886467
65.250 24.887754
65.255 23.394707
65.260 22.995361
65.265 23.002436
65.270 23.141855
65.275 22.333742
65.280 21.260605
65.285 21.112282
65.290 22.009241
65.295 22.731167
65.300 22.704906
65.305 22.715431
65.310 23.025515
65.315 23.4916
65.320 23.224907
65.325 23.046209
65.330 22.9041
65.335 23.001837
65.340 22.653868
65.345 22.434925
65.350 22.549158
65.355 22.219156
65.360 21.706938
65.365 21.37879
65.370 21.782856
65.375 21.842081
65.380 21.948797
65.385 21.594624
65.390 21.783316
65.395 21.940197
65.400 21.931313
65.405 21.888294
65.410 22.179033
65.415 22.15469
65.420 22.281027
65.425 22.570131
65.430 22.233339
65.435 22.163273
65.440 22.376406
65.445 22.328838
65.450 22.006289
65.455 21.968576
65.460 21.50322
65.465 21.541321
65.470 21.460981
65.475 21.584988
65.480 21.519022
65.485 21.537868
65.490 22.395115
65.495 23.012701
65.500 23.368229
65.505 23.873026
65.510 24.158398
65.515 24.144274
65.520 24.490574
65.525 24.162947
65.530 24.297905
65.535 24.717543
65.540 24.497805
65.545 23.78614
65.550 24.043911
65.555 23.711515
65.560 23.670376
65.565 23.449009
65.570 22.973557
65.575 23.181807
65.580 23.492395
65.585 23.382423
65.590 23.371469
65.595 23.285509
65.600 22.902948
65.605 23.198513
65.610 23.386538
65.615 23.217073
65.620 23.878334
65.625 24.524183
65.630 24.612494
65.635 24.825956
65.640 24.230654
65.645 24.144413
65.650 24.679604
65.655 24.385576
65.660 24.226366
65.665 24.575119
65.670 25.431562
65.675 25.540911
65.680 25.447681
65.685 24.876196
65.690 24.452684
65.695 23.592958
65.700 23.004517
65.705 22.313467
65.710 22.981016
65.715 23.13015
65.720 23.45472
65.725 23.841
65.730 24.807734
65.735 25.196247
65.740 25.019081
65.745 24.866831
65.750 24.983086
65.755 25.31156
65.760 25.159912
65.765 24.987871
65.770 24.805784
65.775 25.515308
65.780 25.499443
65.785 25.808699
65.790 26.186613
65.795 27.092421
65.800 27.528168
65.805 27.863316
65.810 27.580759
65.815 27.843517
65.820 27.856762
65.825 27.341515
65.830 27.380472
65.835 27.689394
65.840 27.866625
65.845 27.291853
65.850 26.995367
65.855 27.400894
65.860 27.777287
65.865 28.144274
65.870 28.243502
65.875 28.276606
65.880 29.499733
65.885 29.751984
65.890 30.266857
65.895 30.466228
65.900 30.306311
65.905 30.267786
65.910 30.514364
65.915 30.339148
65.920 30.674049
65.925 30.527275
65.930 30.418415
65.935 29.997244
65.940 30.391043
65.945 30.575825
65.950 30.328781
65.955 30.528694
65.960 31.477385
65.965 32.369175
65.970 33.523251
65.975 33.255516
65.980 33.790047
65.985 34.613781
65.990 34.830139
65.995 35.378704
66.000 35.250057
66.005 35.843822
66.010 36.540173
66.015 36.415962
66.020 35.748512
66.025 35.787071
66.030 35.60133
66.035 35.581131
66.040 35.220627
66.045 35.198837
66.050 36.274723
66.055 37.188339
66.060 36.771667
66.065 36.390583
66.070 36.16589
66.075 36.853516
66.080 37.595444
66.085 37.824257
66.090 37.659515
66.095 38.718739
66.100 39.988522
66.105 40.573608
66.110 40.921158
66.115 40.710175
66.120 40.568596
66.125 41.646793
66.130 41.476849
66.135 40.803291
66.140 41.149845
66.145 40.426548
66.150 40.390682
66.155 40.104084
66.160 39.401573
66.165 39.348076
66.170 39.982899
66.175 39.865425
66.180 40.171886
66.185 40.573517
66.190 40.368095
66.195 40.513836
66.200 41.004845
66.205 41.121742
66.210 41.255592
66.215 41.127258
66.220 40.735924
66.225 40.643608
66.230 40.492027
66.235 40.392422
66.240 40.804775
66.245 40.870949
66.250 39.696556
66.255 39.763512
66.260 39.799355
66.265 39.877548
66.270 39.330986
66.275 37.799587
66.280 37.168732
66.285 37.868233
66.290 37.682873
66.295 37.604897
66.300 37.378601
66.305 37.64315
66.310 38.167747
66.315 38.391727
66.320 38.150162
66.325 38.740021
66.330 38.886456
66.335 38.596634
66.340 38.041515
66.345 37.314873
66.350 37.330845
66.355 37.565102
66.360 37.314018
66.365 37.143471
66.370 37.418762
66.375 37.721077
66.380 38.044834
66.385 37.981823
66.390 37.642178
66.395 37.025101
66.400 36.441456
66.405 35.412071
66.410 34.606216
66.415 34.045319
66.420 33.526371
66.425 33.337673
66.430 32.709164
66.435 32.62677
66.440 33.011688
66.445 32.762508
66.450 32.554455
66.455 31.990194
66.460 30.917114
66.465 30.860819
66.470 30.818529
66.475 30.605341
66.480 30.572409
66.485 30.8913
66.490 31.422117
66.495 31.478605
66.500 30.864023
66.505 30.408396
66.510 30.454702
66.515 29.81926
66.520 29.211655
66.525 29.027971
66.530 29.321808
66.535 29.396929
66.540 28.950537
66.545 28.387396
66.550 28.37838
66.555 28.135439
66.560 28.524502
66.565 28.563623
66.570 28.786108
66.575 29.228455
66.580 28.849861
66.585 27.942165
66.590 27.807877
66.595 26.948372
66.600 26.608269
66.605 26.130892
66.610 25.577246
66.615 25.075022
66.620 25.429321
66.625 24.567604
66.630 23.458582
66.635 22.6649
66.640 22.360615
66.645 21.955643
66.650 22.454058
66.655 21.748579
66.660 21.885941
66.665 22.540356
66.670 23.390463
66.675 23.914801
66.680 23.847357
66.685 23.356577
66.690 23.230919
66.695 22.662487
66.700 22.207464
66.705 22.151262
66.710 21.953497
66.715 22.049952
66.720 21.573694
66.725 21.267895
66.730 21.42153
66.735 21.128744
66.740 20.654127
66.745 20.142076
66.750 20.832716
66.755 21.939812
66.760 22.611809
66.765 23.174608
66.770 23.427467
66.775 22.68298
66.780 22.295944
66.785 21.42556
66.790 20.698582
66.795 20.405996
66.800 19.853354
66.805 19.65132
66.810 20.029177
66.815 20.007004
66.820 19.822449
66.825 19.493629
66.830 19.159401
66.835 18.644741
66.840 18.355953
66.845 18.444218
66.850 18.889126
66.855 18.705292
66.860 18.949493
66.865 18.812744
66.870 19.00791
66.875 19.223166
66.880 19.055544
66.885 18.697609
66.890 19.178236
66.895 19.023298
66.900 18.534752
66.905 18.390863
66.910 18.320139
66.915 18.862154
66.920 18.90777
66.925 18.961569
66.930 18.85335
66.935 19.435667
66.940 20.228519
66.945 20.403687
66.950 20.028683
66.955 19.719509
66.960 19.218327
66.965 19.999084
66.970 20.143732
66.975 19.958538
66.980 20.187464
66.985 20.381504
66.990 20.531879
66.995 20.375839
67.000 19.594896
67.005 19.668926
67.010 19.628283
67.015 19.167322
67.020 19.242727
67.025 19.43923
67.030 19.050785
67.035 19.192209
67.040 18.28303
67.045 17.23876
67.050 17.200542
67.055 16.870171
67.060 17.188679
67.065 17.770555
67.070 17.661366
67.075 19.184912
67.080 20.558081
67.085 21.232489
67.090 21.272001
67.095 20.83828
67.100 21.187292
67.105 21.083
67.110 20.133793
67.115 19.75699
67.120 19.615213
67.125 19.87322
67.130 20.335846
67.135 20.595308
67.140 20.959839
67.145 21.756865
67.150 21.019899
67.155 20.471651
67.160 20.713848
67.165 20.604156
67.170 20.478333
67.175 19.959282
67.180 19.565083
67.185 20.393217
67.190 20.554502
67.195 20.690132
67.200 20.641037
67.205 20.608908
67.210 20.702919
67.215 20.470058
67.220 20.263189
67.225 20.161541
67.230 19.735577
67.235 19.626284
67.240 19.560505
67.245 19.575098
67.250 19.252243
67.255 19.424648
67.260 19.080063
67.265 18.908272
67.270 18.762177
67.275 18.815334
67.280 19.109848
67.285 19.19376
67.290 18.784107
67.295 19.239204
67.300 19.196102
67.305 19.3412
67.310 19.4149
67.315 19.473246
67.320 19.883381
67.325 20.091051
67.330 20.055237
67.335 20.531809
67.340 20.424896
67.345 20.474239
67.350 19.966635
67.355 19.769632
67.360 19.863527
67.365 19.934847
67.370 19.543205
67.375 19.71324
67.380 19.742052
67.385 20.235882
67.390 20.141296
67.395 20.433535
67.400 20.512432
67.405 20.723108
67.410 21.059427
67.415 20.581982
67.420 20.67408
67.425 20.451002
67.430 19.976646
67.435 19.492729
67.440 18.807878
67.445 18.137184
67.450 18.3701
67.455 18.222954
67.460 18.368959
67.465 18.719704
67.470 19.376198
67.475 19.781258
67.480 20.036549
67.485 20.38829
67.490 20.164164
67.495 20.343174
67.500 20.229013
67.505 20.158648
67.510 20.074005
67.515 20.198263
67.520 19.838009
67.525 20.124636
67.530 19.902327
67.535 19.16032
67.540 18.554512
67.545 18.401665
67.550 17.930092
67.555 17.442726
67.560 17.585089
67.565 17.343767
67.570 17.833139
67.575 17.748844
67.580 17.950169
67.585 18.253525
67.590 18.844501
67.595 18.246141
67.600 18.502535
67.605 18.381897
67.610 19.082314
67.615 18.969669
67.620 19.195986
67.625 19.031181
67.630 19.537123
67.635 19.580873
67.640 19.608389
67.645 19.629894
67.650 19.814919
67.655 19.614491
67.660 19.541466
67.665 19.434137
67.670 19.634811
67.675 19.673864
67.680 19.820807
67.685 19.344301
67.690 19.598255
67.695 19.376211
67.700 19.462614
67.705 19.288399
67.710 19.385565
67.715 19.386862
67.720 19.690256
67.725 19.872072
67.730 20.061878
67.735 20.545431
67.740 20.740677
67.745 20.774494
67.750 20.317278
67.755 20.607239
67.760 20.04533
67.765 20.101179
67.770 19.326666
67.775 18.830795
67.780 18.901093
67.785 18.976271
67.790 18.231224
67.795 18.002272
67.800 17.818708
67.805 18.410145
67.810 18.327293
67.815 18.056887
67.820 18.07193
67.825 18.530489
67.830 18.854795
67.835 19.142645
67.840 19.00182
67.845 19.452812
67.850 19.890406
67.855 20.51181
67.860 20.138357
67.865 19.488199
67.870 19.248436
67.875 19.158701
67.880 18.680115
67.885 18.095675
67.890 17.885578
67.895 18.429735
67.900 19.53191
67.905 20.052578
67.910 20.693005
67.915 21.590601
67.920 21.544304
67.925 21.025146
67.930 20.633125
67.935 20.254406
67.940 20.274534
67.945 19.92819
67.950 19.62892
67.955 19.895355
67.960 20.403063
67.965 20.89559
67.970 20.876059
67.975 20.275585
67.980 20.124481
67.985 20.496906
67.990 20.492542
67.995 20.245377
68.000 19.913519
68.005 19.630911
68.010 19.646908
68.015 19.634188
68.020 19.438242
68.025 19.589207
68.030 20.081259
68.035 19.992222
68.040 20.063711
68.045 19.87582
68.050 20.230669
68.055 20.490107
68.060 20.435734
68.065 19.861399
68.070 19.682734
68.075 20.026127
68.080 20.565073
68.085 20.344374
68.090 19.799479
68.095 19.66572
68.100 19.46512
68.105 19.910585
68.110 20.083517
68.115 20.0895
68.120 20.20789
68.125 19.848619
68.130 20.219938
68.135 20.940794
68.140 21.252411
68.145 21.059706
68.150 21.15049
68.155 21.415012
68.160 21.349072
68.165 21.531204
68.170 21.214462
68.175 20.523941
68.180 20.371796
68.185 19.673191
68.190 19.704021
68.195 19.930239
68.200 19.243483
68.205 19.649662
68.210 19.899801
68.215 19.691589
68.220 19.648542
68.225 19.311886
68.230 19.287867
68.235 19.65081
68.240 19.416636
68.245 19.112953
68.250 19.024275
68.255 19.22711
68.260 19.550823
68.265 20.246939
68.270 20.549107
68.275 20.3999
68.280 21.181892
68.285 21.624601
68.290 21.914808
68.295 21.600512
68.300 21.300451
68.305 21.010338
68.310 21.012011
68.315 20.859015
68.320 20.555159
68.325 20.272768
68.330 19.890982
68.335 19.531637
68.340 19.565722
68.345 19.820818
68.350 19.729095
68.355 19.031357
68.360 18.629097
68.365 19.234652
68.370 19.922342
68.375 19.75326
68.380 19.040308
68.385 18.715883
68.390 19.131874
68.395 19.305899
68.400 18.849115
68.405 19.038582
68.410 19.142532
68.415 19.319675
68.420 19.581793
68.425 19.547615
68.430 20.294067
68.435 20.509954
68.440 20.015646
68.445 20.176863
68.450 20.576181
68.455 20.374483
68.460 20.158382
68.465 19.763685
68.470 19.189377
68.475 19.367088
68.480 19.143074
68.485 18.956324
68.490 19.147856
68.495 18.763966
68.500 18.112801
68.505 18.030506
68.510 17.597952
68.515 17.601498
68.520 17.683023
68.525 18.19495
68.530 19.285166
68.535 19.885416
68.540 20.058241
68.545 20.186014
68.550 20.051456
68.555 19.380617
68.560 19.094322
68.565 18.608698
68.570 18.705891
68.575 18.796518
68.580 19.07444
68.585 19.516903
68.590 20.771282
68.595 20.55006
68.600 20.541409
68.605 20.932842
68.610 20.776876
68.615 20.966528
68.620 20.565531
68.625 20.20961
68.630 20.489985
68.635 20.840099
68.640 20.685991
68.645 20.647572
68.650 20.763559
68.655 20.972172
68.660 21.035292
68.665 20.56827
68.670 20.164021
68.675 20.319288
68.680 21.03334
68.685 21.608856
68.690 21.620071
68.695 21.352968
68.700 22.173027
68.705 21.952127
68.710 21.462299
68.715 20.923779
68.720 20.670427
68.725 20.738089
68.730 20.174212
68.735 19.52702
68.740 19.866079
68.745 20.169395
68.750 19.790634
68.755 19.497232
68.760 19.521011
68.765 20.025915
68.770 20.478924
68.775 21.222111
68.780 21.390554
68.785 21.51169
68.790 21.823112
68.795 22.119476
68.800 22.496058
68.805 22.838816
68.810 22.253876
68.815 22.388493
68.820 21.980869
68.825 21.368017
68.830 20.685532
68.835 20.758894
68.840 20.273672
68.845 20.637691
68.850 20.689528
68.855 21.042442
68.860 22.236864
68.865 23.041046
68.870 22.574945
68.875 22.541031
68.880 22.847137
68.885 23.19006
68.890 23.5343
68.895 23.263853
68.900 23.345675
68.905 23.768948
68.910 24.238792
68.915 23.990004
68.920 23.787663
68.925 23.602484
68.930 23.543957
68.935 23.479668
68.940 23.588823
68.945 23.400852
68.950 23.320602
68.955 23.38748
68.960 23.584383
68.965 24.187952
68.970 25.457741
68.975 25.482924
68.980 25.623926
68.985 26.225445
68.990 26.646927
68.995 26.39156
69.000 25.700035
69.005 25.396952
69.010 25.3165
69.015 24.998535
69.020 24.453516
69.025 24.417734
69.030 25.325315
69.035 25.389982
69.040 24.936768
69.045 25.221014
69.050 25.600628
69.055 25.562641
69.060 25.603043
69.065 25.474337
69.070 25.315729
69.075 25.632217
69.080 26.253328
69.085 26.806408
69.090 27.935015
69.095 27.9571
69.100 29.090668
69.105 29.537985
69.110 29.6394
69.115 29.706127
69.120 29.777126
69.125 29.57234
69.130 29.460882
69.135 28.558737
69.140 28.6833
69.145 28.349354
69.150 27.515188
69.155 27.478859
69.160 27.165661
69.165 27.325624
69.170 27.211525
69.175 27.341492
69.180 28.083401
69.185 28.392466
69.190 28.60652
69.195 29.112305
69.200 29.472296
69.205 30.208939
69.210 29.785631
69.215 30.143126
69.220 30.55694
69.225 30.891424
69.230 31.133808
69.235 31.17655
69.240 31.397472
69.245 32.001198
69.250 31.834362
69.255 32.306313
69.260 32.677963
69.265 32.487698
69.270 32.82724
69.275 33.25816
69.280 33.568119
69.285 34.275913
69.290 34.333996
69.295 34.449299
69.300 34.127159
69.305 33.332565
69.310 33.961723
69.315 33.679394
69.320 33.39893
69.325 33.301319
69.330 33.017345
69.335 33.802391
69.340 34.633656
69.345 34.645897
69.350 35.341351
69.355 35.571552
69.360 35.060246
69.365 35.554184
69.370 35.315693
69.375 34.990131
69.380 35.282829
69.385 35.49696
69.390 36.328217
69.395 36.715641
69.400 36.20163
69.405 35.729626
69.410 35.867027
69.415 35.499737
69.420 34.068909
69.425 33.07962
69.430 33.212639
69.435 34.242588
69.440 34.882534
69.445 35.42627
69.450 35.728729
69.455 35.991856
69.460 36.495121
69.465 35.674541
69.470 34.57222
69.475 34.050919
69.480 33.250862
69.485 32.767605
69.490 32.440521
69.495 32.260609
69.500 32.795372
69.505 33.401302
69.510 34.003643
69.515 34.64259
69.520 35.010723
69.525 35.311527
69.530 34.838486
69.535 34.888874
69.540 34.289196
69.545 34.040092
69.550 33.651035
69.555 33.919151
69.560 33.623844
69.565 33.366291
69.570 33.536156
69.575 33.887829
69.580 34.26252
69.585 34.401173
69.590 33.610996
69.595 34.202057
69.600 33.854641
69.605 32.911549
69.610 31.719646
69.615 31.524395
69.620 31.526737
69.625 31.628668
69.630 31.119303
69.635 31.329893
69.640 32.1068
69.645 32.026913
69.650 31.291836
69.655 30.055153
69.660 30.440866
69.665 31.173271
69.670 30.409754
69.675 30.113417
69.680 30.407576
69.685 30.709169
69.690 31.530602
69.695 30.797771
69.700 31.0182
69.705 31.532402
69.710 31.06918
69.715 30.454781
69.720 30.340897
69.725 30.270296
69.730 30.596649
69.735 30.183338
69.740 29.994474
69.745 29.735565
69.750 29.504713
69.755 29.177044
69.760 28.024912
69.765 27.277349
69.770 26.926998
69.775 27.670769
69.780 28.58543
69.785 28.595047
69.790 28.865925
69.795 29.505072
69.800 29.834381
69.805 29.426659
69.810 29.111326
69.815 29.258633
69.820 28.988626
69.825 28.42416
69.830 27.736855
69.835 27.197239
69.840 27.330465
69.845 26.691824
69.850 25.666136
69.855 26.369596
69.860 26.519091
69.865 25.832336
69.870 25.043188
69.875 24.996815
69.880 25.200649
69.885 25.524494
69.890 25.377214
69.895 25.857697
69.900 26.405989
69.905 26.784266
69.910 26.309238
69.915 26.226728
69.920 25.789608
69.925 25.022736
69.930 24.100769
69.935 23.648996
69.940 22.884823
69.945 22.123264
69.950 21.855537
69.955 21.663225
69.960 21.247324
69.965 21.660349
69.970 22.259918
69.975 22.619286
69.980 22.376539
69.985 22.220606
69.990 22.505831
69.995 22.241501
70.000 21.181936
70.005 20.907291
70.010 20.994171
70.015 21.192425
70.020 21.305519
70.025 21.150723
70.030 21.289667
70.035 21.708851
70.040 22.180666
70.045 22.860167
70.050 22.853218
70.055 22.904417
70.060 22.777348
70.065 22.826851
70.070 22.14851
70.075 20.95553
70.080 20.501383
70.085 20.292042
70.090 19.530514
70.095 19.154356
70.100 19.512928
70.105 19.385611
70.110 19.607618
70.115 19.591311
70.120 19.758051
70.125 20.111073
70.130 20.816149
70.135 20.842485
70.140 20.89101
70.145 20.836866
70.150 21.243811
70.155 21.203709
70.160 21.174717
70.165 20.68898
70.170 20.274038
70.175 20.754259
70.180 20.803528
70.185 20.651381
70.190 20.620106
70.195 20.50379
70.200 20.863873
70.205 20.960476
70.210 20.337049
70.215 19.993782
70.220 19.808737
70.225 19.799509
70.230 19.839556
70.235 19.686924
70.240 19.484053
70.245 19.379471
70.250 19.326735
70.255 19.926725
70.260 19.831837
70.265 19.976534
70.270 19.855871
70.275 20.531849
70.280 20.858419
70.285 21.205687
70.290 20.615589
70.295 20.305035
70.300 20.155001
70.305 20.407787
70.310 20.189301
70.315 20.256569
70.320 20.280611
70.325 20.046227
70.330 19.67038
70.335 18.724798
70.340 17.726282
70.345 17.73299
70.350 17.510946
70.355 17.095743
70.360 17.996229
70.365 18.385208
70.370 19.000263
70.375 19.010592
70.380 18.614328
70.385 18.48097
70.390 18.469273
70.395 18.283031
70.400 18.161474
70.405 17.90204
70.410 17.91695
70.415 17.880802
70.420 17.602343
70.425 17.462952
70.430 17.148483
70.435 17.442755
70.440 17.868547
70.445 18.549677
70.450 19.468006
70.455 19.770987
70.460 20.001751
70.465 20.219913
70.470 20.019186
70.475 19.843336
70.480 19.41115
70.485 18.125828
70.490 17.952398
70.495 17.675253
70.500 17.255207
70.505 17.31238
70.510 17.580065
70.515 18.472931
70.520 19.530682
70.525 19.614651
70.530 19.841406
70.535 20.066061
70.540 20.472313
70.545 20.195114
70.550 19.491779
70.555 19.324871
70.560 19.124088
70.565 19.367413
70.570 19.162783
70.575 18.886217
70.580 18.179848
70.585 17.925291
70.590 17.796701
70.595 17.691797
70.600 17.493713
70.605 18.098476
70.610 18.461054
70.615 19.283705
70.620 19.443815
70.625 19.669514
70.630 19.901842
70.635 19.873684
70.640 19.313581
70.645 18.843979
70.650 18.802431
70.655 18.641039
70.660 18.80617
70.665 18.482521
70.670 18.819931
70.675 18.859432
70.680 19.023199
70.685 19.337381
70.690 19.440145
70.695 19.140499
70.700 19.431484
70.705 19.512413
70.710 19.850636
70.715 19.633532
70.720 19.338148
70.725 18.921459
70.730 19.267126
70.735 19.090982
70.740 18.536768
70.745 18.135914
70.750 17.944616
70.755 18.035021
70.760 18.100374
70.765 17.516014
70.770 17.469954
70.775 17.345272
70.780 17.219942
70.785 17.084059
70.790 17.220427
70.795 17.13023
70.800 17.55912
70.805 17.791754
70.810 17.865276
70.815 18.459036
70.820 19.278402
70.825 19.457092
70.830 20.013269
70.835 20.11788
70.840 20.306782
70.845 20.348379
70.850 20.322552
70.855 19.758812
70.860 19.812559
70.865 19.609755
70.870 18.823236
70.875 18.878166
70.880 19.013216
70.885 19.286419
70.890 18.901377
70.895 19.028231
70.900 18.731607
70.905 18.342175
70.910 18.361195
70.915 18.323977
70.920 17.730885
70.925 17.919006
70.930 17.624924
70.935 18.027401
70.940 18.455587
70.945 17.847481
70.950 18.075586
70.955 18.734695
70.960 18.790497
70.965 18.584473
70.970 18.857243
70.975 19.458452
70.980 20.136158
70.985 19.721178
70.990 19.385815
70.995 18.90797
71.000 19.427183
71.005 19.07317
71.010 18.626978
71.015 18.308178
71.020 18.608656
71.025 18.34343
71.030 18.392239
71.035 18.703262
71.040 19.231564
71.045 18.879572
71.050 19.192011
71.055 19.733797
71.060 20.364796
71.065 20.512384
71.070 20.1565
71.075 20.161026
71.080 20.017723
71.085 19.652765
71.090 19.396868
71.095 19.403215
71.100 19.121058
71.105 18.838068
71.110 18.754807
71.115 19.215509
71.120 19.307642
71.125 19.371082
71.130 18.775726
71.135 19.317457
71.140 19.71125
71.145 19.514359
71.150 18.776379
71.155 18.622549
71.160 18.13805
71.165 18.305187
71.170 17.938761
71.175 17.605473
71.180 17.549686
71.185 17.579691
71.190 17.473471
71.195 18.355797
71.200 18.467363
71.205 18.500341
71.210 18.81138
71.215 19.146505
71.220 19.480474
71.225 19.163116
71.230 18.80673
71.235 18.687431
71.240 18.722128
71.245 18.704302
71.250 18.500643
71.255 18.183716
71.260 18.500692
71.265 18.636015
71.270 19.011269
71.275 18.849382
71.280 18.902962
71.285 19.01792
71.290 19.08219
71.295 18.546892
71.300 17.982155
71.305 17.515491
71.310 16.983347
71.315 16.958546
71.320 16.76536
71.325 16.092566
71.330 16.279871
71.335 16.204775
71.340 16.67518
71.345 17.707729
71.350 18.045557
71.355 18.281054
71.360 18.986368
71.365 19.459267
71.370 19.450167
71.375 18.854801
71.380 18.069542
71.385 17.432018
71.390 17.626757
71.395 17.293413
71.400 17.289213
71.405 17.623337
71.410 17.540989
71.415 18.129959
71.420 18.921707
71.425 18.829714
71.430 18.396961
71.435 18.199961
71.440 18.479013
71.445 18.700151
71.450 19.104523
71.455 19.642736
71.460 19.970991
71.465 20.169949
71.470 19.714731
71.475 19.301733
71.480 19.05328
71.485 18.358135
71.490 17.163568
71.495 17.357964
71.500 17.997766
71.505 18.507051
71.510 18.382387
71.515 18.503256
71.520 18.407856
71.525 18.489252
71.530 18.312935
71.535 17.864492
71.540 17.557821
71.545 17.915432
71.550 17.563864
71.555 17.640974
71.560 17.802214
71.565 17.532732
71.570 17.791656
71.575 17.256777
71.580 17.408548
71.585 17.764118
71.590 18.068197
71.595 18.596268
71.600 18.860722
71.605 18.362659
71.610 18.388922
71.615 18.446407
71.620 18.080683
71.625 18.034397
71.630 17.099428
71.635 16.771284
71.640 17.012539
71.645 17.208694
71.650 17.213434
71.655 17.21805
71.660 17.182796
71.665 17.51849
71.670 17.733332
71.675 17.816401
71.680 17.505136
71.685 17.4659
71.690 17.322193
71.695 17.726196
71.700 18.128071
71.705 17.56381
71.710 17.923857
71.715 17.973497
71.720 17.868397
71.725 17.801542
71.730 17.857868
71.735 17.771276
71.740 17.992887
71.745 18.176605
71.750 18.456554
71.755 18.543287
71.760 18.315367
71.765 18.081556
71.770 17.888971
71.775 18.177324
71.780 17.743073
71.785 17.849548
71.790 17.945873
71.795 17.999887
71.800 18.164328
71.805 18.893475
71.810 19.329025
71.815 18.97691
71.820 18.850554
71.825 18.67845
71.830 18.692551
71.835 18.339163
71.840 17.973867
71.845 17.724401
71.850 18.128971
71.855 17.891769
71.860 18.117327
71.865 18.34322
71.870 18.697945
71.875 19.356434
71.880 19.091091
71.885 19.288105
71.890 19.600128
71.895 19.213057
71.900 18.871859
71.905 19.009048
71.910 17.954042
71.915 18.469231
71.920 18.479914
71.925 18.629152
71.930 18.741161
71.935 18.51977
71.940 17.869473
71.945 18.37855
71.950 17.65266
71.955 17.296728
71.960 16.804983
71.965 16.771671
71.970 17.169537
71.975 17.665489
71.980 17.379955
71.985 17.85317
71.990 18.745668
71.995 19.182011
72.000 19.38245
72.005 19.163517
72.010 19.006023
72.015 18.848276
72.020 18.350962
72.025 17.457369
72.030 17.442461
72.035 17.486959
72.040 17.40382
72.045 17.711832
72.050 18.122625
72.055 18.002121
72.060 18.653984
72.065 18.569653
72.070 18.552876
72.075 18.372704
72.080 18.42852
72.085 18.298748
72.090 17.977684
72.095 17.520308
72.100 17.700121
72.105 18.145748
72.110 18.183001
72.115 18.012667
72.120 18.182655
72.125 18.347113
72.130 18.633663
72.135 18.472342
72.140 18.23579
72.145 18.3911
72.150 18.738131
72.155 18.94804
72.160 18.83366
72.165 18.920113
72.170 19.120193
72.175 19.155838
72.180 19.03853
72.185 18.531635
72.190 18.069511
72.195 18.074125
72.200 18.128719
72.205 18.520824
72.210 18.517719
72.215 17.833578
72.220 18.59654
72.225 18.659842
72.230 18.731716
72.235 18.047846
72.240 17.458071
72.245 17.899076
72.250 18.404697
72.255 18.389153
72.260 18.505535
72.265 18.223675
72.270 18.573956
72.275 18.776047
72.280 18.778965
72.285 17.891973
72.290 17.582365
72.295 17.705671
72.300 17.649576
72.305 17.686508
72.310 17.591471
72.315 18.107695
72.320 18.862532
72.325 18.567698
72.330 19.027155
72.335 19.254879
72.340 19.206299
72.345 18.583691
72.350 18.404137
72.355 18.371492
72.360 18.040459
72.365 17.454563
72.370 17.14172
72.375 17.093922
72.380 17.217171
72.385 17.445868
72.390 17.539648
72.395 17.652599
72.400 18.251255
72.405 18.781538
72.410 18.582588
72.415 18.071455
72.420 17.547655
72.425 17.617367
72.430 17.972885
72.435 17.896912
72.440 17.804464
72.445 18.356062
72.450 18.813314
72.455 18.835329
72.460 18.565655
72.465 17.855352
72.470 17.524666
72.475 17.314814
72.480 16.935028
72.485 16.030102
72.490 15.95958
72.495 16.645124
72.500 16.497812
72.505 16.414768
72.510 16.621885
72.515 17.387239
72.520 17.618553
72.525 17.286537
72.530 17.061928
72.535 17.444046
72.540 17.653616
72.545 16.908323
72.550 17.289558
72.555 18.466471
72.560 18.739056
72.565 18.929888
72.570 18.451185
72.575 18.491781
72.580 18.840519
72.585 18.649008
72.590 18.241972
72.595 17.659952
72.600 18.024536
72.605 18.287924
72.610 18.708073
72.615 18.767271
72.620 18.685658
72.625 19.294514
72.630 19.126213
72.635 19.154125
72.640 18.903002
72.645 18.522804
72.650 17.809435
72.655 16.727104
72.660 16.202568
72.665 15.754435
72.670 15.539925
72.675 15.649776
72.680 15.434704
72.685 16.157558
72.690 17.126442
72.695 17.822062
72.700 17.559471
72.705 17.683506
72.710 17.534092
72.715 17.425434
72.720 17.600502
72.725 17.985161
72.730 17.826185
72.735 18.34742
72.740 18.1775
72.745 18.010283
72.750 18.084862
72.755 17.191679
72.760 17.36244
72.765 17.520956
72.770 17.256386
72.775 17.435148
72.780 17.79373
72.785 17.631966
72.790 17.192799
72.795 16.659445
72.800 17.154535
72.805 17.176554
72.810 17.183657
72.815 17.150904
72.820 17.261143
72.825 17.858423
72.830 17.424725
72.835 16.927011
72.840 16.75382
72.845 16.802601
72.850 16.644527
72.855 15.735267
72.860 15.672277
72.865 15.54319
72.870 15.720848
72.875 15.773781
72.880 15.726137
72.885 15.809875
72.890 15.91666
72.895 15.600785
72.900 16.086411
72.905 16.008808
72.910 15.844816
72.915 16.008387
72.920 16.134731
72.925 16.743782
72.930 16.540695
72.935 16.157473
72.940 16.357565
72.945 16.678669
72.950 16.337635
72.955 16.377756
72.960 16.627733
72.965 17.157955
72.970 17.498131
72.975 17.334343
72.980 17.31905
72.985 17.821035
72.990 18.19771
72.995 17.473391
73.000 17.286055
