!@!!GADDS PLOTSO FILE: Chi integration type
!@!!Title/SampleName: map-d1
!@!!Comment: ?
!@!!User: Bruker Instrument Administrator
!@!!Site: University of Illinois Chicago
!@!!Frame: map-d1_01_000.gfrm
!@!!Wavelengths    1.54184   1.54056   1.54439
!@!!Frame angles: 2Theta: 63.000 Omega: 50.000 Phi: 0.000 Chi: 90.000
!@!!Integration range: 2Theta: 53.000 to 73.000  Gamma: -105.000 to -75.000
!@!!Integration method: bin normalized
!@!N
!@!SS
!@!M
!@!L 0.0 0.0 0.0 0.0
!@!XDegrees
!@!YCounts
53.000 9.68591
53.005 9.384828
53.010 9.450212
53.015 9.859553
53.020 9.844481
53.025 9.395978
53.030 8.8968
53.035 9.063498
53.040 9.271301
53.045 9.37327
53.050 8.897706
53.055 8.431221
53.060 8.389384
53.065 8.552012
53.070 8.335679
53.075 8.329305
53.080 8.28057
53.085 8.723964
53.090 9.610185
53.095 10.119445
53.100 10.294442
53.105 10.64524
53.110 11.044345
53.115 10.461606
53.120 10.028613
53.125 10.134718
53.130 10.167152
53.135 10.178534
53.140 10.007682
53.145 9.904827
53.150 10.59234
53.155 10.534225
53.160 10.319807
53.165 10.424613
53.170 10.223629
53.175 10.48895
53.180 10.188806
53.185 10.256284
53.190 9.978263
53.195 9.842059
53.200 10.117746
53.205 10.360335
53.210 10.360361
53.215 10.492982
53.220 10.42367
53.225 10.736141
53.230 10.634737
53.235 10.54453
53.240 10.342949
53.245 10.434811
53.250 10.768719
53.255 10.85937
53.260 10.463082
53.265 10.175243
53.270 10.134529
53.275 10.422544
53.280 10.268757
53.285 10.490535
53.290 10.442591
53.295 10.191699
53.300 10.057445
53.305 9.561668
53.310 9.518215
53.315 9.32641
53.320 8.855115
53.325 9.116893
53.330 9.840865
53.335 10.628949
53.340 10.720184
53.345 10.608792
53.350 10.924135
53.355 11.604626
53.360 11.535065
53.365 10.946181
53.370 10.33825
53.375 10.652535
53.380 10.843777
53.385 10.8268
53.390 10.602163
53.395 10.662681
53.400 10.798932
53.405 10.856498
53.410 10.529746
53.415 10.089682
53.420 9.749532
53.425 9.600268
53.430 9.524382
53.435 9.912994
53.440 10.059147
53.445 10.472173
53.450 10.68679
53.455 10.653331
53.460 10.409565
53.465 10.141767
53.470 9.91961
53.475 9.978982
53.480 9.834105
53.485 9.621402
53.490 9.693955
53.495 10.121563
53.500 10.654696
53.505 10.204638
53.510 10.022577
53.515 10.277619
53.520 10.923071
53.525 11.187097
53.530 11.208102
53.535 10.895029
53.540 11.084124
53.545 10.868849
53.550 10.842267
53.555 10.506384
53.560 10.34041
53.565 10.071264
53.570 10.567379
53.575 10.873562
53.580 11.221337
53.585 11.537984
53.590 11.584267
53.595 11.667498
53.600 11.994705
53.605 12.22589
53.610 11.91357
53.615 11.557442
53.620 11.268896
53.625 10.832087
53.630 10.12751
53.635 9.44598
53.640 9.524897
53.645 10.229141
53.650 10.437125
53.655 10.152692
53.660 10.457671
53.665 11.130221
53.670 11.224273
53.675 10.607604
53.680 10.187802
53.685 10.477341
53.690 10.999236
53.695 10.721357
53.700 10.884804
53.705 11.210887
53.710 11.408651
53.715 10.796492
53.720 10.325976
53.725 10.319055
53.730 10.280769
53.735 9.974371
53.740 9.965918
53.745 10.026142
53.750 10.63306
53.755 10.781846
53.760 11.117699
53.765 11.025541
53.770 10.984861
53.775 11.052359
53.780 11.429184
53.785 11.637312
53.790 11.728388
53.795 11.83236
53.800 12.393897
53.805 12.348921
53.810 12.350601
53.815 12.411733
53.820 12.201026
53.825 11.831629
53.830 11.730805
53.835 11.351431
53.840 11.010372
53.845 10.471151
53.850 10.31728
53.855 10.512589
53.860 10.894929
53.865 11.137399
53.870 11.549093
53.875 11.81984
53.880 12.046945
53.885 11.707747
53.890 11.330456
53.895 10.745925
53.900 10.47077
53.905 10.367894
53.910 9.992361
53.915 9.972948
53.920 10.57032
53.925 10.732918
53.930 10.839702
53.935 11.327067
53.940 11.802438
53.945 11.832561
53.950 11.299026
53.955 10.508248
53.960 10.608515
53.965 10.544312
53.970 10.136813
53.975 9.787865
53.980 9.920839
53.985 10.305195
53.990 10.434791
53.995 10.64793
54.000 10.807926
54.005 11.264218
54.010 11.477602
54.015 11.257437
54.020 11.515458
54.025 11.709846
54.030 11.517477
54.035 11.116047
54.040 10.821839
54.045 11.388884
54.050 11.855518
54.055 11.696228
54.060 11.686188
54.065 11.22232
54.070 11.381104
54.075 11.27859
54.080 10.822707
54.085 11.075511
54.090 11.094222
54.095 10.893139
54.100 11.348678
54.105 11.371989
54.110 11.434099
54.115 11.228017
54.120 10.888863
54.125 11.124114
54.130 11.418511
54.135 11.336062
54.140 10.959626
54.145 10.88478
54.150 11.07914
54.155 10.897992
54.160 10.900504
54.165 11.220882
54.170 11.396797
54.175 11.267847
54.180 11.136195
54.185 10.755074
54.190 11.05636
54.195 10.854618
54.200 10.78239
54.205 10.74131
54.210 10.838723
54.215 10.908655
54.220 11.022041
54.225 11.389853
54.230 11.560979
54.235 11.059683
54.240 11.373977
54.245 11.364303
54.250 11.838316
54.255 12.030722
54.260 11.832455
54.265 11.666013
54.270 11.29045
54.275 10.956214
54.280 11.393812
54.285 11.143678
54.290 11.286335
54.295 11.694262
54.300 12.338945
54.305 13.212687
54.310 13.507188
54.315 13.545348
54.320 13.272439
54.325 12.985067
54.330 12.705107
54.335 12.49488
54.340 12.270719
54.345 11.745245
54.350 11.59919
54.355 12.046766
54.360 11.710268
54.365 11.938616
54.370 12.050025
54.375 12.144362
54.380 12.433963
54.385 12.622827
54.390 12.542074
54.395 12.725471
54.400 12.421779
54.405 12.443739
54.410 12.540849
54.415 12.06811
54.420 11.598843
54.425 11.292823
54.430 10.929751
54.435 10.564791
54.440 10.414353
54.445 10.259953
54.450 10.681771
54.455 10.715877
54.460 10.676458
54.465 10.767811
54.470 10.828185
54.475 10.70062
54.480 10.856041
54.485 10.128407
54.490 9.963428
54.495 9.733056
54.500 10.005907
54.505 10.101277
54.510 10.22602
54.515 10.378795
54.520 11.011751
54.525 11.472215
54.530 11.944395
54.535 12.249377
54.540 12.293106
54.545 11.891802
54.550 11.776768
54.555 11.808224
54.560 11.945738
54.565 11.859236
54.570 11.246156
54.575 11.638762
54.580 12.281215
54.585 12.307408
54.590 11.917359
54.595 11.360649
54.600 11.233607
54.605 11.812553
54.610 11.39616
54.615 10.665235
54.620 10.948249
54.625 11.241364
54.630 11.103759
54.635 10.748962
54.640 9.971474
54.645 10.31815
54.650 10.451503
54.655 10.074704
54.660 10.316085
54.665 10.651258
54.670 10.753181
54.675 10.661725
54.680 11.007373
54.685 11.447537
54.690 11.696717
54.695 11.428102
54.700 11.286382
54.705 11.531174
54.710 11.627012
54.715 11.304318
54.720 11.19418
54.725 11.041411
54.730 11.259728
54.735 11.206826
54.740 11.229819
54.745 11.5594
54.750 11.461872
54.755 11.845144
54.760 11.640895
54.765 11.863389
54.770 12.038404
54.775 11.917754
54.780 11.711062
54.785 11.971972
54.790 12.374755
54.795 12.35754
54.800 12.092898
54.805 12.132102
54.810 11.974659
54.815 11.772031
54.820 11.25141
54.825 10.989902
54.830 11.045091
54.835 11.199205
54.840 11.274757
54.845 11.597579
54.850 11.982254
54.855 12.033537
54.860 11.712276
54.865 11.900841
54.870 11.445467
54.875 11.511438
54.880 11.923225
54.885 12.10406
54.890 12.509054
54.895 12.68304
54.900 13.110079
54.905 13.789241
54.910 13.810122
54.915 13.661192
54.920 13.322599
54.925 12.814294
54.930 12.302184
54.935 11.991474
54.940 11.4826
54.945 11.359076
54.950 10.983961
54.955 11.445498
54.960 11.961726
54.965 12.127599
54.970 12.041045
54.975 12.05102
54.980 12.196712
54.985 12.389268
54.990 12.091364
54.995 11.793207
55.000 11.475652
55.005 11.894521
55.010 12.281747
55.015 12.088651
55.020 12.040625
55.025 12.16575
55.030 12.39944
55.035 12.736622
55.040 12.093825
55.045 12.287862
55.050 12.868797
55.055 12.527609
55.060 12.183527
55.065 12.061811
55.070 12.192012
55.075 12.06825
55.080 11.577416
55.085 11.06167
55.090 10.92163
55.095 11.579503
55.100 12.042562
55.105 12.254149
55.110 12.538316
55.115 12.76511
55.120 12.701093
55.125 12.956327
55.130 12.779326
55.135 12.736878
55.140 12.685448
55.145 12.614738
55.150 12.453094
55.155 12.6058
55.160 12.685822
55.165 12.307213
55.170 11.603294
55.175 11.255155
55.180 11.546585
55.185 12.154904
55.190 12.04295
55.195 11.273306
55.200 11.380419
55.205 11.894025
55.210 12.12161
55.215 11.739211
55.220 11.139461
55.225 10.732727
55.230 11.073393
55.235 10.68505
55.240 10.502283
55.245 10.286313
55.250 10.391998
55.255 10.786458
55.260 10.935899
55.265 11.088721
55.270 11.596783
55.275 11.672344
55.280 11.934134
55.285 11.64873
55.290 11.990562
55.295 12.215521
55.300 12.359136
55.305 12.071945
55.310 11.997771
55.315 11.848543
55.320 12.148753
55.325 12.557746
55.330 12.816861
55.335 13.114501
55.340 13.698823
55.345 14.114929
55.350 13.978044
55.355 13.801896
55.360 13.879079
55.365 13.332922
55.370 12.524968
55.375 12.285177
55.380 12.310932
55.385 12.950118
55.390 12.58259
55.395 12.216476
55.400 12.694481
55.405 13.219405
55.410 13.058467
55.415 12.767771
55.420 12.689718
55.425 12.753867
55.430 12.776658
55.435 13.005256
55.440 12.649658
55.445 12.381971
55.450 12.195642
55.455 12.018946
55.460 12.259029
55.465 12.415034
55.470 12.133017
55.475 12.511411
55.480 12.667852
55.485 12.649112
55.490 12.899008
55.495 12.570574
55.500 12.560448
55.505 12.506195
55.510 12.479897
55.515 12.915709
55.520 13.163337
55.525 13.366241
55.530 13.681114
55.535 13.771624
55.540 13.500862
55.545 13.091315
55.550 12.953035
55.555 13.254398
55.560 13.136034
55.565 12.933153
55.570 12.867958
55.575 13.049358
55.580 13.353759
55.585 13.308078
55.590 13.278082
55.595 13.38569
55.600 13.273247
55.605 13.102937
55.610 12.785113
55.615 12.5917
55.620 12.471151
55.625 12.388638
55.630 12.490751
55.635 12.698356
55.640 12.808748
55.645 12.99763
55.650 13.446965
55.655 13.233189
55.660 12.717894
55.665 12.539953
55.670 12.133687
55.675 12.054866
55.680 12.308878
55.685 12.167613
55.690 12.410286
55.695 12.390754
55.700 12.398178
55.705 12.865737
55.710 13.264743
55.715 13.198182
55.720 13.300185
55.725 13.297832
55.730 13.746327
55.735 13.603046
55.740 13.699744
55.745 14.006931
55.750 13.972145
55.755 13.874387
55.760 13.758741
55.765 13.672917
55.770 13.49616
55.775 13.65584
55.780 13.794648
55.785 13.383187
55.790 12.686785
55.795 12.43162
55.800 12.204538
55.805 12.201105
55.810 11.773187
55.815 12.016128
55.820 13.267763
55.825 14.009409
55.830 14.216827
55.835 14.658858
55.840 14.948634
55.845 14.756252
55.850 14.115664
55.855 13.532771
55.860 13.625923
55.865 13.20689
55.870 13.172371
55.875 13.150105
55.880 13.119473
55.885 13.002641
55.890 12.685822
55.895 12.841108
55.900 12.894018
55.905 12.095329
55.910 11.742929
55.915 11.805762
55.920 12.045604
55.925 11.827562
55.930 11.923038
55.935 12.386535
55.940 13.529967
55.945 14.112597
55.950 14.024293
55.955 13.893971
55.960 13.876873
55.965 13.621191
55.970 13.415574
55.975 12.50567
55.980 12.458779
55.985 12.721793
55.990 12.887936
55.995 13.442005
56.000 13.389167
56.005 13.467337
56.010 13.634212
56.015 13.267303
56.020 13.602454
56.025 13.571565
56.030 13.145267
56.035 13.420919
56.040 13.530306
56.045 14.077576
56.050 13.780252
56.055 13.499092
56.060 13.523982
56.065 13.564464
56.070 13.397856
56.075 13.320783
56.080 13.351101
56.085 13.526048
56.090 13.640327
56.095 13.754673
56.100 13.866071
56.105 14.010427
56.110 14.382703
56.115 14.044436
56.120 13.862514
56.125 13.606638
56.130 13.347919
56.135 13.232636
56.140 13.546538
56.145 12.777566
56.150 12.605278
56.155 12.482909
56.160 12.351887
56.165 12.521552
56.170 12.681765
56.175 12.512796
56.180 12.268312
56.185 12.475247
56.190 12.927661
56.195 13.029089
56.200 13.138007
56.205 13.148835
56.210 13.468145
56.215 14.1146
56.220 14.121255
56.225 13.834953
56.230 13.794667
56.235 13.897051
56.240 14.074663
56.245 14.395683
56.250 14.26298
56.255 14.146619
56.260 14.289548
56.265 13.860223
56.270 13.570436
56.275 13.362765
56.280 12.931652
56.285 13.007161
56.290 13.309638
56.295 13.405979
56.300 13.637636
56.305 13.691276
56.310 13.437352
56.315 13.266488
56.320 13.509667
56.325 13.702532
56.330 14.448023
56.335 15.210783
56.340 15.241408
56.345 15.567015
56.350 15.438154
56.355 15.309785
56.360 15.466782
56.365 15.11599
56.370 14.525845
56.375 13.99556
56.380 13.702205
56.385 14.234745
56.390 13.610915
56.395 12.964585
56.400 12.576406
56.405 12.446338
56.410 12.399315
56.415 12.059994
56.420 11.360723
56.425 11.49832
56.430 11.996565
56.435 12.184312
56.440 12.548843
56.445 12.91731
56.450 13.292836
56.455 14.139277
56.460 14.587695
56.465 14.03836
56.470 13.736157
56.475 13.598492
56.480 13.425128
56.485 13.499034
56.490 13.620876
56.495 13.311279
56.500 13.329218
56.505 13.715834
56.510 13.910052
56.515 13.853848
56.520 13.321547
56.525 12.369672
56.530 12.283134
56.535 12.672713
56.540 12.937237
56.545 12.771408
56.550 12.756495
56.555 13.341301
56.560 14.507875
56.565 14.682903
56.570 14.592759
56.575 14.231473
56.580 14.675189
56.585 14.913561
56.590 14.325171
56.595 13.742287
56.600 13.90294
56.605 13.883039
56.610 13.507317
56.615 13.313298
56.620 13.363401
56.625 13.30391
56.630 13.301393
56.635 13.281926
56.640 13.306656
56.645 13.367512
56.650 13.226596
56.655 13.466403
56.660 13.596102
56.665 13.657666
56.670 13.642896
56.675 13.762137
56.680 14.018706
56.685 14.293151
56.690 14.492005
56.695 15.157661
56.700 15.404991
56.705 15.550055
56.710 15.779466
56.715 16.193102
56.720 16.35022
56.725 16.136326
56.730 15.535912
56.735 15.377587
56.740 15.194622
56.745 14.513715
56.750 13.794208
56.755 13.765679
56.760 14.168935
56.765 14.116598
56.770 14.327089
56.775 13.84673
56.780 14.122856
56.785 14.247134
56.790 14.212386
56.795 14.064412
56.800 14.234256
56.805 14.725829
56.810 15.614326
56.815 15.813463
56.820 15.45304
56.825 15.401969
56.830 15.208136
56.835 14.470592
56.840 13.263593
56.845 12.796581
56.850 12.652343
56.855 13.089251
56.860 12.880331
56.865 13.243756
56.870 14.131209
56.875 14.346934
56.880 14.513026
56.885 14.561931
56.890 14.513433
56.895 14.558357
56.900 14.377497
56.905 14.041132
56.910 13.905163
56.915 13.607983
56.920 13.903274
56.925 14.02934
56.930 13.851762
56.935 13.329404
56.940 13.038424
56.945 13.519219
56.950 13.559311
56.955 12.726177
56.960 12.661274
56.965 12.571536
56.970 12.836527
56.975 13.481402
56.980 13.212477
56.985 13.657416
56.990 14.281785
56.995 14.399454
57.000 15.022745
57.005 14.883465
57.010 14.191571
57.015 14.162573
57.020 13.604253
57.025 13.169277
57.030 13.209372
57.035 13.204406
57.040 13.164919
57.045 13.585494
57.050 13.536077
57.055 13.862486
57.060 13.584973
57.065 13.236624
57.070 13.377817
57.075 14.034856
57.080 13.964462
57.085 14.061971
57.090 14.059957
57.095 14.822514
57.100 15.380313
57.105 15.024685
57.110 15.083857
57.115 15.512594
57.120 15.413717
57.125 15.741127
57.130 15.383063
57.135 15.558304
57.140 16.262348
57.145 16.33795
57.150 16.298536
57.155 16.533627
57.160 16.957708
57.165 16.930292
57.170 16.269264
57.175 15.652887
57.180 14.67219
57.185 14.421447
57.190 14.052026
57.195 13.428837
57.200 13.305019
57.205 13.715773
57.210 13.921517
57.215 14.503862
57.220 15.064024
57.225 15.069965
57.230 15.040979
57.235 15.509062
57.240 15.251867
57.245 14.96355
57.250 14.317373
57.255 13.927899
57.260 14.136563
57.265 14.05677
57.270 13.765694
57.275 13.995983
57.280 14.665588
57.285 15.512067
57.290 16.028311
57.295 16.1429
57.300 16.511816
57.305 16.615803
57.310 16.014469
57.315 15.914771
57.320 15.743153
57.325 15.398876
57.330 14.94379
57.335 14.169308
57.340 14.089741
57.345 14.143895
57.350 13.592512
57.355 13.280114
57.360 13.566835
57.365 13.603742
57.370 14.479722
57.375 14.460972
57.380 15.371593
57.385 15.606279
57.390 15.875417
57.395 15.822019
57.400 15.869467
57.405 15.305154
57.410 14.839996
57.415 13.912425
57.420 13.844471
57.425 13.865675
57.430 13.996144
57.435 14.62853
57.440 14.748866
57.445 15.108289
57.450 15.603574
57.455 15.014061
57.460 14.666347
57.465 14.616188
57.470 14.472974
57.475 14.416191
57.480 14.747477
57.485 14.536019
57.490 15.333512
57.495 14.939425
57.500 14.453095
57.505 14.038131
57.510 13.880554
57.515 14.083384
57.520 14.153214
57.525 14.261853
57.530 14.211993
57.535 14.156986
57.540 14.214849
57.545 14.605776
57.550 14.308129
57.555 14.14633
57.560 14.061853
57.565 14.339106
57.570 14.683025
57.575 15.294472
57.580 15.450025
57.585 15.207368
57.590 15.517853
57.595 15.753034
57.600 16.375792
57.605 16.337168
57.610 15.864985
57.615 15.473061
57.620 15.458288
57.625 15.391778
57.630 15.098248
57.635 14.528467
57.640 14.246273
57.645 14.248746
57.650 14.117042
57.655 13.91491
57.660 13.171373
57.665 12.982731
57.670 13.281246
57.675 13.938492
57.680 14.193519
57.685 14.275174
57.690 14.467842
57.695 15.031736
57.700 15.557947
57.705 15.51434
57.710 14.943409
57.715 14.629798
57.720 14.601395
57.725 14.764006
57.730 14.763936
57.735 14.068853
57.740 13.715656
57.745 13.885013
57.750 14.204123
57.755 14.515916
57.760 14.387058
57.765 15.043468
57.770 15.36999
57.775 15.337653
57.780 15.121194
57.785 15.47801
57.790 15.586659
57.795 15.662638
57.800 15.366164
57.805 15.437247
57.810 15.482893
57.815 15.156775
57.820 14.936417
57.825 14.670212
57.830 14.68917
57.835 14.493434
57.840 14.34547
57.845 14.565015
57.850 14.644534
57.855 14.18513
57.860 14.312356
57.865 14.711293
57.870 15.185137
57.875 15.501235
57.880 15.893305
57.885 16.426785
57.890 17.144121
57.895 17.167147
57.900 16.366463
57.905 15.717888
57.910 15.370562
57.915 14.968491
57.920 14.816566
57.925 14.530989
57.930 14.800873
57.935 15.315264
57.940 15.522767
57.945 15.645562
57.950 16.032442
57.955 16.139837
57.960 15.823891
57.965 15.262774
57.970 14.754936
57.975 14.590078
57.980 14.493207
57.985 13.914539
57.990 13.413631
57.995 13.715013
58.000 14.27914
58.005 14.776902
58.010 15.53616
58.015 15.8371
58.020 16.095247
58.025 16.66921
58.030 16.846376
58.035 16.903084
58.040 16.619459
58.045 16.616745
58.050 16.521961
58.055 16.36665
58.060 16.044586
58.065 15.659247
58.070 15.646873
58.075 15.273823
58.080 14.795604
58.085 15.16598
58.090 15.28903
58.095 15.356196
58.100 15.585133
58.105 15.519308
58.110 15.217551
58.115 14.949151
58.120 14.595297
58.125 14.802866
58.130 14.742833
58.135 14.620492
58.140 14.431323
58.145 14.489523
58.150 14.608529
58.155 15.075172
58.160 15.09521
58.165 15.563112
58.170 15.830195
58.175 16.233601
58.180 16.661612
58.185 16.941015
58.190 17.114866
58.195 16.775728
58.200 16.39991
58.205 16.042519
58.210 15.784505
58.215 15.889567
58.220 15.934307
58.225 15.11992
58.230 15.033096
58.235 14.630871
58.240 14.683681
58.245 14.764458
58.250 14.654546
58.255 14.933784
58.260 15.402727
58.265 15.708317
58.270 16.232384
58.275 16.636599
58.280 16.931585
58.285 16.908384
58.290 16.691763
58.295 16.708462
58.300 16.929676
58.305 16.865911
58.310 16.472916
58.315 16.108593
58.320 15.644406
58.325 15.35914
58.330 15.215837
58.335 14.817725
58.340 14.808802
58.345 14.746811
58.350 15.147103
58.355 15.468595
58.360 16.215282
58.365 15.961579
58.370 15.737156
58.375 15.673944
58.380 15.705279
58.385 15.493673
58.390 15.467164
58.395 14.84369
58.400 15.253531
58.405 15.120722
58.410 15.176636
58.415 15.754643
58.420 16.132223
58.425 16.039597
58.430 16.11762
58.435 16.165268
58.440 16.750597
58.445 16.469374
58.450 16.057409
58.455 15.714755
58.460 15.728175
58.465 15.498335
58.470 15.238638
58.475 15.185163
58.480 15.743401
58.485 15.71052
58.490 16.147215
58.495 16.710754
58.500 16.957985
58.505 17.156368
58.510 16.986786
58.515 16.842766
58.520 16.535231
58.525 16.434805
58.530 15.384507
58.535 15.248569
58.540 15.214922
58.545 15.053864
58.550 14.702556
58.555 15.025944
58.560 14.764595
58.565 15.298072
58.570 15.642788
58.575 15.755509
58.580 15.86702
58.585 15.729128
58.590 15.622849
58.595 15.985245
58.600 16.028608
58.605 15.747543
58.610 15.436898
58.615 15.671853
58.620 16.683044
58.625 17.021032
58.630 17.047621
58.635 16.645704
58.640 16.59466
58.645 16.504908
58.650 16.559155
58.655 15.975935
58.660 15.521097
58.665 15.022214
58.670 15.446283
58.675 15.740588
58.680 16.046265
58.685 15.822328
58.690 15.788619
58.695 15.654892
58.700 15.985356
58.705 15.88375
58.710 15.814482
58.715 15.298907
58.720 14.998227
58.725 14.952249
58.730 14.681536
58.735 14.493389
58.740 14.479536
58.745 14.688409
58.750 15.437973
58.755 16.10569
58.760 16.625921
58.765 16.985245
58.770 17.116116
58.775 17.289038
58.780 17.027641
58.785 16.787882
58.790 16.412235
58.795 16.280312
58.800 16.426365
58.805 16.430391
58.810 16.115303
58.815 15.843592
58.820 15.716755
58.825 15.510659
58.830 15.744727
58.835 15.50816
58.840 15.129128
58.845 15.319261
58.850 15.964257
58.855 16.347113
58.860 16.222578
58.865 15.805628
58.870 16.615801
58.875 17.012018
58.880 17.460232
58.885 16.978863
58.890 16.289543
58.895 16.381056
58.900 16.173164
58.905 15.701085
58.910 15.611831
58.915 15.214479
58.920 15.5274
58.925 16.019045
58.930 16.375504
58.935 16.673342
58.940 16.503448
58.945 16.444324
58.950 16.255171
58.955 16.172432
58.960 16.28413
58.965 16.51952
58.970 16.329384
58.975 16.15111
58.980 16.454796
58.985 17.036833
58.990 16.995279
58.995 16.850843
59.000 16.247391
59.005 16.447493
59.010 17.299326
59.015 17.459389
59.020 17.373249
59.025 17.494524
59.030 17.057278
59.035 17.220785
59.040 17.504995
59.045 17.048204
59.050 16.877243
59.055 16.868143
59.060 17.197981
59.065 17.646067
59.070 17.13695
59.075 17.022146
59.080 16.839186
59.085 16.194138
59.090 16.110096
59.095 16.005213
59.100 16.39168
59.105 17.217279
59.110 16.725817
59.115 16.877213
59.120 16.835741
59.125 16.819674
59.130 17.177822
59.135 17.235533
59.140 17.33136
59.145 17.321976
59.150 17.151363
59.155 17.420031
59.160 16.825562
59.165 16.454016
59.170 15.892637
59.175 15.682548
59.180 15.700088
59.185 15.63209
59.190 16.055584
59.195 16.101583
59.200 15.955435
59.205 16.182072
59.210 16.366175
59.215 16.746817
59.220 16.675776
59.225 17.10253
59.230 17.739635
59.235 17.782314
59.240 18.015421
59.245 18.177631
59.250 18.490276
59.255 18.723425
59.260 17.981318
59.265 17.645359
59.270 18.147797
59.275 18.21591
59.280 18.534931
59.285 18.973726
59.290 18.953728
59.295 19.061066
59.300 19.082031
59.305 18.947813
59.310 18.731436
59.315 18.015137
59.320 16.9035
59.325 16.935455
59.330 17.520834
59.335 17.882467
59.340 17.350876
59.345 17.144606
59.350 17.117355
59.355 17.656797
59.360 17.819532
59.365 17.484753
59.370 17.287844
59.375 16.724453
59.380 16.276997
59.385 16.624235
59.390 17.243959
59.395 16.796625
59.400 16.717476
59.405 16.782816
59.410 17.772032
59.415 18.596336
59.420 18.737267
59.425 18.778088
59.430 19.487831
59.435 19.778028
59.440 19.968367
59.445 19.76297
59.450 19.483971
59.455 19.370317
59.460 19.344585
59.465 18.882219
59.470 18.549644
59.475 18.582924
59.480 18.825941
59.485 18.581987
59.490 18.599331
59.495 18.897028
59.500 19.16687
59.505 18.890858
59.510 19.090239
59.515 19.132133
59.520 19.377289
59.525 19.661333
59.530 19.580648
59.535 19.954763
59.540 20.240112
59.545 19.648659
59.550 19.292021
59.555 18.985184
59.560 18.948795
59.565 18.631186
59.570 18.081129
59.575 17.996244
59.580 18.183653
59.585 18.761026
59.590 19.081371
59.595 18.889393
59.600 19.069242
59.605 19.662571
59.610 20.007811
59.615 20.284536
59.620 20.473692
59.625 21.037661
59.630 21.282137
59.635 20.790634
59.640 20.37822
59.645 20.090485
59.650 19.70505
59.655 19.219612
59.660 18.683205
59.665 18.616299
59.670 18.643383
59.675 18.574608
59.680 19.079699
59.685 19.694355
59.690 20.358194
59.695 20.580891
59.700 21.508617
59.705 22.610102
59.710 23.281471
59.715 22.993988
59.720 22.708757
59.725 22.421715
59.730 21.873814
59.735 21.359932
59.740 20.968168
59.745 20.292822
59.750 20.713713
59.755 20.41934
59.760 20.585789
59.765 21.517183
59.770 21.424158
59.775 21.450533
59.780 21.603582
59.785 21.663334
59.790 21.889408
59.795 21.556065
59.800 20.640003
59.805 19.972885
59.810 19.691702
59.815 19.714844
59.820 19.344395
59.825 18.725096
59.830 19.238354
59.835 20.356276
59.840 20.811567
59.845 21.298861
59.850 21.617792
59.855 21.998184
59.860 22.440933
59.865 22.222067
59.870 21.96681
59.875 22.05064
59.880 21.725723
59.885 21.857037
59.890 21.925337
59.895 22.092205
59.900 21.969774
59.905 21.783188
59.910 21.552378
59.915 21.446798
59.920 21.154701
59.925 21.152273
59.930 20.998642
59.935 20.680002
59.940 20.750568
59.945 21.02334
59.950 20.592541
59.955 21.085806
59.960 21.05459
59.965 21.332243
59.970 22.103842
59.975 22.482483
59.980 23.067003
59.985 23.602188
59.990 23.278294
59.995 22.881662
60.000 23.170027
60.005 23.469254
60.010 23.671709
60.015 23.55267
60.020 23.261362
60.025 23.028898
60.030 23.688257
60.035 23.426176
60.040 22.888405
60.045 22.632263
60.050 22.173666
60.055 23.140627
60.060 23.343958
60.065 23.130714
60.070 23.185747
60.075 23.32423
60.080 22.630531
60.085 22.474581
60.090 22.168018
60.095 22.505119
60.100 22.294685
60.105 22.715033
60.110 23.105829
60.115 23.960167
60.120 24.76165
60.125 24.718967
60.130 24.384048
60.135 24.503128
60.140 23.654507
60.145 23.80369
60.150 24.176733
60.155 24.039787
60.160 23.82336
60.165 23.508881
60.170 23.165894
60.175 23.400768
60.180 22.928738
60.185 22.180235
60.190 21.367477
60.195 21.194407
60.200 21.739197
60.205 22.069969
60.210 21.913334
60.215 21.783319
60.220 21.992565
60.225 22.515236
60.230 23.02026
60.235 23.077806
60.240 23.184151
60.245 23.168741
60.250 23.742743
60.255 23.424732
60.260 23.218485
60.265 23.413496
60.270 23.561508
60.275 23.677414
60.280 23.971436
60.285 23.262234
60.290 23.187786
60.295 22.770483
60.300 22.108009
60.305 21.753836
60.310 21.509174
60.315 21.263527
60.320 21.403149
60.325 21.738508
60.330 21.986849
60.335 22.345327
60.340 21.996004
60.345 21.382715
60.350 21.54804
60.355 22.104244
60.360 22.291298
60.365 22.032955
60.370 21.453041
60.375 22.062166
60.380 22.847097
60.385 23.317703
60.390 23.293312
60.395 23.754755
60.400 23.946173
60.405 24.238157
60.410 23.758053
60.415 23.05871
60.420 22.115623
60.425 21.698845
60.430 21.500555
60.435 21.233892
60.440 20.689587
60.445 21.279858
60.450 21.680901
60.455 22.083553
60.460 21.903168
60.465 21.932056
60.470 22.573774
60.475 23.020042
60.480 23.220413
60.485 23.060795
60.490 22.591619
60.495 22.336269
60.500 21.393507
60.505 21.146387
60.510 21.409594
60.515 21.229603
60.520 21.387518
60.525 21.507107
60.530 21.373983
60.535 21.305704
60.540 21.011604
60.545 20.473986
60.550 20.241835
60.555 20.172855
60.560 20.043522
60.565 19.939054
60.570 20.280006
60.575 20.675579
60.580 20.79892
60.585 20.73979
60.590 20.807306
60.595 20.891699
60.600 20.828371
60.605 20.31074
60.610 19.776251
60.615 19.46797
60.620 19.543194
60.625 19.759171
60.630 20.2132
60.635 21.252251
60.640 21.823603
60.645 22.654493
60.650 22.400475
60.655 21.956406
60.660 21.506567
60.665 21.174692
60.670 20.61005
60.675 19.757877
60.680 19.433336
60.685 19.438652
60.690 19.284555
60.695 19.604544
60.700 19.618208
60.705 19.457979
60.710 19.395878
60.715 18.717604
60.720 18.535528
60.725 18.553598
60.730 18.187326
60.735 17.845745
60.740 18.137634
60.745 18.832174
60.750 19.266539
60.755 19.482821
60.760 19.393442
60.765 19.107498
60.770 18.750111
60.775 18.281635
60.780 17.678665
60.785 17.645748
60.790 17.928261
60.795 18.149988
60.800 18.63553
60.805 18.650801
60.810 19.059454
60.815 19.140316
60.820 19.166286
60.825 19.093647
60.830 19.166735
60.835 19.732464
60.840 20.572981
60.845 21.277206
60.850 21.24486
60.855 20.867395
60.860 20.854315
60.865 20.716764
60.870 20.032923
60.875 19.118515
60.880 17.973433
60.885 17.975424
60.890 17.959011
60.895 17.58742
60.900 17.238665
60.905 17.065145
60.910 17.532278
60.915 17.685165
60.920 17.709133
60.925 17.965681
60.930 17.856049
60.935 17.889584
60.940 18.166553
60.945 18.160698
60.950 18.057047
60.955 17.940891
60.960 18.071512
60.965 17.833765
60.970 17.42671
60.975 17.227825
60.980 17.167467
60.985 17.677185
60.990 17.386297
60.995 17.045965
61.000 17.698746
61.005 17.829996
61.010 18.027504
61.015 18.009176
61.020 17.736282
61.025 17.668512
61.030 18.080151
61.035 18.156389
61.040 18.382872
61.045 17.746826
61.050 17.091837
61.055 16.931934
61.060 16.945826
61.065 16.068922
61.070 15.678143
61.075 15.661434
61.080 15.92374
61.085 16.280785
61.090 16.346077
61.095 16.655804
61.100 17.570232
61.105 18.267227
61.110 18.708055
61.115 18.754646
61.120 19.071369
61.125 19.381678
61.130 19.390429
61.135 18.735884
61.140 17.799486
61.145 17.502953
61.150 17.217571
61.155 17.032509
61.160 17.16625
61.165 16.531544
61.170 16.406267
61.175 17.031496
61.180 17.387371
61.185 17.632872
61.190 17.288803
61.195 17.090105
61.200 17.596876
61.205 18.237383
61.210 18.384499
61.215 18.430672
61.220 18.965776
61.225 18.932495
61.230 19.260427
61.235 19.781641
61.240 19.653839
61.245 19.57682
61.250 19.210339
61.255 18.687771
61.260 19.05224
61.265 18.826355
61.270 18.135801
61.275 17.81554
61.280 17.838737
61.285 18.410667
61.290 18.688669
61.295 18.689339
61.300 18.798353
61.305 18.63205
61.310 18.822954
61.315 18.337484
61.320 17.80117
61.325 17.708452
61.330 17.481947
61.335 17.269938
61.340 17.492802
61.345 17.263538
61.350 17.632477
61.355 17.425272
61.360 17.959707
61.365 18.1101
61.370 17.49017
61.375 17.217884
61.380 17.181618
61.385 17.177896
61.390 17.074083
61.395 16.620689
61.400 16.232597
61.405 16.1882
61.410 16.45849
61.415 16.770084
61.420 16.929962
61.425 17.181793
61.430 17.162508
61.435 17.564856
61.440 18.61418
61.445 18.646605
61.450 18.797548
61.455 18.493244
61.460 18.753988
61.465 18.789339
61.470 18.742901
61.475 17.988577
61.480 18.124914
61.485 17.765299
61.490 17.874977
61.495 17.436438
61.500 17.381721
61.505 17.406445
61.510 17.827055
61.515 18.192644
61.520 17.929707
61.525 17.7978
61.530 17.337337
61.535 17.405725
61.540 17.594198
61.545 17.922146
61.550 17.406857
61.555 17.671612
61.560 17.965485
61.565 18.507624
61.570 18.568565
61.575 18.928593
61.580 18.328266
61.585 18.050997
61.590 17.51652
61.595 17.260857
61.600 17.801981
61.605 17.366014
61.610 17.014616
61.615 17.411514
61.620 17.99934
61.625 18.360783
61.630 18.238438
61.635 17.413231
61.640 17.353323
61.645 16.545713
61.650 16.385069
61.655 16.479622
61.660 16.584021
61.665 16.792208
61.670 17.047207
61.675 17.197531
61.680 18.075193
61.685 17.677176
61.690 17.189383
61.695 17.048141
61.700 16.683983
61.705 15.819321
61.710 15.688861
61.715 14.803741
61.720 14.923602
61.725 15.143517
61.730 14.946627
61.735 14.723148
61.740 15.365525
61.745 15.413653
61.750 15.770688
61.755 15.885315
61.760 15.70604
61.765 15.789905
61.770 17.043528
61.775 17.011824
61.780 16.84758
61.785 16.852278
61.790 16.887098
61.795 17.124166
61.800 17.409367
61.805 16.689693
61.810 17.038294
61.815 17.70986
61.820 18.19636
61.825 18.254725
61.830 18.563171
61.835 18.270247
61.840 18.232983
61.845 17.974815
61.850 17.863224
61.855 17.518993
61.860 17.854115
61.865 17.349411
61.870 17.54965
61.875 18.082619
61.880 18.539118
61.885 18.81975
61.890 18.729193
61.895 18.845558
61.900 19.281643
61.905 19.428493
61.910 19.274488
61.915 18.760492
61.920 18.280626
61.925 18.650164
61.930 18.237448
61.935 17.881027
61.940 18.017084
61.945 17.712664
61.950 18.08625
61.955 18.753403
61.960 18.496059
61.965 18.084852
61.970 18.454756
61.975 18.106472
61.980 18.045389
61.985 17.35667
61.990 17.196255
61.995 18.130915
62.000 18.272625
62.005 17.916368
62.010 17.998493
62.015 18.257294
62.020 18.49074
62.025 18.450306
62.030 17.905386
62.035 18.184288
62.040 18.575741
62.045 19.157412
62.050 19.669508
62.055 19.925125
62.060 20.0828
62.065 20.585869
62.070 20.877871
62.075 20.616549
62.080 20.07675
62.085 19.773546
62.090 19.561335
62.095 18.652966
62.100 17.520533
62.105 17.249338
62.110 17.668568
62.115 17.521828
62.120 17.412996
62.125 16.945784
62.130 17.473429
62.135 18.00564
62.140 17.681709
62.145 17.435274
62.150 17.486496
62.155 17.675928
62.160 17.909252
62.165 17.818544
62.170 18.348669
62.175 18.875534
62.180 18.441748
62.185 18.343279
62.190 18.099516
62.195 17.958593
62.200 18.751925
62.205 18.23415
62.210 18.018778
62.215 18.278057
62.220 18.159603
62.225 17.895483
62.230 17.814377
62.235 17.440195
62.240 17.438835
62.245 17.110462
62.250 17.117134
62.255 16.944412
62.260 17.388615
62.265 17.508493
62.270 16.94141
62.275 16.964911
62.280 17.222874
62.285 17.441038
62.290 18.146694
62.295 18.145418
62.300 18.220976
62.305 18.119026
62.310 17.739546
62.315 17.285761
62.320 17.187767
62.325 16.889296
62.330 17.027323
62.335 16.626026
62.340 16.465923
62.345 17.240303
62.350 17.568766
62.355 17.415037
62.360 17.256678
62.365 17.036379
62.370 17.367184
62.375 16.943018
62.380 16.216406
62.385 16.077288
62.390 16.210993
62.395 16.26321
62.400 16.286261
62.405 16.390739
62.410 17.07901
62.415 17.799194
62.420 18.460218
62.425 18.773008
62.430 19.25699
62.435 19.126453
62.440 18.917118
62.445 19.259565
62.450 19.414063
62.455 19.388552
62.460 19.25798
62.465 18.810358
62.470 19.267574
62.475 19.479946
62.480 19.161522
62.485 18.409904
62.490 18.457418
62.495 18.133511
62.500 17.635647
62.505 17.132153
62.510 17.355732
62.515 17.164928
62.520 17.655836
62.525 17.181829
62.530 17.37388
62.535 17.806978
62.540 17.748159
62.545 17.140219
62.550 17.172316
62.555 16.79361
62.560 16.612316
62.565 16.594273
62.570 16.397106
62.575 16.709158
62.580 16.681103
62.585 16.058195
62.590 16.189587
62.595 16.547604
62.600 16.739733
62.605 17.294664
62.610 17.332922
62.615 18.107592
62.620 18.801579
62.625 18.757132
62.630 18.578144
62.635 18.413864
62.640 18.230259
62.645 18.487339
62.650 18.047403
62.655 17.808666
62.660 18.046993
62.665 18.076397
62.670 17.858305
62.675 17.982763
62.680 17.589813
62.685 17.722214
62.690 17.943474
62.695 17.660822
62.700 17.375854
62.705 17.376278
62.710 17.010408
62.715 17.524963
62.720 17.387863
62.725 17.840849
62.730 18.849882
62.735 19.565039
62.740 19.799265
62.745 19.960157
62.750 19.904005
62.755 20.409697
62.760 19.658859
62.765 18.523096
62.770 18.146257
62.775 18.103477
62.780 17.987309
62.785 17.548857
62.790 17.04245
62.795 16.565201
62.800 16.337278
62.805 16.618689
62.810 16.712835
62.815 16.971895
62.820 17.601782
62.825 18.137037
62.830 18.622114
62.835 18.638899
62.840 18.19417
62.845 18.205355
62.850 17.672976
62.855 16.791508
62.860 16.702291
62.865 16.464325
62.870 17.071245
62.875 17.27932
62.880 16.901476
62.885 16.99682
62.890 17.040424
62.895 17.288872
62.900 18.109615
62.905 18.327742
62.910 18.229378
62.915 18.17798
62.920 18.146975
62.925 18.740883
62.930 17.882769
62.935 17.337446
62.940 17.257021
62.945 16.742783
62.950 16.260811
62.955 16.369411
62.960 16.088043
62.965 16.010212
62.970 15.927385
62.975 15.88938
62.980 17.346258
62.985 17.921556
62.990 18.468874
62.995 19.496508
63.000 20.079258
63.005 20.407509
63.010 20.136063
63.015 19.612673
63.020 19.911234
63.025 19.252672
63.030 18.062258
63.035 17.96413
63.040 18.03216
63.045 17.967262
63.050 17.25156
63.055 16.937998
63.060 16.72645
63.065 17.042376
63.070 17.13398
63.075 17.265932
63.080 17.550247
63.085 17.92581
63.090 18.246874
63.095 18.757294
63.100 18.800604
63.105 18.326786
63.110 17.760235
63.115 18.112373
63.120 18.392153
63.125 17.823925
63.130 17.692268
63.135 17.782866
63.140 17.625874
63.145 17.640423
63.150 17.048172
63.155 16.615664
63.160 16.544474
63.165 16.226334
63.170 16.23951
63.175 16.687489
63.180 16.455032
63.185 16.639259
63.190 16.727007
63.195 16.697704
63.200 17.251083
63.205 17.413012
63.210 17.508739
63.215 18.018818
63.220 18.014572
63.225 18.067102
63.230 18.067398
63.235 17.731958
63.240 17.479492
63.245 17.286652
63.250 17.476545
63.255 17.7092
63.260 18.08111
63.265 18.516102
63.270 17.89465
63.275 17.778181
63.280 18.201092
63.285 18.554697
63.290 18.819874
63.295 18.390743
63.300 18.134024
63.305 18.631344
63.310 19.209805
63.315 19.339682
63.320 19.227802
63.325 18.661049
63.330 18.931765
63.335 18.991467
63.340 18.827007
63.345 18.309496
63.350 17.658344
63.355 17.08791
63.360 18.120777
63.365 18.690014
63.370 18.956295
63.375 19.079424
63.380 19.395046
63.385 19.733644
63.390 19.840403
63.395 19.323215
63.400 19.126274
63.405 18.792711
63.410 19.156164
63.415 19.298237
63.420 18.795923
63.425 19.433601
63.430 19.903143
63.435 19.665176
63.440 19.586336
63.445 19.03842
63.450 18.622448
63.455 18.317278
63.460 18.013481
63.465 17.720535
63.470 18.102106
63.475 18.024246
63.480 18.082438
63.485 18.644176
63.490 19.691967
63.495 19.246016
63.500 19.349911
63.505 18.903111
63.510 19.306587
63.515 19.648575
63.520 19.504877
63.525 18.600883
63.530 19.701916
63.535 19.461201
63.540 19.12303
63.545 18.804052
63.550 18.768103
63.555 18.594507
63.560 19.070854
63.565 18.257385
63.570 18.307398
63.575 18.60973
63.580 19.228292
63.585 19.125854
63.590 19.140261
63.595 19.006432
63.600 18.597284
63.605 18.146992
63.610 17.899162
63.615 17.605871
63.620 17.60355
63.625 17.753227
63.630 17.722572
63.635 18.298412
63.640 19.014425
63.645 19.614361
63.650 19.148281
63.655 18.626844
63.660 18.298452
63.665 19.044432
63.670 19.092035
63.675 18.699081
63.680 18.599594
63.685 18.995462
63.690 19.35824
63.695 19.397091
63.700 18.369421
63.705 18.18318
63.710 18.801687
63.715 18.642286
63.720 18.468014
63.725 18.77462
63.730 19.41321
63.735 20.032722
63.740 20.321363
63.745 20.010241
63.750 20.166382
63.755 19.847553
63.760 19.283575
63.765 18.725019
63.770 18.065498
63.775 17.679678
63.780 17.843016
63.785 17.793375
63.790 18.718281
63.795 18.829576
63.800 19.728348
63.805 20.508898
63.810 20.629881
63.815 20.543322
63.820 20.765491
63.825 20.184864
63.830 20.263216
63.835 19.525181
63.840 19.785511
63.845 19.662334
63.850 19.488911
63.855 19.043488
63.860 19.323624
63.865 19.304668
63.870 18.752974
63.875 17.546877
63.880 17.166765
63.885 17.579077
63.890 17.895243
63.895 17.276381
63.900 16.976973
63.905 16.947702
63.910 17.179726
63.915 17.811888
63.920 17.650288
63.925 17.860754
63.930 18.763338
63.935 19.41098
63.940 19.76083
63.945 19.960218
63.950 19.757835
63.955 19.403049
63.960 18.978296
63.965 18.630474
63.970 18.380974
63.975 18.185549
63.980 17.996342
63.985 17.993011
63.990 17.982534
63.995 17.948566
64.000 17.767828
64.005 18.383022
64.010 19.43741
64.015 20.286484
64.020 20.296631
64.025 20.503397
64.030 20.968216
64.035 20.946379
64.040 19.93668
64.045 19.154085
64.050 18.87587
64.055 18.362387
64.060 17.706987
64.065 17.561251
64.070 17.88909
64.075 18.404945
64.080 18.061914
64.085 17.130447
64.090 17.315275
64.095 17.80094
64.100 17.819429
64.105 17.85615
64.110 17.712906
64.115 17.731037
64.120 18.405813
64.125 19.30274
64.130 19.257603
64.135 18.58709
64.140 18.080778
64.145 17.994869
64.150 18.006096
64.155 17.798429
64.160 17.609734
64.165 17.679367
64.170 17.969666
64.175 18.221403
64.180 18.410072
64.185 18.718962
64.190 18.945278
64.195 18.984219
64.200 19.123457
64.205 19.128912
64.210 19.07049
64.215 19.271845
64.220 18.959291
64.225 18.882868
64.230 18.869814
64.235 18.314102
64.240 18.418749
64.245 18.855331
64.250 18.56452
64.255 18.502102
64.260 18.284941
64.265 18.342648
64.270 18.426344
64.275 18.254961
64.280 18.006962
64.285 18.042194
64.290 18.380888
64.295 18.794168
64.300 19.039902
64.305 20.263441
64.310 20.269281
64.315 20.160507
64.320 20.178745
64.325 20.541798
64.330 20.079399
64.335 20.211218
64.340 19.305126
64.345 19.267769
64.350 19.435225
64.355 19.884869
64.360 19.906761
64.365 20.106592
64.370 19.941637
64.375 20.085335
64.380 20.41053
64.385 20.248413
64.390 19.335236
64.395 18.960474
64.400 19.002432
64.405 19.035093
64.410 19.228052
64.415 19.082287
64.420 19.975231
64.425 20.212666
64.430 20.328228
64.435 20.429636
64.440 20.114769
64.445 20.196987
64.450 20.036495
64.455 19.521507
64.460 19.678537
64.465 19.389296
64.470 19.436853
64.475 19.214802
64.480 19.039488
64.485 19.381849
64.490 19.604759
64.495 19.878141
64.500 20.763256
64.505 20.595839
64.510 20.894804
64.515 21.398455
64.520 21.434759
64.525 21.510809
64.530 21.986965
64.535 21.765322
64.540 22.063786
64.545 22.095699
64.550 21.711611
64.555 21.752058
64.560 21.903379
64.565 21.667252
64.570 21.50136
64.575 21.582003
64.580 21.62714
64.585 21.283232
64.590 20.86776
64.595 20.65797
64.600 20.221113
64.605 19.538933
64.610 18.658186
64.615 18.132719
64.620 18.018276
64.625 17.497221
64.630 17.264334
64.635 17.314672
64.640 18.368107
64.645 18.926493
64.650 18.88488
64.655 19.337557
64.660 19.973711
64.665 19.924757
64.670 19.855255
64.675 19.05444
64.680 18.658892
64.685 18.795113
64.690 18.420143
64.695 18.641905
64.700 19.053305
64.705 19.48609
64.710 19.814463
64.715 20.407646
64.720 20.8934
64.725 21.360834
64.730 21.037388
64.735 20.814667
64.740 20.166435
64.745 20.291954
64.750 20.763313
64.755 20.235783
64.760 19.694216
64.765 19.859112
64.770 20.219318
64.775 20.179621
64.780 19.672977
64.785 19.415897
64.790 19.330952
64.795 19.361378
64.800 19.021534
64.805 18.755123
64.810 19.226572
64.815 19.727951
64.820 19.836578
64.825 20.136486
64.830 20.417488
64.835 20.328278
64.840 20.370762
64.845 20.18203
64.850 20.430691
64.855 20.400276
64.860 20.15419
64.865 19.930914
64.870 20.528675
64.875 20.459099
64.880 20.1222
64.885 20.195822
64.890 20.458132
64.895 20.783678
64.900 21.304382
64.905 20.581758
64.910 20.321653
64.915 20.479172
64.920 19.825426
64.925 19.770748
64.930 19.772501
64.935 19.495909
64.940 20.723696
64.945 21.009859
64.950 21.315248
64.955 21.59396
64.960 22.134792
64.965 21.984282
64.970 22.067936
64.975 22.02512
64.980 22.884291
64.985 23.126183
64.990 22.975122
64.995 22.468634
65.000 22.806013
65.005 22.225304
65.010 21.580935
65.015 20.983017
65.020 21.1583
65.025 22.262049
65.030 22.62163
65.035 22.212502
65.040 22.791422
65.045 23.395777
65.050 23.356955
65.055 23.082884
65.060 22.212641
65.065 21.80057
65.070 21.997534
65.075 21.957041
65.080 21.748636
65.085 21.692612
65.090 21.816179
65.095 22.054777
65.100 22.260061
65.105 22.841547
65.110 23.287636
65.115 23.36178
65.120 23.81292
65.125 24.430681
65.130 24.592569
65.135 24.998026
65.140 25.192051
65.145 25.021519
65.150 25.378834
65.155 25.436203
65.160 25.098345
65.165 25.296812
65.170 24.96435
65.175 24.77952
65.180 24.963655
65.185 24.626863
65.190 24.586081
65.195 24.411322
65.200 23.915371
65.205 23.971451
65.210 24.422646
65.215 24.411921
65.220 24.602262
65.225 24.17791
65.230 24.279844
65.235 24.136154
65.240 23.961634
65.245 23.105146
65.250 22.842417
65.255 22.962553
65.260 22.926422
65.265 21.819923
65.270 22.124233
65.275 22.34133
65.280 22.268826
65.285 22.729921
65.290 22.544077
65.295 23.393318
65.300 25.194542
65.305 25.5639
65.310 25.40486
65.315 25.61495
65.320 25.346769
65.325 25.223135
65.330 24.247545
65.335 23.160423
65.340 23.080471
65.345 23.021381
65.350 23.044237
65.355 22.902075
65.360 22.886547
65.365 23.109604
65.370 23.161083
65.375 23.516386
65.380 24.146156
65.385 24.821699
65.390 25.56534
65.395 26.294033
65.400 27.123611
65.405 27.00341
65.410 26.694073
65.415 26.32132
65.420 25.948805
65.425 25.787048
65.430 25.875494
65.435 26.273369
65.440 27.388252
65.445 27.418552
65.450 28.218571
65.455 28.036892
65.460 27.522219
65.465 26.843269
65.470 26.504053
65.475 25.873455
65.480 25.878664
65.485 25.961182
65.490 26.469467
65.495 26.516388
65.500 26.838299
65.505 27.020809
65.510 27.308649
65.515 27.202827
65.520 26.875965
65.525 26.909512
65.530 27.731997
65.535 27.976318
65.540 28.213995
65.545 28.823574
65.550 29.11043
65.555 28.735619
65.560 28.91876
65.565 28.787251
65.570 29.054028
65.575 29.612904
65.580 29.736647
65.585 29.929888
65.590 30.428232
65.595 30.726788
65.600 31.262239
65.605 31.080788
65.610 31.488066
65.615 31.967768
65.620 32.325073
65.625 32.672108
65.630 32.516418
65.635 32.042412
65.640 31.935432
65.645 31.480198
65.650 31.444969
65.655 30.877338
65.660 30.278595
65.665 31.194298
65.670 31.971188
65.675 32.441582
65.680 32.828598
65.685 33.778721
65.690 34.502422
65.695 35.049618
65.700 34.642544
65.705 34.637173
65.710 34.813053
65.715 35.09383
65.720 35.001499
65.725 35.828354
65.730 35.611771
65.735 35.174473
65.740 34.699142
65.745 34.173038
65.750 33.439804
65.755 33.578373
65.760 34.035049
65.765 35.064476
65.770 36.227165
65.775 37.503765
65.780 38.56216
65.785 39.070698
65.790 38.987419
65.795 38.333549
65.800 37.45092
65.805 37.339611
65.810 37.362072
65.815 37.245884
65.820 37.675301
65.825 37.337315
65.830 37.041843
65.835 36.643513
65.840 36.124435
65.845 35.749184
65.850 35.39658
65.855 36.207245
65.860 37.157024
65.865 37.778431
65.870 38.753094
65.875 39.149979
65.880 38.790699
65.885 38.570225
65.890 37.869106
65.895 38.000275
65.900 38.481281
65.905 38.667885
65.910 39.012001
65.915 39.864319
65.920 40.46349
65.925 40.422558
65.930 40.694134
65.935 40.709969
65.940 39.830444
65.945 39.098427
65.950 38.536549
65.955 38.35638
65.960 37.925011
65.965 37.631828
65.970 37.83564
65.975 38.402821
65.980 37.882172
65.985 37.865028
65.990 38.055424
65.995 39.178574
66.000 39.451881
66.005 39.297871
66.010 39.495533
66.015 39.897758
66.020 40.217449
66.025 40.804779
66.030 39.803158
66.035 39.062069
66.040 39.122154
66.045 39.511555
66.050 39.747135
66.055 40.323814
66.060 39.632797
66.065 39.851028
66.070 40.101196
66.075 39.321247
66.080 38.711861
66.085 38.873001
66.090 38.639156
66.095 38.238503
66.100 38.169388
66.105 38.236954
66.110 38.399651
66.115 38.925461
66.120 38.953865
66.125 38.977665
66.130 39.258804
66.135 38.528748
66.140 38.477108
66.145 38.863533
66.150 39.400768
66.155 39.668663
66.160 39.952766
66.165 40.412975
66.170 40.582027
66.175 41.023121
66.180 41.434261
66.185 40.532555
66.190 39.735649
66.195 39.271008
66.200 38.719658
66.205 39.14426
66.210 38.779449
66.215 38.436291
66.220 38.659355
66.225 38.36945
66.230 38.060608
66.235 37.56366
66.240 36.984127
66.245 36.682587
66.250 36.327866
66.255 36.071091
66.260 35.976784
66.265 36.311188
66.270 36.391602
66.275 36.191525
66.280 35.80793
66.285 35.429142
66.290 34.927628
66.295 34.366268
66.300 34.492329
66.305 34.595955
66.310 34.507351
66.315 34.874599
66.320 34.468704
66.325 34.822235
66.330 34.727825
66.335 34.00676
66.340 34.335575
66.345 34.295567
66.350 34.161858
66.355 34.713005
66.360 34.713352
66.365 34.966972
66.370 35.190052
66.375 34.375271
66.380 33.800522
66.385 32.721115
66.390 31.876757
66.395 31.62289
66.400 31.230494
66.405 31.121737
66.410 31.942617
66.415 32.592541
66.420 33.04776
66.425 33.349529
66.430 33.341785
66.435 32.293491
66.440 31.796654
66.445 30.822124
66.450 30.504478
66.455 30.215872
66.460 29.595228
66.465 29.546415
66.470 30.448452
66.475 29.636408
66.480 29.354282
66.485 29.201204
66.490 29.363897
66.495 29.536518
66.500 28.946629
66.505 28.907269
66.510 29.455393
66.515 27.964832
66.520 27.29475
66.525 27.321718
66.530 27.29269
66.535 27.793961
66.540 27.706617
66.545 27.130579
66.550 27.71821
66.555 28.181528
66.560 27.65881
66.565 27.803844
66.570 27.328625
66.575 27.417114
66.580 28.13286
66.585 28.062931
66.590 28.490379
66.595 28.482645
66.600 28.230324
66.605 28.50721
66.610 28.596443
66.615 28.639511
66.620 29.127676
66.625 27.956539
66.630 28.082296
66.635 28.177555
66.640 27.868063
66.645 27.103039
66.650 25.9965
66.655 25.216593
66.660 24.853363
66.665 24.432924
66.670 24.189814
66.675 23.596703
66.680 24.026922
66.685 24.289156
66.690 23.968496
66.695 24.622036
66.700 24.207787
66.705 23.710064
66.710 23.785564
66.715 23.493563
66.720 23.863321
66.725 24.388142
66.730 23.956585
66.735 23.863539
66.740 24.26923
66.745 24.619316
66.750 24.803812
66.755 24.770533
66.760 24.65859
66.765 24.932917
66.770 25.112745
66.775 24.965456
66.780 24.558786
66.785 24.26096
66.790 24.285151
66.795 23.797825
66.800 23.326189
66.805 23.282587
66.810 23.469589
66.815 23.94241
66.820 23.662579
66.825 23.584297
66.830 24.341116
66.835 24.141371
66.840 23.915123
66.845 23.620825
66.850 23.614258
66.855 23.530977
66.860 23.194464
66.865 23.723618
66.870 24.915083
66.875 25.262321
66.880 24.939846
66.885 24.930965
66.890 25.28977
66.895 24.747473
66.900 23.837624
66.905 23.100538
66.910 23.255852
66.915 23.912928
66.920 23.328642
66.925 23.313131
66.930 23.957516
66.935 24.979734
66.940 25.414324
66.945 25.090635
66.950 24.593426
66.955 24.964663
66.960 24.850613
66.965 24.860369
66.970 23.727379
66.975 23.510851
66.980 23.409527
66.985 23.03323
66.990 22.805935
66.995 22.489187
67.000 22.105646
67.005 22.743368
67.010 22.59787
67.015 22.9767
67.020 23.135605
67.025 23.288895
67.030 23.170876
67.035 23.024918
67.040 22.579409
67.045 22.609785
67.050 22.659428
67.055 22.782259
67.060 22.903791
67.065 23.262718
67.070 23.273954
67.075 23.492758
67.080 23.296625
67.085 22.961805
67.090 22.704569
67.095 22.78392
67.100 22.973112
67.105 22.634869
67.110 22.635956
67.115 22.636053
67.120 23.300138
67.125 23.629646
67.130 23.694405
67.135 23.554983
67.140 23.384073
67.145 23.653391
67.150 23.82937
67.155 23.378275
67.160 23.465088
67.165 23.85327
67.170 23.583742
67.175 24.477798
67.180 24.241098
67.185 24.387201
67.190 25.024155
67.195 24.492542
67.200 23.910507
67.205 24.15712
67.210 23.968538
67.215 24.009714
67.220 23.598721
67.225 23.228813
67.230 23.389767
67.235 23.122257
67.240 22.535954
67.245 21.335962
67.250 21.297201
67.255 21.483524
67.260 20.931528
67.265 21.231594
67.270 21.788273
67.275 22.418617
67.280 22.958424
67.285 22.665308
67.290 22.505087
67.295 22.49
67.300 22.287123
67.305 22.340414
67.310 22.427334
67.315 22.319933
67.320 22.178499
67.325 22.580824
67.330 22.258511
67.335 22.356281
67.340 22.106852
67.345 22.29994
67.350 22.401197
67.355 22.204092
67.360 21.796566
67.365 22.333651
67.370 22.019775
67.375 21.901983
67.380 21.338539
67.385 21.395321
67.390 20.899429
67.395 20.918947
67.400 20.956028
67.405 20.97711
67.410 20.947395
67.415 21.232971
67.420 21.485601
67.425 21.4515
67.430 20.937496
67.435 20.930079
67.440 21.077997
67.445 21.112778
67.450 20.725245
67.455 21.083233
67.460 21.734236
67.465 22.212122
67.470 21.696404
67.475 21.61129
67.480 21.362429
67.485 21.510292
67.490 21.44071
67.495 22.024069
67.500 22.486898
67.505 22.493822
67.510 22.166876
67.515 22.14616
67.520 21.913042
67.525 21.305155
67.530 20.569845
67.535 20.487038
67.540 20.840731
67.545 21.083454
67.550 21.461046
67.555 21.930687
67.560 22.015129
67.565 22.492916
67.570 22.621595
67.575 22.624058
67.580 22.836016
67.585 22.710499
67.590 22.478321
67.595 22.666845
67.600 22.312115
67.605 21.939518
67.610 21.696487
67.615 21.627468
67.620 21.709913
67.625 21.889366
67.630 21.702084
67.635 21.457724
67.640 21.883745
67.645 22.196512
67.650 22.358643
67.655 22.70837
67.660 22.397335
67.665 22.294764
67.670 21.931602
67.675 21.665442
67.680 21.698305
67.685 21.494278
67.690 21.827209
67.695 22.35582
67.700 22.333071
67.705 22.234541
67.710 22.035189
67.715 21.856644
67.720 21.390856
67.725 20.743097
67.730 20.67141
67.735 20.826195
67.740 20.797337
67.745 20.516096
67.750 20.396358
67.755 20.532223
67.760 19.964926
67.765 19.324566
67.770 20.112494
67.775 20.376511
67.780 20.860785
67.785 20.472063
67.790 20.588154
67.795 20.388369
67.800 21.309898
67.805 21.158381
67.810 21.156136
67.815 20.903055
67.820 21.142284
67.825 20.974308
67.830 21.93684
67.835 21.127169
67.840 19.943148
67.845 19.634146
67.850 19.675699
67.855 19.780855
67.860 19.77076
67.865 19.418364
67.870 19.98354
67.875 21.282707
67.880 21.226261
67.885 20.76992
67.890 21.191164
67.895 21.46545
67.900 22.110622
67.905 21.899279
67.910 22.060371
67.915 22.466381
67.920 22.776552
67.925 22.122255
67.930 21.950245
67.935 21.90612
67.940 22.323809
67.945 21.760584
67.950 21.671776
67.955 21.660421
67.960 21.710424
67.965 21.659426
67.970 21.333567
67.975 21.200287
67.980 21.78783
67.985 21.887701
67.990 21.962877
67.995 21.731466
68.000 20.907629
68.005 20.209427
68.010 20.17415
68.015 19.961185
68.020 20.192106
68.025 19.898745
68.030 20.307333
68.035 20.882772
68.040 21.205149
68.045 21.329422
68.050 21.278376
68.055 21.264915
68.060 22.001234
68.065 22.198719
68.070 22.663805
68.075 22.667
68.080 22.572443
68.085 22.691784
68.090 22.367155
68.095 21.87002
68.100 21.80335
68.105 22.387283
68.110 22.593466
68.115 23.056955
68.120 22.987513
68.125 23.289625
68.130 23.179527
68.135 23.375803
68.140 22.323196
68.145 21.710669
68.150 20.616716
68.155 20.283121
68.160 20.132088
68.165 20.544046
68.170 20.248964
68.175 20.416758
68.180 20.488214
68.185 20.709644
68.190 21.554522
68.195 21.622425
68.200 21.73884
68.205 22.219061
68.210 22.979414
68.215 23.50053
68.220 23.717033
68.225 23.028498
68.230 22.782301
68.235 22.510181
68.240 22.569355
68.245 22.062269
68.250 21.623377
68.255 21.608782
68.260 21.793818
68.265 21.809265
68.270 21.673779
68.275 21.007244
68.280 20.568758
68.285 20.957325
68.290 20.81583
68.295 20.57748
68.300 20.810499
68.305 20.397774
68.310 20.357927
68.315 20.672094
68.320 20.803152
68.325 21.057734
68.330 21.145685
68.335 21.194986
68.340 21.123449
68.345 20.842047
68.350 21.052856
68.355 20.54747
68.360 20.195265
68.365 20.489502
68.370 20.321373
68.375 20.755363
68.380 20.851986
68.385 20.980148
68.390 21.365808
68.395 21.795012
68.400 21.132572
68.405 21.27368
68.410 21.556431
68.415 21.788673
68.420 21.492798
68.425 21.135176
68.430 21.449533
68.435 21.596004
68.440 21.351351
68.445 20.759054
68.450 20.923609
68.455 21.316183
68.460 21.832016
68.465 22.046555
68.470 22.760509
68.475 23.551455
68.480 23.923426
68.485 23.182329
68.490 23.279989
68.495 22.743744
68.500 22.146301
68.505 21.540689
68.510 20.607113
68.515 20.347092
68.520 20.207266
68.525 19.80069
68.530 19.843208
68.535 19.777533
68.540 20.514299
68.545 20.577511
68.550 20.80385
68.555 21.1007
68.560 21.161512
68.565 21.00469
68.570 20.863003
68.575 20.25247
68.580 20.304964
68.585 20.666889
68.590 21.163961
68.595 21.156054
68.600 21.899736
68.605 22.139786
68.610 22.427977
68.615 22.256319
68.620 22.312311
68.625 21.873505
68.630 21.965717
68.635 22.475939
68.640 22.671429
68.645 22.554777
68.650 22.152939
68.655 21.655149
68.660 22.069139
68.665 21.976946
68.670 21.981716
68.675 22.285828
68.680 23.165855
68.685 24.006207
68.690 24.688124
68.695 24.819841
68.700 24.099007
68.705 23.78525
68.710 23.836363
68.715 23.661293
68.720 23.285473
68.725 23.146816
68.730 22.802702
68.735 23.226719
68.740 22.851011
68.745 22.187532
68.750 21.727512
68.755 21.397751
68.760 21.134098
68.765 21.80868
68.770 21.748514
68.775 21.645876
68.780 21.525057
68.785 21.651987
68.790 21.882917
68.795 21.86062
68.800 21.263454
68.805 21.32851
68.810 21.266685
68.815 21.131542
68.820 20.966339
68.825 20.836443
68.830 21.132557
68.835 21.655954
68.840 21.419918
68.845 21.524908
68.850 22.494345
68.855 23.091545
68.860 23.435833
68.865 22.940132
68.870 22.64402
68.875 22.651028
68.880 22.769993
68.885 22.461929
68.890 22.270714
68.895 22.062262
68.900 22.006557
68.905 21.892584
68.910 21.998289
68.915 22.45779
68.920 22.482607
68.925 22.503233
68.930 22.794552
68.935 23.184399
68.940 23.576427
68.945 23.279657
68.950 22.694559
68.955 22.412437
68.960 21.927109
68.965 22.126974
68.970 22.2463
68.975 22.939001
68.980 23.399578
68.985 24.503305
68.990 25.178705
68.995 25.76672
69.000 26.06069
69.005 26.180235
69.010 25.937664
69.015 25.553068
69.020 24.630037
69.025 25.174255
69.030 25.556913
69.035 25.515402
69.040 25.493279
69.045 25.72979
69.050 26.406769
69.055 27.454838
69.060 27.438835
69.065 27.207504
69.070 27.276871
69.075 27.541151
69.080 27.806824
69.085 27.962774
69.090 27.634533
69.095 27.32003
69.100 27.49671
69.105 28.323277
69.110 28.162273
69.115 27.438496
69.120 27.542353
69.125 27.130146
69.130 26.951097
69.135 26.704754
69.140 26.281429
69.145 27.449387
69.150 27.125675
69.155 26.830322
69.160 27.034632
69.165 27.316708
69.170 27.874439
69.175 27.971371
69.180 26.776953
69.185 27.392262
69.190 27.086937
69.195 27.178627
69.200 26.536522
69.205 25.781689
69.210 25.50705
69.215 26.061247
69.220 26.429218
69.225 26.508923
69.230 26.016718
69.235 26.375029
69.240 26.209702
69.245 26.327995
69.250 26.348099
69.255 26.663017
69.260 27.08036
69.265 27.635319
69.270 28.534777
69.275 28.605787
69.280 28.088741
69.285 27.980423
69.290 27.790356
69.295 27.170607
69.300 26.672962
69.305 26.082148
69.310 26.497274
69.315 26.265802
69.320 25.890921
69.325 26.077089
69.330 27.086767
69.335 27.773079
69.340 27.738255
69.345 28.494122
69.350 29.296894
69.355 29.417589
69.360 30.186178
69.365 30.269377
69.370 30.614365
69.375 30.607765
69.380 30.114374
69.385 30.416849
69.390 30.286268
69.395 29.088284
69.400 28.62154
69.405 28.254419
69.410 28.632273
69.415 29.279535
69.420 28.918388
69.425 29.589724
69.430 29.916862
69.435 29.866989
69.440 30.042376
69.445 29.984941
69.450 30.415462
69.455 30.986349
69.460 30.390665
69.465 30.744099
69.470 30.945934
69.475 31.08391
69.480 30.506214
69.485 30.323851
69.490 30.097748
69.495 30.433756
69.500 30.393488
69.505 30.023514
69.510 29.678888
69.515 29.538996
69.520 29.371294
69.525 28.623354
69.530 28.324186
69.535 27.922253
69.540 27.543346
69.545 27.185928
69.550 26.464066
69.555 26.464558
69.560 26.772001
69.565 27.476807
69.570 28.420315
69.575 29.260284
69.580 30.044432
69.585 31.162176
69.590 30.839935
69.595 30.966423
69.600 30.154512
69.605 30.193029
69.610 30.229183
69.615 29.748613
69.620 28.662283
69.625 28.452644
69.630 28.59218
69.635 28.864317
69.640 28.577005
69.645 28.248142
69.650 28.360746
69.655 28.906597
69.660 28.786633
69.665 28.866732
69.670 28.761175
69.675 29.38043
69.680 29.350349
69.685 29.419937
69.690 29.104124
69.695 28.874311
69.700 29.002102
69.705 28.986168
69.710 28.828255
69.715 28.437563
69.720 28.01189
69.725 28.610548
69.730 29.08066
69.735 29.058475
69.740 28.84981
69.745 28.094404
69.750 28.364527
69.755 28.982351
69.760 28.972334
69.765 28.266018
69.770 27.692163
69.775 27.307102
69.780 27.548506
69.785 27.77323
69.790 26.908899
69.795 25.840731
69.800 25.661352
69.805 25.398642
69.810 25.605148
69.815 26.152712
69.820 26.354002
69.825 27.28581
69.830 28.489248
69.835 28.782356
69.840 28.562284
69.845 28.113829
69.850 27.413254
69.855 26.678085
69.860 25.492176
69.865 24.846523
69.870 24.81196
69.875 24.991425
69.880 25.328159
69.885 24.995478
69.890 25.673521
69.895 25.645998
69.900 25.357237
69.905 25.496855
69.910 25.279217
69.915 25.442156
69.920 25.701487
69.925 25.368538
69.930 25.831663
69.935 24.987734
69.940 24.552172
69.945 24.522184
69.950 24.160984
69.955 23.415268
69.960 23.571114
69.965 23.008986
69.970 23.300203
69.975 23.179461
69.980 22.189537
69.985 22.339121
69.990 22.690844
69.995 22.278679
70.000 22.28952
70.005 22.281267
70.010 22.466087
70.015 23.241192
70.020 23.127224
70.025 22.93008
70.030 22.618876
70.035 22.485283
70.040 22.06921
70.045 21.707132
70.050 21.199455
70.055 21.218786
70.060 20.934149
70.065 21.446695
70.070 21.870674
70.075 22.00532
70.080 21.645782
70.085 21.134876
70.090 21.66148
70.095 21.778255
70.100 21.731173
70.105 21.333406
70.110 21.163025
70.115 21.824551
70.120 21.970493
70.125 21.981455
70.130 22.144899
70.135 21.639072
70.140 22.527342
70.145 22.911146
70.150 22.811577
70.155 22.338902
70.160 22.263391
70.165 22.256607
70.170 22.046227
70.175 21.040091
70.180 20.512226
70.185 19.645447
70.190 19.735292
70.195 19.815638
70.200 19.22007
70.205 18.930738
70.210 19.360998
70.215 18.794989
70.220 19.460003
70.225 19.429058
70.230 18.703434
70.235 19.035263
70.240 19.510256
70.245 20.264647
70.250 21.563374
70.255 21.549002
70.260 21.208176
70.265 21.358644
70.270 21.596481
70.275 21.039503
70.280 20.363573
70.285 20.414236
70.290 20.338633
70.295 20.392647
70.300 20.415621
70.305 20.380775
70.310 20.903532
70.315 21.314045
70.320 21.076504
70.325 20.78775
70.330 20.663027
70.335 20.34392
70.340 19.982899
70.345 19.393164
70.350 18.66869
70.355 19.013662
70.360 19.409307
70.365 19.99823
70.370 20.280455
70.375 20.531656
70.380 20.815744
70.385 20.87611
70.390 21.498886
70.395 22.045271
70.400 22.403675
70.405 22.481007
70.410 22.235609
70.415 21.774384
70.420 21.08149
70.425 20.094522
70.430 19.472736
70.435 18.403223
70.440 18.421852
70.445 19.012838
70.450 19.502321
70.455 19.968304
70.460 20.423979
70.465 20.906776
70.470 21.356289
70.475 21.25795
70.480 21.037079
70.485 21.273132
70.490 21.496016
70.495 21.406693
70.500 21.291702
70.505 21.239765
70.510 21.348291
70.515 20.934946
70.520 20.7794
70.525 20.178802
70.530 19.563292
70.535 19.587561
70.540 19.783527
70.545 19.38377
70.550 19.422127
70.555 18.594324
70.560 18.880789
70.565 19.467779
70.570 19.433895
70.575 18.847178
70.580 18.783859
70.585 19.118065
70.590 19.608385
70.595 19.450583
70.600 19.273308
70.605 19.472963
70.610 20.092104
70.615 20.281536
70.620 20.398808
70.625 20.19128
70.630 19.915359
70.635 19.51041
70.640 19.178734
70.645 18.855085
70.650 18.983452
70.655 18.909054
70.660 19.253708
70.665 19.561359
70.670 19.773821
70.675 20.323608
70.680 20.384865
70.685 19.911016
70.690 20.053623
70.695 20.358225
70.700 20.26672
70.705 20.144993
70.710 19.74242
70.715 20.107199
70.720 20.768532
70.725 20.369398
70.730 20.135523
70.735 19.999601
70.740 20.05834
70.745 19.673634
70.750 19.300066
70.755 19.474073
70.760 19.220932
70.765 19.662966
70.770 19.728331
70.775 20.21822
70.780 20.400961
70.785 19.944893
70.790 20.175777
70.795 20.436371
70.800 20.333796
70.805 19.945236
70.810 19.743021
70.815 19.951071
70.820 20.921629
70.825 20.827061
70.830 20.951586
70.835 21.183167
70.840 21.449089
70.845 21.725906
70.850 21.74044
70.855 21.247564
70.860 20.791733
70.865 20.821402
70.870 21.223942
70.875 20.772667
70.880 20.669905
70.885 20.094606
70.890 20.432508
70.895 20.85445
70.900 20.581907
70.905 20.077337
70.910 20.633715
70.915 20.823399
70.920 20.961557
70.925 20.917259
70.930 20.305698
70.935 20.342669
70.940 20.453224
70.945 20.125252
70.950 19.880079
70.955 19.9998
70.960 20.050409
70.965 20.375341
70.970 20.659948
70.975 20.966688
70.980 21.090954
70.985 21.043711
70.990 20.718544
70.995 20.31057
71.000 20.112722
71.005 20.184374
71.010 20.653856
71.015 21.230909
71.020 21.208187
71.025 21.489815
71.030 20.993525
71.035 20.867067
71.040 20.479902
71.045 19.346369
71.050 19.096306
71.055 18.891523
71.060 19.107044
71.065 19.401173
71.070 18.883831
71.075 18.450676
71.080 18.523962
71.085 18.639566
71.090 18.546135
71.095 17.878403
71.100 18.390005
71.105 18.907619
71.110 18.993654
71.115 19.353497
71.120 19.426226
71.125 20.152111
71.130 20.099327
71.135 19.88792
71.140 19.704596
71.145 19.898115
71.150 18.973711
71.155 18.635971
71.160 18.124949
71.165 18.310366
71.170 18.507757
71.175 18.781939
71.180 18.837841
71.185 19.025465
71.190 18.638231
71.195 18.894857
71.200 18.524235
71.205 18.095778
71.210 18.365906
71.215 18.025446
71.220 17.993658
71.225 18.686035
71.230 19.018011
71.235 18.837164
71.240 18.56007
71.245 18.143681
71.250 18.33235
71.255 18.268791
71.260 18.070894
71.265 18.356752
71.270 18.929398
71.275 19.159075
71.280 19.35848
71.285 19.767052
71.290 19.684906
71.295 19.462101
71.300 19.59174
71.305 20.03583
71.310 20.239891
71.315 20.281099
71.320 19.965187
71.325 19.830639
71.330 19.660648
71.335 19.410257
71.340 19.378525
71.345 19.220371
71.350 19.290195
71.355 19.734457
71.360 19.74754
71.365 19.974367
71.370 19.55155
71.375 19.401566
71.380 19.424646
71.385 19.731457
71.390 19.689535
71.395 19.69018
71.400 19.403698
71.405 19.243456
71.410 19.434925
71.415 19.957569
71.420 20.380352
71.425 20.905682
71.430 20.963623
71.435 21.174864
71.440 20.983795
71.445 20.314625
71.450 19.74819
71.455 19.331703
71.460 19.123383
71.465 19.249685
71.470 19.698792
71.475 20.203564
71.480 20.298449
71.485 19.979548
71.490 19.332304
71.495 19.259968
71.500 19.038332
71.505 18.730234
71.510 18.282719
71.515 18.048977
71.520 18.814072
71.525 18.984571
71.530 19.237932
71.535 19.498779
71.540 19.384378
71.545 19.609179
71.550 20.114023
71.555 19.469736
71.560 19.129538
71.565 18.753952
71.570 18.687889
71.575 18.675291
71.580 18.070356
71.585 17.407246
71.590 17.350798
71.595 17.720093
71.600 18.070431
71.605 18.106489
71.610 18.314276
71.615 18.925982
71.620 19.184795
71.625 19.723251
71.630 19.404598
71.635 19.772932
71.640 19.712217
71.645 19.668997
71.650 19.138517
71.655 19.170956
71.660 19.327276
71.665 19.494589
71.670 19.296602
71.675 19.87369
71.680 20.153368
71.685 20.707676
71.690 20.598534
71.695 20.074785
71.700 19.977247
71.705 20.065212
71.710 19.901123
71.715 20.059965
71.720 20.329216
71.725 20.115349
71.730 20.065153
71.735 20.034729
71.740 19.927013
71.745 20.08033
71.750 20.23543
71.755 20.12443
71.760 20.161535
71.765 20.308643
71.770 19.828079
71.775 19.843443
71.780 19.644823
71.785 19.299494
71.790 18.981594
71.795 18.756802
71.800 18.780334
71.805 19.25013
71.810 19.218441
71.815 19.319437
71.820 19.103767
71.825 18.772398
71.830 18.977873
71.835 18.962828
71.840 18.566179
71.845 18.308094
71.850 18.031898
71.855 18.812075
71.860 19.229645
71.865 19.195009
71.870 19.307756
71.875 19.481939
71.880 19.433338
71.885 19.832964
71.890 19.608988
71.895 19.759686
71.900 19.833755
71.905 19.920683
71.910 20.126163
71.915 19.951908
71.920 19.825651
71.925 19.693995
71.930 19.557051
71.935 19.243847
71.940 18.913319
71.945 18.597183
71.950 18.590307
71.955 18.663019
71.960 18.767679
71.965 18.830107
71.970 19.035271
71.975 19.052446
71.980 18.861975
71.985 18.883753
71.990 19.130951
71.995 18.929781
72.000 18.882465
72.005 18.9891
72.010 18.89892
72.015 19.111
72.020 19.163063
72.025 18.458845
72.030 18.500982
72.035 18.478369
72.040 18.304218
72.045 18.86438
72.050 18.511564
72.055 18.292383
72.060 18.435499
72.065 18.37471
72.070 17.975418
72.075 17.607113
72.080 17.075811
72.085 17.405052
72.090 17.277596
72.095 16.872637
72.100 16.885235
72.105 17.084963
72.110 17.292503
72.115 17.35561
72.120 17.311909
72.125 17.290155
72.130 17.625027
72.135 17.743471
72.140 18.265242
72.145 19.216614
72.150 19.664045
72.155 19.521055
72.160 19.931284
72.165 20.360664
72.170 20.594194
72.175 21.06245
72.180 20.316317
72.185 20.338312
72.190 20.400654
72.195 20.174335
72.200 19.642923
72.205 19.376829
72.210 18.885754
72.215 18.655647
72.220 18.907679
72.225 19.289284
72.230 19.711309
72.235 19.15444
72.240 19.389069
72.245 20.272467
72.250 20.624235
72.255 19.94174
72.260 19.342743
72.265 19.289692
72.270 19.888655
72.275 19.394249
72.280 18.187998
72.285 17.929544
72.290 17.887707
72.295 17.883266
72.300 17.766832
72.305 17.143585
72.310 16.923548
72.315 17.202721
72.320 17.44558
72.325 17.856371
72.330 18.413172
72.335 18.334442
72.340 18.516083
72.345 18.945108
72.350 18.903093
72.355 18.359217
72.360 17.723526
72.365 17.447544
72.370 18.066751
72.375 18.180948
72.380 18.238867
72.385 18.50605
72.390 19.199644
72.395 19.26763
72.400 18.813963
72.405 18.601957
72.410 18.382689
72.415 18.01145
72.420 17.437504
72.425 16.660202
72.430 16.858538
72.435 16.506006
72.440 15.953431
72.445 15.61849
72.450 15.676446
72.455 16.382172
72.460 16.201038
72.465 16.632517
72.470 17.399324
72.475 17.969936
72.480 18.355801
72.485 18.346239
72.490 18.772694
72.495 19.132605
72.500 18.826338
72.505 19.055445
72.510 18.690008
72.515 18.45322
72.520 18.358988
72.525 18.884365
72.530 19.249998
72.535 19.325863
72.540 19.503178
72.545 19.863592
72.550 20.370754
72.555 20.657482
72.560 20.028725
72.565 19.831049
72.570 19.608765
72.575 19.753069
72.580 19.652031
72.585 19.532393
72.590 19.536535
72.595 19.581606
72.600 19.138462
72.605 19.084297
72.610 18.684961
72.615 19.091299
72.620 18.88772
72.625 19.24193
72.630 19.394194
72.635 19.26046
72.640 19.048761
72.645 18.788256
72.650 18.071064
72.655 18.436014
72.660 18.082594
72.665 18.295137
72.670 18.475838
72.675 18.542685
72.680 18.474606
72.685 18.327337
72.690 18.0082
72.695 18.059967
72.700 17.882666
72.705 17.616758
72.710 17.489912
72.715 17.647877
72.720 17.449438
72.725 16.814465
72.730 16.730408
72.735 17.105434
72.740 17.12396
72.745 17.330206
72.750 17.348396
72.755 18.050165
72.760 18.329882
72.765 18.582888
72.770 18.937967
72.775 18.782198
72.780 18.844339
72.785 18.689714
72.790 18.746731
72.795 19.187078
72.800 19.205694
72.805 18.694765
72.810 18.664083
72.815 18.815039
72.820 19.02614
72.825 18.101568
72.830 17.468374
72.835 17.44886
72.840 18.092041
72.845 18.005133
72.850 17.496515
72.855 17.011675
72.860 17.327616
72.865 16.742556
72.870 16.622532
72.875 16.735741
72.880 16.853065
72.885 16.654566
72.890 16.533258
72.895 17.327036
72.900 17.443808
72.905 17.498161
72.910 17.25773
72.915 16.614977
72.920 17.01856
72.925 16.881533
72.930 16.710926
72.935 16.371523
72.940 16.03854
72.945 16.68585
72.950 16.995131
72.955 16.832781
72.960 16.435223
72.965 15.864947
72.970 15.769134
72.975 15.57234
72.980 15.684622
72.985 16.318699
72.990 16.753899
72.995 17.210777
73.000 17.866371
