!@!!GADDS PLOTSO FILE: Chi integration type
!@!!Title/SampleName: map-97
!@!!Comment: ?
!@!!User: Bruker Instrument Administrator
!@!!Site: University of Illinois Chicago
!@!!Frame: map-97_01_000.gfrm
!@!!Wavelengths    1.54184   1.54056   1.54439
!@!!Frame angles: 2Theta: 63.000 Omega: 50.000 Phi: 0.000 Chi: 90.000
!@!!Integration range: 2Theta: 53.000 to 73.000  Gamma: -105.000 to -75.000
!@!!Integration method: bin normalized
!@!N
!@!SS
!@!M
!@!L 0.0 0.0 0.0 0.0
!@!XDegrees
!@!YCounts
53.000 8.862848
53.005 8.9778
53.010 9.413749
53.015 9.851507
53.020 9.978292
53.025 9.761285
53.030 10.167528
53.035 10.818251
53.040 10.607572
53.045 10.074903
53.050 10.107138
53.055 10.222461
53.060 10.248912
53.065 9.974563
53.070 9.675888
53.075 9.963815
53.080 10.388306
53.085 10.23122
53.090 9.718457
53.095 9.73244
53.100 9.81309
53.105 9.958595
53.110 9.708168
53.115 9.781777
53.120 9.419209
53.125 9.311552
53.130 9.28008
53.135 8.976333
53.140 8.588401
53.145 8.581044
53.150 9.115251
53.155 9.982193
53.160 10.627649
53.165 10.928805
53.170 10.945721
53.175 10.810816
53.180 10.481841
53.185 9.976793
53.190 9.586202
53.195 9.191879
53.200 8.9875
53.205 9.302351
53.210 9.408305
53.215 9.510947
53.220 9.581141
53.225 9.448925
53.230 9.827507
53.235 10.308717
53.240 10.802521
53.245 11.048011
53.250 11.127146
53.255 11.192036
53.260 11.173441
53.265 10.859848
53.270 10.351929
53.275 10.478317
53.280 10.46726
53.285 10.637243
53.290 10.215112
53.295 9.93237
53.300 10.028399
53.305 9.863062
53.310 9.640945
53.315 9.245405
53.320 9.213924
53.325 9.26386
53.330 9.510773
53.335 9.881088
53.340 10.346116
53.345 10.588788
53.350 10.502689
53.355 10.321051
53.360 10.61011
53.365 10.576718
53.370 10.196557
53.375 10.01067
53.380 9.720038
53.385 10.334022
53.390 10.566129
53.395 10.299688
53.400 10.182097
53.405 10.476789
53.410 11.007177
53.415 10.909953
53.420 10.612444
53.425 10.669978
53.430 10.817615
53.435 10.621016
53.440 10.328254
53.445 10.073099
53.450 10.507082
53.455 10.343497
53.460 10.886617
53.465 11.090948
53.470 11.210954
53.475 10.901779
53.480 10.63921
53.485 10.368394
53.490 10.183483
53.495 9.424897
53.500 9.44963
53.505 9.360625
53.510 9.464658
53.515 9.447599
53.520 9.855083
53.525 10.357924
53.530 10.920477
53.535 11.163131
53.540 11.65202
53.545 11.957256
53.550 12.231359
53.555 11.796123
53.560 11.758698
53.565 11.995685
53.570 11.429306
53.575 11.206042
53.580 11.485202
53.585 11.160751
53.590 11.453049
53.595 10.877206
53.600 10.945752
53.605 11.662438
53.610 11.541169
53.615 11.334148
53.620 11.555005
53.625 11.733787
53.630 11.808736
53.635 11.61449
53.640 11.415076
53.645 11.469976
53.650 11.445525
53.655 11.346457
53.660 11.395048
53.665 11.585768
53.670 11.464623
53.675 11.088955
53.680 11.206235
53.685 10.8144
53.690 10.650023
53.695 10.120956
53.700 9.777383
53.705 9.770459
53.710 10.009491
53.715 9.75719
53.720 10.398983
53.725 10.691032
53.730 10.632879
53.735 10.869369
53.740 11.021095
53.745 10.794736
53.750 10.626932
53.755 10.024856
53.760 10.047635
53.765 10.193979
53.770 10.131313
53.775 9.7293
53.780 10.151937
53.785 11.079596
53.790 11.78428
53.795 11.465591
53.800 11.469936
53.805 11.594954
53.810 11.920056
53.815 11.680609
53.820 11.158704
53.825 10.840318
53.830 10.962806
53.835 10.649957
53.840 10.283669
53.845 10.136316
53.850 9.807296
53.855 9.434711
53.860 9.089686
53.865 9.693534
53.870 10.19317
53.875 10.227848
53.880 10.353339
53.885 10.719684
53.890 11.129425
53.895 11.532875
53.900 11.344196
53.905 11.424621
53.910 11.468173
53.915 11.605483
53.920 11.412699
53.925 11.148307
53.930 10.604113
53.935 10.341188
53.940 10.560496
53.945 10.406492
53.950 10.498349
53.955 10.940953
53.960 11.351736
53.965 11.716434
53.970 11.628385
53.975 11.743851
53.980 11.965629
53.985 11.742049
53.990 11.556702
53.995 11.782869
54.000 12.008167
54.005 12.225345
54.010 12.04774
54.015 12.165012
54.020 12.014875
54.025 12.209929
54.030 11.745167
54.035 11.80505
54.040 11.634854
54.045 11.761215
54.050 12.060239
54.055 12.142219
54.060 11.512867
54.065 11.664419
54.070 11.476608
54.075 11.540709
54.080 12.018929
54.085 11.623119
54.090 11.382196
54.095 11.4161
54.100 11.151583
54.105 11.304922
54.110 11.043194
54.115 10.378701
54.120 10.693261
54.125 11.24853
54.130 11.986597
54.135 12.11035
54.140 12.169644
54.145 12.411594
54.150 12.086752
54.155 12.085428
54.160 11.746108
54.165 11.066342
54.170 10.588091
54.175 10.37506
54.180 10.573015
54.185 10.644172
54.190 10.697581
54.195 11.096264
54.200 11.415044
54.205 11.539514
54.210 11.13216
54.215 11.071404
54.220 11.076489
54.225 10.983699
54.230 10.878718
54.235 11.620573
54.240 12.219477
54.245 12.590289
54.250 13.014023
54.255 13.809794
54.260 13.706225
54.265 13.436965
54.270 12.952343
54.275 12.669527
54.280 12.368505
54.285 12.016054
54.290 11.645777
54.295 11.823043
54.300 11.709244
54.305 12.267807
54.310 12.313258
54.315 12.124125
54.320 11.869627
54.325 11.760286
54.330 11.486689
54.335 11.604563
54.340 11.088762
54.345 11.503478
54.350 11.703357
54.355 11.802958
54.360 11.453673
54.365 11.179696
54.370 11.206594
54.375 11.150685
54.380 10.997941
54.385 10.562818
54.390 10.596911
54.395 11.042806
54.400 11.337276
54.405 11.547771
54.410 11.436669
54.415 11.366284
54.420 11.481771
54.425 11.404736
54.430 11.455509
54.435 11.025204
54.440 10.649335
54.445 10.995018
54.450 11.373167
54.455 11.535941
54.460 11.207138
54.465 10.993702
54.470 11.319448
54.475 11.78643
54.480 11.328415
54.485 11.070564
54.490 11.376027
54.495 11.555767
54.500 11.549557
54.505 11.449506
54.510 11.238809
54.515 11.387908
54.520 11.247359
54.525 10.853942
54.530 10.914075
54.535 10.709637
54.540 9.954878
54.545 9.547522
54.550 9.780105
54.555 9.831229
54.560 9.952237
54.565 10.231481
54.570 10.842846
54.575 11.447256
54.580 11.470472
54.585 11.153818
54.590 11.3086
54.595 11.623528
54.600 11.496241
54.605 11.194679
54.610 11.513102
54.615 11.90415
54.620 12.132236
54.625 11.914948
54.630 11.624501
54.635 11.773927
54.640 11.951254
54.645 12.232009
54.650 12.095691
54.655 12.076326
54.660 12.21033
54.665 12.418777
54.670 11.880735
54.675 11.424086
54.680 11.068288
54.685 11.037869
54.690 10.764633
54.695 10.278797
54.700 10.044135
54.705 10.689548
54.710 10.871428
54.715 10.527075
54.720 10.467768
54.725 11.000196
54.730 11.459465
54.735 11.466033
54.740 11.642377
54.745 11.918006
54.750 12.297671
54.755 12.45401
54.760 12.439769
54.765 12.332646
54.770 12.850879
54.775 12.222007
54.780 11.694695
54.785 11.675683
54.790 11.570942
54.795 11.441351
54.800 11.280256
54.805 11.055386
54.810 11.864573
54.815 12.467503
54.820 12.413795
54.825 12.805791
54.830 12.713535
54.835 12.141239
54.840 12.102908
54.845 11.612296
54.850 11.044525
54.855 10.788465
54.860 10.414664
54.865 10.792277
54.870 10.907667
54.875 11.006259
54.880 11.617699
54.885 12.274485
54.890 12.714555
54.895 13.068429
54.900 13.064453
54.905 12.863914
54.910 12.581679
54.915 12.503009
54.920 12.454949
54.925 11.742447
54.930 11.648616
54.935 12.092913
54.940 12.285305
54.945 12.08534
54.950 11.766686
54.955 11.615651
54.960 11.875637
54.965 11.648173
54.970 11.202083
54.975 11.405377
54.980 11.69528
54.985 11.54982
54.990 11.804811
54.995 11.907796
55.000 11.872249
55.005 12.6226
55.010 12.584266
55.015 12.249681
55.020 12.183987
55.025 12.408838
55.030 12.368116
55.035 12.278976
55.040 11.985398
55.045 12.076912
55.050 12.257574
55.055 12.375609
55.060 12.268085
55.065 12.056113
55.070 11.72237
55.075 11.851443
55.080 12.462307
55.085 12.455505
55.090 11.969122
55.095 11.776848
55.100 12.153429
55.105 12.825323
55.110 12.440883
55.115 12.246624
55.120 12.439056
55.125 13.191075
55.130 13.329337
55.135 13.104944
55.140 12.849088
55.145 12.63469
55.150 12.661446
55.155 12.556973
55.160 12.412237
55.165 12.431494
55.170 12.28901
55.175 12.127843
55.180 12.06085
55.185 11.859747
55.190 12.129324
55.195 11.686466
55.200 11.441579
55.205 11.367515
55.210 11.152002
55.215 10.777307
55.220 11.02908
55.225 10.972452
55.230 11.019482
55.235 10.859468
55.240 11.122296
55.245 11.533185
55.250 11.997145
55.255 11.66392
55.260 11.289528
55.265 11.4412
55.270 11.285322
55.275 10.641082
55.280 10.549109
55.285 10.069317
55.290 10.069799
55.295 10.658826
55.300 10.681433
55.305 11.021948
55.310 11.984357
55.315 12.440978
55.320 12.829428
55.325 13.038151
55.330 13.086219
55.335 13.549939
55.340 13.301829
55.345 12.277685
55.350 11.866165
55.355 11.835279
55.360 11.344022
55.365 10.753798
55.370 10.77289
55.375 11.348619
55.380 11.996316
55.385 12.218882
55.390 12.306796
55.395 12.939075
55.400 12.945827
55.405 12.724517
55.410 12.429971
55.415 12.524932
55.420 12.833567
55.425 12.596001
55.430 12.389628
55.435 12.752571
55.440 12.806231
55.445 13.034429
55.450 12.59343
55.455 12.056213
55.460 12.272334
55.465 12.141467
55.470 12.195086
55.475 12.13156
55.480 12.104076
55.485 12.385002
55.490 12.587561
55.495 12.707532
55.500 12.782063
55.505 12.662029
55.510 12.771155
55.515 12.286596
55.520 12.226856
55.525 12.131929
55.530 11.827706
55.535 12.03639
55.540 11.752426
55.545 11.719599
55.550 12.415514
55.555 12.440296
55.560 12.613787
55.565 12.49456
55.570 12.678324
55.575 13.01206
55.580 13.246311
55.585 13.057615
55.590 13.319661
55.595 13.87138
55.600 14.285561
55.605 14.129676
55.610 14.054513
55.615 13.717397
55.620 13.539331
55.625 13.459364
55.630 13.277878
55.635 13.361546
55.640 13.169441
55.645 13.000039
55.650 13.223719
55.655 13.539465
55.660 13.124279
55.665 12.683526
55.670 12.139368
55.675 12.264894
55.680 12.617124
55.685 12.659548
55.690 12.360223
55.695 12.714304
55.700 12.921066
55.705 12.980615
55.710 12.633808
55.715 12.4202
55.720 12.534544
55.725 12.454765
55.730 12.071678
55.735 11.99052
55.740 11.895197
55.745 12.249373
55.750 12.584437
55.755 12.417773
55.760 12.540907
55.765 12.387047
55.770 12.199848
55.775 12.415307
55.780 12.398434
55.785 12.525951
55.790 12.351407
55.795 12.394308
55.800 12.789904
55.805 13.17146
55.810 13.571707
55.815 13.31064
55.820 13.357409
55.825 14.005505
55.830 14.622463
55.835 14.916674
55.840 14.723852
55.845 14.512281
55.850 14.68259
55.855 14.336815
55.860 13.648283
55.865 13.576278
55.870 13.527609
55.875 14.049737
55.880 14.135741
55.885 14.197377
55.890 14.323264
55.895 14.254263
55.900 14.076533
55.905 13.692559
55.910 12.909924
55.915 12.835663
55.920 13.090619
55.925 13.782752
55.930 13.959913
55.935 13.836792
55.940 14.155978
55.945 14.129251
55.950 14.067479
55.955 13.445869
55.960 12.903162
55.965 12.917666
55.970 12.720373
55.975 13.01886
55.980 13.174101
55.985 13.163533
55.990 13.007809
55.995 12.982637
56.000 13.176089
56.005 13.534389
56.010 13.041192
56.015 12.875576
56.020 12.657443
56.025 12.731551
56.030 13.21853
56.035 13.275798
56.040 12.901858
56.045 13.041516
56.050 12.949083
56.055 12.853208
56.060 12.672949
56.065 12.453468
56.070 11.772885
56.075 11.802437
56.080 12.125102
56.085 12.455756
56.090 13.222299
56.095 13.276283
56.100 13.131056
56.105 13.68767
56.110 13.714691
56.115 13.796043
56.120 13.858842
56.125 13.608903
56.130 13.413778
56.135 13.696279
56.140 13.688885
56.145 13.496505
56.150 13.181814
56.155 12.816905
56.160 12.47542
56.165 13.076985
56.170 13.41864
56.175 13.238629
56.180 13.116748
56.185 13.302356
56.190 13.260586
56.195 12.859514
56.200 12.348205
56.205 11.881777
56.210 12.089467
56.215 12.672487
56.220 12.248804
56.225 12.668179
56.230 13.361447
56.235 13.801667
56.240 13.922599
56.245 14.02284
56.250 13.885637
56.255 14.347024
56.260 14.326396
56.265 13.773346
56.270 13.286122
56.275 13.226071
56.280 13.395515
56.285 13.428672
56.290 13.406658
56.295 13.729832
56.300 13.815025
56.305 14.005534
56.310 14.007778
56.315 13.654829
56.320 13.869175
56.325 13.596985
56.330 13.317979
56.335 13.466812
56.340 13.228362
56.345 13.16712
56.350 12.449925
56.355 12.176298
56.360 12.642174
56.365 12.749663
56.370 12.445077
56.375 13.108351
56.380 13.043268
56.385 13.288835
56.390 12.924702
56.395 12.299747
56.400 12.571186
56.405 12.70538
56.410 12.540607
56.415 12.684649
56.420 12.465491
56.425 12.567899
56.430 12.909988
56.435 12.502135
56.440 12.4501
56.445 12.400088
56.450 12.578733
56.455 12.968454
56.460 13.426422
56.465 13.41519
56.470 13.420126
56.475 13.762673
56.480 13.880211
56.485 13.91533
56.490 14.47816
56.495 14.706078
56.500 14.719163
56.505 14.860976
56.510 14.263982
56.515 13.896787
56.520 14.287948
56.525 14.553638
56.530 14.53581
56.535 14.98576
56.540 15.28031
56.545 15.579098
56.550 15.72242
56.555 15.524122
56.560 14.794563
56.565 14.249445
56.570 13.626036
56.575 13.444979
56.580 13.31227
56.585 13.305307
56.590 13.133553
56.595 13.486819
56.600 14.254607
56.605 14.754148
56.610 15.142273
56.615 15.077127
56.620 15.21002
56.625 15.007576
56.630 15.092223
56.635 14.900959
56.640 14.090502
56.645 13.560469
56.650 13.613618
56.655 13.417138
56.660 13.518097
56.665 13.231553
56.670 13.012585
56.675 13.916621
56.680 14.290199
56.685 14.489762
56.690 14.337192
56.695 14.645298
56.700 14.329582
56.705 13.959003
56.710 13.422893
56.715 13.430762
56.720 13.778838
56.725 14.28499
56.730 14.310034
56.735 14.748861
56.740 15.150985
56.745 15.24429
56.750 15.510561
56.755 15.415998
56.760 15.27334
56.765 14.714949
56.770 14.379662
56.775 14.460684
56.780 14.34187
56.785 13.935964
56.790 13.552108
56.795 13.238585
56.800 13.545704
56.805 13.555547
56.810 13.4613
56.815 13.384158
56.820 13.425968
56.825 13.518563
56.830 13.249154
56.835 12.91112
56.840 13.38164
56.845 13.626835
56.850 13.23279
56.855 12.76097
56.860 13.009235
56.865 13.342096
56.870 13.951303
56.875 13.871843
56.880 13.528085
56.885 13.847237
56.890 14.125121
56.895 14.042204
56.900 13.987968
56.905 13.444601
56.910 13.079403
56.915 13.45292
56.920 13.850104
56.925 14.461658
56.930 14.810577
56.935 14.87909
56.940 14.762381
56.945 14.706876
56.950 14.884863
56.955 14.46455
56.960 14.432866
56.965 14.255235
56.970 14.307614
56.975 15.303722
56.980 15.525613
56.985 14.716547
56.990 14.565809
56.995 14.229851
57.000 14.569861
57.005 14.66867
57.010 14.068554
57.015 14.373207
57.020 15.001915
57.025 15.173248
57.030 15.256117
57.035 14.818568
57.040 14.469006
57.045 14.230371
57.050 13.964128
57.055 13.800469
57.060 13.744719
57.065 13.380511
57.070 12.999557
57.075 12.630385
57.080 12.899241
57.085 12.847882
57.090 12.647085
57.095 12.559056
57.100 13.038013
57.105 13.691237
57.110 14.342031
57.115 14.031135
57.120 14.128182
57.125 13.890786
57.130 13.532718
57.135 13.575725
57.140 13.314344
57.145 13.462861
57.150 13.784236
57.155 13.829723
57.160 14.564729
57.165 14.868
57.170 14.75618
57.175 14.611897
57.180 14.193044
57.185 14.056719
57.190 13.641926
57.195 13.172651
57.200 13.675652
57.205 13.846161
57.210 13.903498
57.215 14.052215
57.220 14.110353
57.225 14.039647
57.230 13.84601
57.235 13.244974
57.240 13.238115
57.245 13.407226
57.250 13.431822
57.255 13.800553
57.260 14.223403
57.265 14.562411
57.270 14.630858
57.275 14.835386
57.280 14.980281
57.285 15.202191
57.290 14.931035
57.295 15.243227
57.300 14.95478
57.305 14.720181
57.310 14.55973
57.315 14.664246
57.320 14.019516
57.325 13.743375
57.330 13.55073
57.335 13.746946
57.340 14.062478
57.345 14.024423
57.350 13.692944
57.355 13.59968
57.360 13.518618
57.365 13.275495
57.370 13.42155
57.375 13.329031
57.380 13.275011
57.385 13.206974
57.390 14.255211
57.395 14.161663
57.400 14.353758
57.405 13.985642
57.410 13.936189
57.415 13.706633
57.420 13.958312
57.425 13.559807
57.430 13.765982
57.435 13.706885
57.440 13.881262
57.445 13.502765
57.450 13.64697
57.455 13.527929
57.460 13.615738
57.465 14.003066
57.470 13.969875
57.475 13.964637
57.480 14.587907
57.485 14.306764
57.490 14.070168
57.495 13.805335
57.500 13.82961
57.505 13.819467
57.510 13.936306
57.515 13.891768
57.520 14.72998
57.525 15.070413
57.530 15.11028
57.535 15.093417
57.540 15.659959
57.545 15.940254
57.550 16.056793
57.555 16.021883
57.560 16.282354
57.565 15.769492
57.570 15.456565
57.575 15.105752
57.580 14.908738
57.585 15.075475
57.590 14.774156
57.595 15.13816
57.600 15.451555
57.605 15.093307
57.610 14.467082
57.615 14.367015
57.620 14.302232
57.625 14.418117
57.630 13.821805
57.635 14.12569
57.640 14.607774
57.645 14.870451
57.650 14.638649
57.655 14.487004
57.660 14.134532
57.665 13.966902
57.670 14.009899
57.675 13.719529
57.680 13.78773
57.685 13.757867
57.690 14.129399
57.695 14.567073
57.700 14.454291
57.705 14.258663
57.710 14.711958
57.715 14.828483
57.720 14.365331
57.725 13.961285
57.730 14.382867
57.735 15.001943
57.740 15.657886
57.745 16.170738
57.750 16.641045
57.755 17.039783
57.760 17.094284
57.765 16.671555
57.770 16.723022
57.775 16.614014
57.780 16.779482
57.785 16.881994
57.790 17.10681
57.795 16.928268
57.800 16.97385
57.805 16.962454
57.810 16.990364
57.815 16.581886
57.820 16.113575
57.825 16.088655
57.830 15.853055
57.835 16.040766
57.840 16.04225
57.845 15.721385
57.850 15.631886
57.855 16.030231
57.860 16.193876
57.865 16.713749
57.870 16.44261
57.875 15.912464
57.880 15.75392
57.885 15.391392
57.890 14.856435
57.895 14.904616
57.900 14.915682
57.905 15.610173
57.910 15.618644
57.915 15.555233
57.920 15.822205
57.925 16.225765
57.930 15.671391
57.935 15.849344
57.940 16.067162
57.945 16.439152
57.950 16.522409
57.955 16.780005
57.960 16.471241
57.965 16.947495
57.970 16.376173
57.975 16.026672
57.980 16.563873
57.985 16.587339
57.990 15.793078
57.995 15.630271
58.000 15.355597
58.005 15.574272
58.010 15.78609
58.015 15.751766
58.020 16.362936
58.025 17.160494
58.030 17.972246
58.035 18.258623
58.040 18.420134
58.045 18.559507
58.050 18.477888
58.055 18.588142
58.060 18.716835
58.065 18.441381
58.070 18.337416
58.075 18.270433
58.080 17.982492
58.085 17.697893
58.090 17.168777
58.095 17.059572
58.100 17.154894
58.105 17.231964
58.110 17.263145
58.115 17.075022
58.120 16.976936
58.125 17.384716
58.130 17.284863
58.135 17.373932
58.140 17.242865
58.145 17.641083
58.150 18.407711
58.155 18.77787
58.160 18.961182
58.165 19.577103
58.170 19.755884
58.175 20.344286
58.180 20.074684
58.185 19.800573
58.190 19.754978
58.195 19.513378
58.200 18.938505
58.205 18.821505
58.210 18.906712
58.215 18.425478
58.220 18.404705
58.225 18.004826
58.230 17.61484
58.235 17.398693
58.240 16.671
58.245 16.411318
58.250 17.146736
58.255 17.096062
58.260 17.319099
58.265 17.749485
58.270 18.155643
58.275 18.760086
58.280 19.026785
58.285 18.696857
58.290 18.458105
58.295 18.021784
58.300 18.187296
58.305 17.867319
58.310 18.024746
58.315 18.556313
58.320 18.666143
58.325 18.866274
58.330 19.392006
58.335 19.463091
58.340 19.88497
58.345 20.056688
58.350 19.086647
58.355 19.721294
58.360 19.985905
58.365 20.379799
58.370 20.787838
58.375 21.172131
58.380 21.382542
58.385 22.778669
58.390 23.394974
58.395 23.78002
58.400 23.411299
58.405 23.235313
58.410 22.770269
58.415 22.48704
58.420 21.822412
58.425 21.311394
58.430 22.070898
58.435 22.428915
58.440 22.687971
58.445 22.959352
58.450 23.406185
58.455 24.36237
58.460 25.474556
58.465 25.488941
58.470 26.606922
58.475 26.925056
58.480 27.539026
58.485 27.743319
58.490 28.421919
58.495 28.329706
58.500 29.242973
58.505 29.11381
58.510 29.17511
58.515 29.966398
58.520 30.256334
58.525 30.529783
58.530 30.422195
58.535 29.891464
58.540 30.220009
58.545 31.487923
58.550 32.087349
58.555 32.759731
58.560 33.214634
58.565 33.987064
58.570 35.070187
58.575 35.697021
58.580 35.489552
58.585 35.389748
58.590 36.012527
58.595 36.703983
58.600 37.054749
58.605 37.179829
58.610 37.112034
58.615 37.3937
58.620 37.569939
58.625 38.266525
58.630 38.106857
58.635 37.626907
58.640 38.074245
58.645 38.655754
58.650 39.438358
58.655 39.788536
58.660 39.824699
58.665 40.976173
58.670 41.924133
58.675 41.542709
58.680 41.43185
58.685 41.214375
58.690 41.216331
58.695 40.734428
58.700 39.487011
58.705 39.115677
58.710 39.176289
58.715 38.992268
58.720 38.401024
58.725 38.352974
58.730 38.701256
58.735 38.805782
58.740 38.21439
58.745 37.534454
58.750 37.787228
58.755 37.090443
58.760 37.073963
58.765 35.114613
58.770 34.607868
58.775 34.918846
58.780 34.279751
58.785 32.983063
58.790 32.099911
58.795 31.487411
58.800 32.071461
58.805 32.202229
58.810 32.581409
58.815 32.271061
58.820 32.360661
58.825 32.184044
58.830 31.460693
58.835 30.892748
58.840 30.219542
58.845 29.632996
58.850 29.613796
58.855 29.797972
58.860 30.138376
58.865 29.972046
58.870 29.751244
58.875 29.082251
58.880 28.503983
58.885 28.415026
58.890 28.000017
58.895 27.202181
58.900 26.76696
58.905 26.76058
58.910 26.250904
58.915 25.357565
58.920 24.430738
58.925 24.076748
58.930 24.474785
58.935 24.330917
58.940 23.967897
58.945 23.849777
58.950 23.844009
58.955 23.859571
58.960 23.139702
58.965 22.866716
58.970 22.027092
58.975 20.847034
58.980 21.044088
58.985 20.639492
58.990 20.588261
58.995 20.874193
59.000 20.295321
59.005 20.367792
59.010 20.189859
59.015 19.468876
59.020 18.910007
59.025 18.576727
59.030 18.636457
59.035 18.726294
59.040 19.428093
59.045 19.40983
59.050 19.582745
59.055 19.490776
59.060 19.161406
59.065 18.669727
59.070 18.569588
59.075 18.102549
59.080 18.787388
59.085 18.890284
59.090 19.031994
59.095 19.184467
59.100 19.497324
59.105 19.54641
59.110 19.000463
59.115 17.758944
59.120 17.650141
59.125 17.896034
59.130 18.083115
59.135 17.794758
59.140 17.475592
59.145 17.621042
59.150 17.64492
59.155 17.335808
59.160 17.196093
59.165 16.702246
59.170 16.009604
59.175 15.539656
59.180 15.447986
59.185 15.628627
59.190 15.511227
59.195 16.024025
59.200 16.777365
59.205 17.389923
59.210 17.552967
59.215 17.385166
59.220 17.278622
59.225 17.167196
59.230 16.473345
59.235 15.850928
59.240 15.614555
59.245 15.75208
59.250 15.65102
59.255 15.84697
59.260 16.105936
59.265 15.735437
59.270 15.196246
59.275 15.227934
59.280 15.291653
59.285 15.682487
59.290 15.228752
59.295 15.138736
59.300 15.109364
59.305 15.380792
59.310 15.37617
59.315 15.604212
59.320 15.811937
59.325 15.766439
59.330 15.905425
59.335 16.521538
59.340 16.29715
59.345 16.075916
59.350 15.818084
59.355 15.645204
59.360 15.994157
59.365 15.890954
59.370 15.706175
59.375 16.058491
59.380 16.414814
59.385 16.51351
59.390 16.295403
59.395 16.068048
59.400 16.042721
59.405 16.166319
59.410 16.109816
59.415 15.921789
59.420 15.596594
59.425 16.036053
59.430 15.882238
59.435 15.446561
59.440 16.24073
59.445 16.49852
59.450 16.40526
59.455 16.442675
59.460 16.278351
59.465 16.723013
59.470 17.183205
59.475 16.291445
59.480 15.921372
59.485 16.121458
59.490 16.665289
59.495 17.206556
59.500 16.996283
59.505 16.793411
59.510 17.110128
59.515 17.01469
59.520 17.1285
59.525 16.845572
59.530 16.258238
59.535 16.288939
59.540 16.441412
59.545 16.682671
59.550 16.715059
59.555 16.411707
59.560 16.534227
59.565 16.569813
59.570 16.61235
59.575 16.443365
59.580 16.656631
59.585 17.127501
59.590 17.138149
59.595 17.298843
59.600 17.348433
59.605 17.609764
59.610 17.419661
59.615 16.767714
59.620 16.011402
59.625 16.238214
59.630 15.976422
59.635 15.554469
59.640 15.090032
59.645 14.689318
59.650 14.881538
59.655 15.215715
59.660 15.090798
59.665 15.62198
59.670 15.854412
59.675 16.284653
59.680 16.93408
59.685 16.856382
59.690 16.760019
59.695 16.31963
59.700 16.711916
59.705 16.448193
59.710 16.098135
59.715 15.810242
59.720 16.001417
59.725 15.849039
59.730 16.039217
59.735 15.183619
59.740 15.547481
59.745 15.714865
59.750 15.835301
59.755 15.694857
59.760 15.923091
59.765 15.838094
59.770 15.595807
59.775 15.262451
59.780 15.156254
59.785 14.849338
59.790 15.463262
59.795 15.723905
59.800 15.645738
59.805 16.016111
59.810 16.303209
59.815 16.430016
59.820 16.580795
59.825 16.240444
59.830 16.32132
59.835 16.4366
59.840 16.321396
59.845 16.386545
59.850 16.273279
59.855 16.22612
59.860 16.003284
59.865 16.013594
59.870 15.74089
59.875 15.293472
59.880 15.122683
59.885 15.291195
59.890 15.525186
59.895 15.953657
59.900 15.653567
59.905 15.976042
59.910 16.315695
59.915 16.301004
59.920 15.99753
59.925 15.820637
59.930 15.312717
59.935 15.602022
59.940 15.368631
59.945 14.920757
59.950 15.049807
59.955 15.254812
59.960 15.243731
59.965 15.477431
59.970 15.080665
59.975 15.630177
59.980 16.497902
59.985 16.614792
59.990 16.94556
59.995 16.864103
60.000 16.932734
60.005 16.812586
60.010 16.51454
60.015 16.631893
60.020 16.402994
60.025 16.088699
60.030 16.711191
60.035 16.767975
60.040 17.094276
60.045 17.525963
60.050 17.048952
60.055 16.964172
60.060 17.062399
60.065 16.701464
60.070 16.739317
60.075 16.876251
60.080 16.593805
60.085 16.360867
60.090 16.119064
60.095 16.222347
60.100 16.218122
60.105 16.181789
60.110 15.383161
60.115 14.888125
60.120 15.352818
60.125 15.57367
60.130 15.523156
60.135 15.397159
60.140 15.583996
60.145 16.33942
60.150 16.380875
60.155 16.278875
60.160 16.07062
60.165 16.345196
60.170 16.620573
60.175 16.228773
60.180 16.401606
60.185 17.488628
60.190 17.690374
60.195 17.63982
60.200 17.3946
60.205 17.289816
60.210 17.524456
60.215 17.255941
60.220 16.541325
60.225 16.191053
60.230 15.988404
60.235 15.234317
60.240 15.103653
60.245 14.975861
60.250 15.148546
60.255 15.30015
60.260 15.95318
60.265 16.254225
60.270 16.25363
60.275 15.729069
60.280 15.266444
60.285 14.864007
60.290 14.845083
60.295 14.480309
60.300 14.234817
60.305 14.736401
60.310 15.164241
60.315 16.21365
60.320 16.61179
60.325 16.399689
60.330 16.377258
60.335 16.828253
60.340 16.624184
60.345 16.289139
60.350 15.66906
60.355 15.762172
60.360 15.495067
60.365 15.607174
60.370 15.438207
60.375 15.927768
60.380 15.876506
60.385 15.733886
60.390 15.58152
60.395 16.100216
60.400 15.960603
60.405 15.857549
60.410 15.315342
60.415 15.705757
60.420 15.804499
60.425 15.728842
60.430 15.091548
60.435 14.92662
60.440 15.333541
60.445 15.787656
60.450 16.108574
60.455 15.945519
60.460 15.977847
60.465 16.25786
60.470 16.528763
60.475 16.528467
60.480 16.310051
60.485 16.089962
60.490 16.093796
60.495 16.226723
60.500 16.581852
60.505 16.784527
60.510 16.876167
60.515 17.173725
60.520 16.961966
60.525 16.80307
60.530 16.630499
60.535 16.739079
60.540 16.487375
60.545 16.470423
60.550 16.202036
60.555 16.55456
60.560 16.659252
60.565 17.017645
60.570 17.009943
60.575 17.258686
60.580 17.382404
60.585 17.624296
60.590 17.443718
60.595 17.692009
60.600 17.419863
60.605 17.262024
60.610 17.35408
60.615 17.305584
60.620 16.865004
60.625 16.82202
60.630 16.457653
60.635 16.300365
60.640 16.39168
60.645 15.793815
60.650 15.386353
60.655 15.395901
60.660 15.595989
60.665 15.462815
60.670 15.581206
60.675 15.711657
60.680 16.214195
60.685 16.733027
60.690 17.117115
60.695 17.680262
60.700 18.287209
60.705 17.883057
60.710 17.288536
60.715 16.227394
60.720 15.380959
60.725 15.2464
60.730 15.139565
60.735 14.989896
60.740 14.834407
60.745 15.100922
60.750 15.63786
60.755 16.077471
60.760 16.522552
60.765 16.696909
60.770 16.998922
60.775 17.608683
60.780 17.87863
60.785 17.988953
60.790 17.338661
60.795 16.632195
60.800 16.174911
60.805 15.578074
60.810 15.192862
60.815 15.100131
60.820 15.353657
60.825 16.149979
60.830 16.550991
60.835 16.316162
60.840 16.516417
60.845 16.818567
60.850 16.98995
60.855 17.286242
60.860 17.050247
60.865 17.23134
60.870 17.299227
60.875 17.372749
60.880 17.316408
60.885 16.981379
60.890 16.93133
60.895 17.48831
60.900 17.415518
60.905 17.627422
60.910 17.496357
60.915 17.323631
60.920 17.392481
60.925 17.432573
60.930 17.037407
60.935 16.780672
60.940 16.294664
60.945 16.246002
60.950 15.879225
60.955 15.448529
60.960 14.84344
60.965 15.076476
60.970 15.268385
60.975 15.753773
60.980 16.456867
60.985 17.099716
60.990 17.25539
60.995 17.171137
61.000 16.727192
61.005 16.521612
61.010 16.587622
61.015 16.065397
61.020 16.013187
61.025 16.321039
61.030 16.173754
61.035 16.570717
61.040 16.731688
61.045 17.269176
61.050 16.938496
61.055 16.277229
61.060 16.107798
61.065 16.438175
61.070 16.267981
61.075 15.532125
61.080 15.379052
61.085 16.140429
61.090 16.926622
61.095 17.072702
61.100 16.870609
61.105 16.395245
61.110 16.416582
61.115 15.966458
61.120 15.372607
61.125 15.426838
61.130 15.919
61.135 15.951223
61.140 16.24375
61.145 16.67675
61.150 16.79175
61.155 16.82233
61.160 16.48192
61.165 16.026123
61.170 16.091436
61.175 16.030823
61.180 16.28891
61.185 16.334499
61.190 16.461674
61.195 16.740074
61.200 16.528147
61.205 16.454918
61.210 16.301558
61.215 15.828974
61.220 15.958342
61.225 16.146481
61.230 16.349663
61.235 16.145086
61.240 16.039373
61.245 16.076658
61.250 15.953839
61.255 15.658213
61.260 15.289329
61.265 14.828974
61.270 15.116661
61.275 15.389791
61.280 16.03882
61.285 16.495136
61.290 16.267536
61.295 16.203066
61.300 16.136797
61.305 15.974003
61.310 16.038818
61.315 15.708936
61.320 15.275391
61.325 15.188811
61.330 15.325727
61.335 15.83754
61.340 16.362263
61.345 15.939607
61.350 15.815483
61.355 16.272175
61.360 16.757133
61.365 16.800594
61.370 16.629324
61.375 16.411848
61.380 16.748896
61.385 16.671661
61.390 16.232241
61.395 15.840151
61.400 15.619891
61.405 15.564756
61.410 15.806541
61.415 16.298616
61.420 16.489592
61.425 16.739422
61.430 17.411268
61.435 17.418701
61.440 17.724222
61.445 17.731825
61.450 17.336805
61.455 17.208324
61.460 16.664442
61.465 16.004194
61.470 15.785605
61.475 15.120091
61.480 14.882651
61.485 14.776988
61.490 15.016155
61.495 15.334953
61.500 16.078178
61.505 16.015945
61.510 15.858731
61.515 15.803263
61.520 15.89556
61.525 15.930038
61.530 16.341255
61.535 15.923563
61.540 16.05619
61.545 16.491945
61.550 17.186405
61.555 17.708241
61.560 17.744932
61.565 17.442524
61.570 17.643494
61.575 17.978052
61.580 18.052654
61.585 17.378862
61.590 16.524164
61.595 16.239185
61.600 16.319695
61.605 16.457649
61.610 15.726035
61.615 15.427278
61.620 15.652225
61.625 16.167065
61.630 16.172274
61.635 16.219378
61.640 16.497511
61.645 16.916262
61.650 16.627544
61.655 16.501003
61.660 16.534821
61.665 17.362928
61.670 17.797354
61.675 17.464634
61.680 18.059519
61.685 18.039742
61.690 17.808561
61.695 17.673529
61.700 17.41696
61.705 16.92322
61.710 17.275097
61.715 17.92466
61.720 18.460217
61.725 18.556366
61.730 18.508553
61.735 18.262753
61.740 17.670496
61.745 17.329311
61.750 16.216669
61.755 16.07946
61.760 16.364359
61.765 16.775616
61.770 16.709667
61.775 17.076403
61.780 16.782095
61.785 16.898499
61.790 16.898396
61.795 16.757536
61.800 16.407499
61.805 16.577999
61.810 16.619829
61.815 17.1968
61.820 17.82815
61.825 17.586218
61.830 17.29447
61.835 16.783926
61.840 16.377979
61.845 16.220545
61.850 16.025
61.855 15.309792
61.860 15.724752
61.865 16.42749
61.870 17.02895
61.875 17.877663
61.880 18.274937
61.885 18.431925
61.890 18.526802
61.895 18.279907
61.900 17.789925
61.905 17.296925
61.910 17.414589
61.915 17.204905
61.920 17.171196
61.925 16.860094
61.930 16.546963
61.935 16.600363
61.940 16.615705
61.945 15.911088
61.950 15.35779
61.955 14.77323
61.960 14.982435
61.965 14.804881
61.970 15.523279
61.975 15.967887
61.980 16.273439
61.985 16.40024
61.990 16.405407
61.995 16.545507
62.000 17.232903
62.005 16.816055
62.010 16.20393
62.015 16.028799
62.020 16.832342
62.025 16.941412
62.030 16.907112
62.035 17.205849
62.040 17.734518
62.045 18.484264
62.050 18.958086
62.055 18.570612
62.060 18.970552
62.065 18.758028
62.070 17.706093
62.075 16.933887
62.080 16.557199
62.085 16.244221
62.090 16.053907
62.095 15.509245
62.100 15.458176
62.105 16.147516
62.110 16.080166
62.115 16.553001
62.120 16.911703
62.125 17.550314
62.130 18.392307
62.135 18.368422
62.140 18.113747
62.145 17.84671
62.150 17.238941
62.155 16.82748
62.160 16.391506
62.165 16.956181
62.170 17.585596
62.175 18.095554
62.180 18.97677
62.185 19.370646
62.190 19.013594
62.195 18.548454
62.200 17.375914
62.205 17.24773
62.210 17.30661
62.215 17.002439
62.220 17.118862
62.225 17.531082
62.230 17.966665
62.235 18.142239
62.240 17.451414
62.245 17.066639
62.250 16.597677
62.255 16.274403
62.260 15.767175
62.265 15.646765
62.270 15.479431
62.275 15.572016
62.280 15.430245
62.285 15.540924
62.290 15.349493
62.295 15.499585
62.300 15.045844
62.305 14.780297
62.310 14.820374
62.315 14.768231
62.320 15.120468
62.325 15.206667
62.330 15.692054
62.335 16.515144
62.340 16.865461
62.345 16.789307
62.350 16.816002
62.355 16.749754
62.360 16.67701
62.365 16.722548
62.370 16.583788
62.375 16.148962
62.380 16.279089
62.385 16.197224
62.390 15.94769
62.395 16.418203
62.400 16.154625
62.405 16.456059
62.410 17.606504
62.415 17.959759
62.420 18.000858
62.425 17.931047
62.430 17.527632
62.435 17.577564
62.440 17.263491
62.445 16.766552
62.450 16.832996
62.455 17.573275
62.460 17.740368
62.465 17.851816
62.470 17.987982
62.475 18.381683
62.480 19.163496
62.485 19.106314
62.490 18.85265
62.495 18.680229
62.500 18.562368
62.505 17.982044
62.510 17.960663
62.515 16.748055
62.520 16.51615
62.525 16.376017
62.530 16.379953
62.535 16.2647
62.540 16.181368
62.545 15.887983
62.550 16.405485
62.555 16.700314
62.560 16.706118
62.565 17.090868
62.570 17.1824
62.575 16.960562
62.580 16.564302
62.585 15.376679
62.590 15.0595
62.595 15.038594
62.600 15.076095
62.605 15.107674
62.610 15.782693
62.615 16.240778
62.620 16.536989
62.625 16.286369
62.630 16.51792
62.635 16.504028
62.640 16.879364
62.645 16.743568
62.650 16.918427
62.655 17.300182
62.660 17.125906
62.665 16.642025
62.670 16.900684
62.675 17.13175
62.680 17.27615
62.685 17.427593
62.690 18.521429
62.695 18.778114
62.700 19.413855
62.705 19.189455
62.710 18.533524
62.715 18.435591
62.720 18.003162
62.725 17.569502
62.730 17.888311
62.735 17.768068
62.740 18.691936
62.745 19.125422
62.750 19.136745
62.755 19.438219
62.760 19.414835
62.765 19.212589
62.770 19.222374
62.775 18.184099
62.780 18.021404
62.785 17.603664
62.790 17.458178
62.795 17.232662
62.800 17.311298
62.805 17.291683
62.810 17.084583
62.815 17.466288
62.820 17.423018
62.825 17.598577
62.830 18.111698
62.835 17.981255
62.840 17.940481
62.845 18.530336
62.850 18.517765
62.855 18.729555
62.860 18.051224
62.865 17.51944
62.870 17.726864
62.875 17.44528
62.880 17.462599
62.885 17.369581
62.890 17.571461
62.895 17.743114
62.900 18.682779
62.905 18.497458
62.910 18.274261
62.915 17.912315
62.920 17.774502
62.925 17.850893
62.930 17.875116
62.935 17.219862
62.940 17.723536
62.945 17.803936
62.950 17.844677
62.955 18.161947
62.960 18.21562
62.965 18.477421
62.970 19.347227
62.975 19.43646
62.980 18.670475
62.985 18.877102
62.990 19.109585
62.995 19.726521
63.000 19.689739
63.005 18.755625
63.010 18.140642
63.015 19.030855
63.020 18.692965
63.025 18.036106
63.030 17.019176
63.035 16.60812
63.040 16.502153
63.045 16.610868
63.050 15.84811
63.055 15.777113
63.060 15.77769
63.065 15.641584
63.070 15.743999
63.075 15.318909
63.080 15.618984
63.085 16.536758
63.090 16.483957
63.095 16.378019
63.100 16.868881
63.105 16.795496
63.110 16.68198
63.115 16.641352
63.120 16.65386
63.125 16.839361
63.130 17.362572
63.135 17.423378
63.140 17.555908
63.145 18.321716
63.150 18.375677
63.155 18.176022
63.160 17.993221
63.165 17.96784
63.170 17.940269
63.175 17.8776
63.180 17.071064
63.185 16.665697
63.190 16.793926
63.195 16.322548
63.200 15.947287
63.205 15.662014
63.210 15.968481
63.215 16.784821
63.220 16.755409
63.225 16.776646
63.230 17.454102
63.235 17.436295
63.240 17.91403
63.245 17.869808
63.250 17.578516
63.255 17.533913
63.260 16.997576
63.265 16.684019
63.270 16.776335
63.275 16.859741
63.280 17.450726
63.285 17.504219
63.290 17.919922
63.295 18.476013
63.300 18.899309
63.305 19.079506
63.310 18.67844
63.315 18.482529
63.320 18.313627
63.325 17.972727
63.330 18.124775
63.335 18.009876
63.340 17.961578
63.345 17.84395
63.350 17.93762
63.355 18.294262
63.360 18.152203
63.365 18.639847
63.370 18.710876
63.375 18.57839
63.380 18.376738
63.385 18.41309
63.390 18.960016
63.395 19.63332
63.400 18.806648
63.405 18.251637
63.410 18.000608
63.415 17.884501
63.420 17.88294
63.425 17.334671
63.430 17.120899
63.435 17.493725
63.440 17.687017
63.445 17.925623
63.450 17.69652
63.455 17.244389
63.460 17.122383
63.465 17.13677
63.470 17.228029
63.475 17.470657
63.480 17.733624
63.485 18.436506
63.490 19.231373
63.495 19.214315
63.500 19.166487
63.505 19.545994
63.510 19.447302
63.515 19.353706
63.520 19.044241
63.525 18.130224
63.530 18.100441
63.535 18.055016
63.540 17.88452
63.545 18.13903
63.550 17.895416
63.555 17.347797
63.560 17.728132
63.565 17.661383
63.570 17.192604
63.575 16.846954
63.580 16.875828
63.585 17.199726
63.590 18.136976
63.595 18.629091
63.600 18.779606
63.605 19.500479
63.610 19.641077
63.615 19.496822
63.620 19.023396
63.625 18.720503
63.630 18.841064
63.635 18.910128
63.640 18.523903
63.645 18.580029
63.650 18.533197
63.655 18.546556
63.660 18.464132
63.665 18.238491
63.670 18.45962
63.675 18.923168
63.680 18.680435
63.685 19.375303
63.690 19.87924
63.695 19.915689
63.700 20.296818
63.705 20.10062
63.710 19.586948
63.715 20.097761
63.720 20.085421
63.725 19.729246
63.730 19.515717
63.735 18.710285
63.740 18.594477
63.745 18.718819
63.750 18.247026
63.755 17.54917
63.760 17.688189
63.765 17.765001
63.770 18.001282
63.775 18.067196
63.780 18.463419
63.785 18.663191
63.790 19.078451
63.795 19.328873
63.800 19.161104
63.805 19.038649
63.810 19.078568
63.815 18.646582
63.820 18.328827
63.825 18.09198
63.830 17.951521
63.835 18.329454
63.840 18.462009
63.845 18.233448
63.850 18.369282
63.855 18.652763
63.860 18.523773
63.865 18.947956
63.870 18.799116
63.875 18.715221
63.880 19.337669
63.885 19.195473
63.890 19.187731
63.895 19.490196
63.900 19.290665
63.905 19.274378
63.910 20.043495
63.915 19.76915
63.920 19.748131
63.925 19.561464
63.930 19.811172
63.935 19.563328
63.940 19.294683
63.945 18.808174
63.950 18.808716
63.955 19.506226
63.960 19.805443
63.965 19.600504
63.970 19.67605
63.975 19.498079
63.980 19.815048
63.985 20.066896
63.990 19.796436
63.995 19.811842
64.000 20.445852
64.005 20.983475
64.010 22.300999
64.015 22.37026
64.020 22.598087
64.025 23.405153
64.030 23.879826
64.035 23.60487
64.040 23.494373
64.045 23.319458
64.050 23.294193
64.055 23.364662
64.060 22.858107
64.065 23.244169
64.070 23.409191
64.075 24.129456
64.080 24.120228
64.085 24.302511
64.090 24.241632
64.095 24.326647
64.100 24.427351
64.105 24.73167
64.110 24.367929
64.115 24.613003
64.120 24.983255
64.125 25.410885
64.130 25.56428
64.135 25.742575
64.140 25.793926
64.145 25.534737
64.150 26.042332
64.155 26.434086
64.160 26.972834
64.165 27.551876
64.170 28.201426
64.175 29.125166
64.180 29.797478
64.185 30.702301
64.190 31.718716
64.195 31.854567
64.200 32.176796
64.205 32.348549
64.210 32.673176
64.215 32.828667
64.220 33.536266
64.225 34.439114
64.230 35.91573
64.235 36.309696
64.240 36.804893
64.245 37.480305
64.250 38.405495
64.255 38.47757
64.260 37.847195
64.265 37.761044
64.270 38.571388
64.275 38.82206
64.280 38.573483
64.285 38.611855
64.290 38.906666
64.295 40.13026
64.300 40.069687
64.305 39.480896
64.310 39.378349
64.315 40.07283
64.320 40.952236
64.325 42.206543
64.330 42.416523
64.335 43.391449
64.340 44.399422
64.345 45.530106
64.350 46.527218
64.355 47.142891
64.360 47.705059
64.365 49.383011
64.370 49.898052
64.375 50.726368
64.380 51.472782
64.385 51.753761
64.390 52.365147
64.395 52.860287
64.400 52.413429
64.405 52.903671
64.410 52.301308
64.415 52.374741
64.420 52.060131
64.425 51.989082
64.430 51.256172
64.435 50.654846
64.440 51.106911
64.445 51.628101
64.450 51.316216
64.455 51.148525
64.460 50.920788
64.465 51.176197
64.470 50.785412
64.475 49.813511
64.480 49.713531
64.485 50.534168
64.490 50.594894
64.495 49.445499
64.500 49.778671
64.505 51.030743
64.510 50.479382
64.515 50.130142
64.520 49.205963
64.525 49.105568
64.530 49.086189
64.535 47.906231
64.540 47.633011
64.545 47.019844
64.550 46.323814
64.555 45.870724
64.560 45.757328
64.565 45.989319
64.570 45.360001
64.575 44.856705
64.580 45.545525
64.585 45.373268
64.590 43.87521
64.595 42.368153
64.600 41.676414
64.605 40.96262
64.610 39.26915
64.615 37.799175
64.620 37.307224
64.625 37.102264
64.630 36.804672
64.635 35.918133
64.640 34.40078
64.645 34.478573
64.650 33.776421
64.655 33.026054
64.660 33.389194
64.665 33.831238
64.670 34.244541
64.675 34.778954
64.680 34.074497
64.685 33.809299
64.690 33.541183
64.695 32.915962
64.700 32.179932
64.705 30.706566
64.710 30.89942
64.715 31.12405
64.720 30.842735
64.725 30.57707
64.730 30.019932
64.735 29.651386
64.740 30.007452
64.745 28.439568
64.750 27.599447
64.755 27.325809
64.760 27.246437
64.765 27.192165
64.770 27.099602
64.775 26.133642
64.780 25.823776
64.785 25.823288
64.790 26.055744
64.795 25.90678
64.800 25.407822
64.805 24.834753
64.810 24.935221
64.815 25.227356
64.820 25.308262
64.825 25.0994
64.830 24.920515
64.835 24.903128
64.840 24.866501
64.845 24.728312
64.850 24.079466
64.855 24.123085
64.860 23.99884
64.865 23.84071
64.870 24.409193
64.875 25.09351
64.880 25.115793
64.885 25.301523
64.890 24.733425
64.895 24.453407
64.900 24.654312
64.905 24.972876
64.910 24.644892
64.915 24.353771
64.920 24.249458
64.925 24.287645
64.930 24.419668
64.935 24.281771
64.940 24.10931
64.945 24.091795
64.950 25.232193
64.955 26.29566
64.960 26.647476
64.965 26.035631
64.970 25.989309
64.975 26.208916
64.980 26.72505
64.985 27.101667
64.990 26.750353
64.995 27.018021
65.000 27.794281
65.005 27.376719
65.010 27.764225
65.015 27.979858
65.020 28.077129
65.025 28.633896
65.030 29.993021
65.035 30.959229
65.040 31.768785
65.045 32.104691
65.050 32.352943
65.055 32.980389
65.060 33.016148
65.065 32.57037
65.070 33.081875
65.075 33.173725
65.080 32.758362
65.085 33.542793
65.090 34.132301
65.095 34.831997
65.100 35.305557
65.105 35.768944
65.110 36.393452
65.115 36.526821
65.120 36.022629
65.125 35.719257
65.130 35.945816
65.135 36.602459
65.140 36.564304
65.145 37.226357
65.150 37.583351
65.155 37.942471
65.160 38.840858
65.165 38.899624
65.170 38.689564
65.175 38.754284
65.180 39.45792
65.185 40.045959
65.190 40.187626
65.195 40.051857
65.200 39.668186
65.205 40.047142
65.210 40.393158
65.215 40.241856
65.220 40.097805
65.225 39.921078
65.230 39.638111
65.235 40.04837
65.240 40.4109
65.245 39.543293
65.250 38.2938
65.255 38.288483
65.260 37.952995
65.265 37.484211
65.270 37.364716
65.275 37.577328
65.280 37.870724
65.285 38.650616
65.290 38.033783
65.295 37.980602
65.300 38.216709
65.305 38.030251
65.310 37.41993
65.315 37.438797
65.320 37.571091
65.325 37.857651
65.330 38.405975
65.335 38.843857
65.340 39.103382
65.345 38.935287
65.350 38.61076
65.355 38.064213
65.360 38.440388
65.365 37.98185
65.370 38.656086
65.375 38.974426
65.380 39.662968
65.385 40.013485
65.390 40.026157
65.395 40.42115
65.400 41.106258
65.405 40.522503
65.410 40.782612
65.415 41.062714
65.420 41.442871
65.425 41.868603
65.430 41.835106
65.435 41.942955
65.440 41.935131
65.445 42.2006
65.450 42.496082
65.455 42.917908
65.460 42.345524
65.465 41.424583
65.470 40.434387
65.475 39.380077
65.480 38.165047
65.485 37.42831
65.490 37.193161
65.495 37.174839
65.500 37.299282
65.505 37.174324
65.510 37.755962
65.515 38.226799
65.520 38.026051
65.525 38.123318
65.530 38.827667
65.535 39.362278
65.540 39.339767
65.545 39.131504
65.550 38.592751
65.555 38.383846
65.560 37.988655
65.565 37.829628
65.570 37.473598
65.575 38.248783
65.580 38.991089
65.585 38.849365
65.590 38.941921
65.595 38.568157
65.600 37.697617
65.605 37.677761
65.610 37.460468
65.615 37.015942
65.620 36.780872
65.625 36.884171
65.630 37.095993
65.635 37.1731
65.640 37.275673
65.645 36.653889
65.650 36.181274
65.655 36.174438
65.660 35.772259
65.665 36.012569
65.670 36.506382
65.675 36.954247
65.680 37.913544
65.685 38.508194
65.690 39.027836
65.695 39.361622
65.700 39.042435
65.705 37.752514
65.710 36.810143
65.715 36.592693
65.720 36.217003
65.725 35.504955
65.730 34.949848
65.735 35.144741
65.740 35.666565
65.745 35.60281
65.750 33.922688
65.755 32.789894
65.760 31.665819
65.765 32.204918
65.770 32.648209
65.775 32.264252
65.780 31.957304
65.785 32.727531
65.790 32.990036
65.795 33.313236
65.800 32.568722
65.805 32.07412
65.810 31.344795
65.815 31.378378
65.820 31.133224
65.825 31.104431
65.830 30.7628
65.835 29.98567
65.840 29.383833
65.845 29.86618
65.850 29.351387
65.855 28.453444
65.860 28.278868
65.865 28.184261
65.870 27.645693
65.875 27.73794
65.880 27.914646
65.885 27.900951
65.890 27.973026
65.895 27.125629
65.900 27.397655
65.905 27.159122
65.910 26.297255
65.915 25.623058
65.920 25.498966
65.925 25.153427
65.930 24.452208
65.935 24.888712
65.940 25.253925
65.945 25.520868
65.950 25.36203
65.955 24.454281
65.960 24.375076
65.965 24.191568
65.970 23.235191
65.975 22.754755
65.980 22.504091
65.985 22.925117
65.990 23.531626
65.995 23.937998
66.000 23.867237
66.005 23.293781
66.010 23.768641
66.015 23.492317
66.020 22.556612
66.025 21.710382
66.030 21.470793
66.035 22.081955
66.040 22.348734
66.045 21.913197
66.050 22.164139
66.055 22.836588
66.060 22.695461
66.065 22.31983
66.070 21.56114
66.075 21.537941
66.080 21.351002
66.085 21.243025
66.090 20.776276
66.095 20.553173
66.100 20.59347
66.105 20.268635
66.110 20.18811
66.115 20.338251
66.120 20.091427
66.125 19.757174
66.130 19.564278
66.135 19.41581
66.140 20.020325
66.145 20.151199
66.150 20.259069
66.155 20.345818
66.160 20.72113
66.165 21.06156
66.170 20.827774
66.175 19.955362
66.180 19.90764
66.185 19.826262
66.190 19.384235
66.195 19.430859
66.200 19.414227
66.205 19.247244
66.210 19.84672
66.215 19.758772
66.220 19.836588
66.225 20.54372
66.230 20.54604
66.235 20.902639
66.240 20.94931
66.245 20.719955
66.250 20.186516
66.255 20.22282
66.260 19.593794
66.265 19.190966
66.270 18.803001
66.275 18.986441
66.280 19.336803
66.285 19.577782
66.290 19.56811
66.295 19.74579
66.300 19.644041
66.305 19.175251
66.310 18.622929
66.315 18.370321
66.320 18.130175
66.325 17.798136
66.330 18.187719
66.335 18.524126
66.340 18.627157
66.345 18.357779
66.350 18.015022
66.355 17.619162
66.360 17.714867
66.365 17.221727
66.370 16.9638
66.375 17.054218
66.380 17.611277
66.385 17.915346
66.390 18.296881
66.395 18.412796
66.400 18.388126
66.405 19.066383
66.410 20.136942
66.415 20.533987
66.420 21.1464
66.425 21.767879
66.430 21.533051
66.435 21.572775
66.440 21.167217
66.445 20.503231
66.450 19.974648
66.455 19.256208
66.460 18.283052
66.465 18.642818
66.470 19.245447
66.475 19.27561
66.480 19.65559
66.485 19.994284
66.490 20.39559
66.495 20.987379
66.500 20.340189
66.505 20.00251
66.510 20.015474
66.515 19.936737
66.520 19.915005
66.525 19.851341
66.530 18.940033
66.535 19.155941
66.540 18.929392
66.545 18.531673
66.550 17.663816
66.555 17.187576
66.560 17.96974
66.565 19.101282
66.570 19.329229
66.575 19.484882
66.580 19.695452
66.585 19.876411
66.590 19.794563
66.595 19.517063
66.600 19.579071
66.605 19.098078
66.610 19.266863
66.615 19.433109
66.620 20.145279
66.625 20.315521
66.630 19.352507
66.635 19.079914
66.640 18.970343
66.645 18.904751
66.650 19.295702
66.655 18.999147
66.660 18.864929
66.665 18.876757
66.670 18.41099
66.675 18.581972
66.680 18.328623
66.685 18.428452
66.690 18.736208
66.695 18.29763
66.700 18.803745
66.705 19.418867
66.710 19.79858
66.715 19.561628
66.720 18.817896
66.725 18.935011
66.730 19.832081
66.735 19.330605
66.740 19.094208
66.745 18.72327
66.750 18.606174
66.755 18.319004
66.760 18.09264
66.765 17.462772
66.770 17.617588
66.775 17.531874
66.780 17.514654
66.785 17.653908
66.790 18.462801
66.795 18.715143
66.800 18.635441
66.805 18.980064
66.810 19.241186
66.815 19.414768
66.820 19.371984
66.825 19.048527
66.830 18.713089
66.835 18.653648
66.840 18.029774
66.845 17.623045
66.850 17.641645
66.855 17.728373
66.860 17.638124
66.865 17.640879
66.870 18.947371
66.875 19.86381
66.880 20.036232
66.885 20.030087
66.890 20.324238
66.895 20.384323
66.900 19.996937
66.905 18.825491
66.910 18.236624
66.915 18.029186
66.920 17.792334
66.925 17.33765
66.930 17.250006
66.935 17.198721
66.940 17.116383
66.945 17.724039
66.950 18.204338
66.955 18.420315
66.960 18.592247
66.965 18.909151
66.970 19.279343
66.975 19.25256
66.980 18.78631
66.985 18.556961
66.990 18.110758
66.995 17.817192
67.000 17.413469
67.005 17.261488
67.010 17.359407
67.015 17.08333
67.020 17.132458
67.025 17.355719
67.030 17.631338
67.035 18.466507
67.040 19.205639
67.045 19.46146
67.050 19.320099
67.055 19.042471
67.060 19.23892
67.065 19.133041
67.070 18.170933
67.075 17.705868
67.080 17.666914
67.085 18.100018
67.090 18.37451
67.095 18.493385
67.100 18.362358
67.105 18.584797
67.110 18.571907
67.115 18.692053
67.120 18.741983
67.125 18.305265
67.130 17.765818
67.135 18.270954
67.140 18.417681
67.145 18.209372
67.150 18.048845
67.155 18.000647
67.160 18.246267
67.165 17.816446
67.170 17.738213
67.175 18.700394
67.180 19.164614
67.185 19.940969
67.190 20.639067
67.195 20.637217
67.200 20.754072
67.205 20.367277
67.210 19.601133
67.215 19.455868
67.220 18.961803
67.225 18.449697
67.230 18.419769
67.235 19.213953
67.240 19.344339
67.245 19.324877
67.250 19.249933
67.255 19.218292
67.260 19.308548
67.265 19.517818
67.270 19.062044
67.275 18.963577
67.280 18.579649
67.285 19.072153
67.290 18.646238
67.295 18.77297
67.300 18.624681
67.305 18.247932
67.310 18.546513
67.315 18.881252
67.320 18.729057
67.325 18.487158
67.330 18.010773
67.335 17.573347
67.340 17.646923
67.345 17.275356
67.350 17.068092
67.355 16.990545
67.360 17.284409
67.365 17.179392
67.370 17.814356
67.375 17.871571
67.380 18.049086
67.385 18.36797
67.390 17.80739
67.395 17.901686
67.400 18.317869
67.405 18.282141
67.410 18.622334
67.415 19.125385
67.420 19.189877
67.425 19.390476
67.430 19.956707
67.435 19.995535
67.440 20.052855
67.445 19.532818
67.450 19.251005
67.455 19.201654
67.460 19.086256
67.465 19.27117
67.470 19.027769
67.475 18.214682
67.480 18.50754
67.485 18.685194
67.490 18.957653
67.495 18.315832
67.500 17.968292
67.505 18.234436
67.510 18.736612
67.515 18.508263
67.520 17.880121
67.525 17.68121
67.530 18.218842
67.535 18.233135
67.540 18.14291
67.545 18.112419
67.550 18.246412
67.555 18.757643
67.560 18.898718
67.565 18.997271
67.570 18.932203
67.575 19.316359
67.580 19.498735
67.585 19.815552
67.590 19.581392
67.595 19.904024
67.600 19.770916
67.605 19.949282
67.610 19.527205
67.615 18.889397
67.620 18.31885
67.625 18.485527
67.630 18.445587
67.635 18.532238
67.640 18.639236
67.645 18.853804
67.650 19.378531
67.655 19.728432
67.660 19.144466
67.665 19.011095
67.670 18.897181
67.675 18.202513
67.680 18.676178
67.685 18.367596
67.690 18.38315
67.695 18.449017
67.700 17.985769
67.705 18.54147
67.710 18.886906
67.715 18.844536
67.720 19.050303
67.725 19.283419
67.730 19.251062
67.735 19.454258
67.740 19.116339
67.745 19.127195
67.750 18.986332
67.755 18.907251
67.760 18.054268
67.765 17.823221
67.770 17.906281
67.775 17.433035
67.780 17.454336
67.785 17.154051
67.790 16.722616
67.795 17.486034
67.800 17.29678
67.805 17.330906
67.810 17.618071
67.815 17.93792
67.820 18.50996
67.825 18.644621
67.830 18.674871
67.835 19.398043
67.840 19.295269
67.845 19.173504
67.850 18.553959
67.855 18.360016
67.860 18.146883
67.865 18.176069
67.870 17.912907
67.875 17.67244
67.880 18.226665
67.885 18.801434
67.890 18.78186
67.895 18.763678
67.900 18.606913
67.905 18.438725
67.910 18.320387
67.915 17.632837
67.920 17.61871
67.925 17.877018
67.930 17.922239
67.935 18.325388
67.940 18.510553
67.945 18.992643
67.950 19.06699
67.955 19.204235
67.960 19.445688
67.965 19.616882
67.970 19.895901
67.975 20.555515
67.980 21.239492
67.985 21.194553
67.990 20.412243
67.995 19.980293
68.000 19.748461
68.005 19.314472
68.010 18.575478
68.015 18.095119
68.020 17.775507
68.025 18.0917
68.030 18.26277
68.035 17.696495
68.040 17.303493
68.045 17.446154
68.050 17.5501
68.055 18.149197
68.060 18.749498
68.065 18.763033
68.070 19.354168
68.075 20.101847
68.080 20.39175
68.085 20.512419
68.090 20.112629
68.095 20.043699
68.100 20.490696
68.105 20.155499
68.110 19.782373
68.115 19.84104
68.120 19.685404
68.125 19.826193
68.130 19.672859
68.135 20.102535
68.140 19.942677
68.145 20.863916
68.150 21.364828
68.155 21.911972
68.160 21.665699
68.165 21.234467
68.170 21.016809
68.175 21.503559
68.180 20.531364
68.185 19.959332
68.190 20.279673
68.195 20.652981
68.200 20.209074
68.205 19.480968
68.210 19.066734
68.215 19.16559
68.220 19.451002
68.225 18.792435
68.230 18.881739
68.235 19.923704
68.240 20.941154
68.245 22.265249
68.250 22.686478
68.255 22.792412
68.260 23.737349
68.265 24.227194
68.270 24.586666
68.275 24.692968
68.280 24.577719
68.285 25.075253
68.290 24.721155
68.295 24.631601
68.300 24.306644
68.305 23.44265
68.310 23.558306
68.315 23.78396
68.320 24.150618
68.325 24.65731
68.330 24.543489
68.335 25.220327
68.340 26.065964
68.345 27.029238
68.350 27.783875
68.355 27.365395
68.360 27.195259
68.365 27.072775
68.370 27.096804
68.375 27.303333
68.380 26.170761
68.385 26.242252
68.390 26.899311
68.395 27.683968
68.400 27.581423
68.405 28.189108
68.410 28.661556
68.415 28.977432
68.420 29.249958
68.425 29.256401
68.430 29.549442
68.435 29.628954
68.440 29.455097
68.445 29.715868
68.450 30.039131
68.455 29.881702
68.460 30.342569
68.465 30.819496
68.470 31.855284
68.475 32.138977
68.480 32.503799
68.485 33.651398
68.490 34.926189
68.495 35.715591
68.500 36.380211
68.505 35.962334
68.510 35.240509
68.515 35.573532
68.520 34.40477
68.525 33.75993
68.530 33.267139
68.535 32.922184
68.540 33.48143
68.545 34.371548
68.550 34.077934
68.555 33.959129
68.560 33.611774
68.565 33.871361
68.570 34.234097
68.575 34.840652
68.580 34.48745
68.585 34.580975
68.590 35.158188
68.595 35.037617
68.600 34.28159
68.605 34.491726
68.610 33.587765
68.615 33.371216
68.620 33.023155
68.625 33.310749
68.630 34.05901
68.635 35.298733
68.640 34.908806
68.645 34.959824
68.650 35.250313
68.655 35.848331
68.660 35.136356
68.665 34.498211
68.670 33.905811
68.675 34.203091
68.680 35.160004
68.685 35.2668
68.690 35.741966
68.695 36.780582
68.700 36.968479
68.705 36.989365
68.710 36.796276
68.715 36.642975
68.720 35.737625
68.725 35.242985
68.730 34.720882
68.735 34.492718
68.740 34.888798
68.745 35.192242
68.750 35.497017
68.755 36.509892
68.760 37.067066
68.765 37.707279
68.770 38.181526
68.775 37.647034
68.780 36.736267
68.785 36.154289
68.790 35.62603
68.795 35.792503
68.800 35.642731
68.805 35.861679
68.810 36.25996
68.815 36.424091
68.820 36.305786
68.825 36.446823
68.830 36.156883
68.835 35.663445
68.840 34.829842
68.845 34.241814
68.850 34.119717
68.855 33.291012
68.860 32.769268
68.865 32.395218
68.870 32.698151
68.875 32.639164
68.880 32.384693
68.885 32.155346
68.890 31.888561
68.895 31.639257
68.900 30.994587
68.905 30.627222
68.910 31.433418
68.915 31.595915
68.920 32.126076
68.925 33.248386
68.930 32.697983
68.935 32.693016
68.940 32.582588
68.945 31.094917
68.950 31.761274
68.955 31.548716
68.960 31.856733
68.965 31.659103
68.970 32.017784
68.975 32.334885
68.980 32.910629
68.985 31.838215
68.990 31.795635
68.995 31.29845
69.000 31.5602
69.005 31.199747
69.010 30.513762
69.015 30.713488
69.020 30.699718
69.025 30.82102
69.030 30.130116
69.035 29.318047
69.040 28.976458
69.045 28.893751
69.050 28.100197
69.055 27.765934
69.060 27.626717
69.065 27.983595
69.070 28.163805
69.075 27.965265
69.080 27.74439
69.085 27.89192
69.090 28.172781
69.095 27.986988
69.100 28.100389
69.105 27.506166
69.110 26.751041
69.115 27.579346
69.120 27.37443
69.125 26.568188
69.130 25.562378
69.135 25.183275
69.140 25.216661
69.145 25.24361
69.150 24.331276
69.155 24.371904
69.160 24.440975
69.165 24.94211
69.170 25.318571
69.175 25.819069
69.180 25.90382
69.185 25.934347
69.190 25.44483
69.195 25.195135
69.200 24.366787
69.205 23.7227
69.210 22.844141
69.215 22.024345
69.220 21.497343
69.225 21.579617
69.230 21.468405
69.235 21.718163
69.240 21.36393
69.245 20.915131
69.250 20.558962
69.255 20.072111
69.260 19.804914
69.265 20.019772
69.270 19.935808
69.275 19.945137
69.280 19.754774
69.285 19.383793
69.290 19.616201
69.295 20.146385
69.300 20.086588
69.305 20.277309
69.310 20.000492
69.315 20.26156
69.320 20.54771
69.325 20.706509
69.330 20.297953
69.335 19.756294
69.340 19.313831
69.345 19.270506
69.350 19.105488
69.355 19.910542
69.360 19.451981
69.365 19.323521
69.370 19.57464
69.375 19.618959
69.380 20.007381
69.385 20.380487
69.390 19.448301
69.395 19.332218
69.400 18.99818
69.405 18.815334
69.410 18.530161
69.415 18.495138
69.420 18.088575
69.425 18.786739
69.430 19.704424
69.435 20.077765
69.440 20.193361
69.445 20.601198
69.450 20.594681
69.455 20.754183
69.460 19.78628
69.465 19.07464
69.470 18.79677
69.475 18.809349
69.480 18.322674
69.485 18.108183
69.490 18.61092
69.495 18.889753
69.500 19.096663
69.505 18.860994
69.510 18.800369
69.515 19.339884
69.520 19.884281
69.525 20.095293
69.530 20.240664
69.535 20.472019
69.540 20.688112
69.545 20.466253
69.550 20.216785
69.555 19.863045
69.560 19.557642
69.565 19.694304
69.570 19.434114
69.575 20.087122
69.580 19.92927
69.585 19.344763
69.590 19.961079
69.595 19.982113
69.600 19.757751
69.605 19.961288
69.610 19.716476
69.615 19.894842
69.620 20.039906
69.625 18.858156
69.630 19.086298
69.635 19.257692
69.640 18.952761
69.645 18.889647
69.650 19.002748
69.655 18.826267
69.660 18.698978
69.665 18.296749
69.670 17.85689
69.675 17.710554
69.680 17.919985
69.685 18.118559
69.690 18.360571
69.695 18.077871
69.700 17.852335
69.705 18.02672
69.710 17.814238
69.715 17.304073
69.720 17.496874
69.725 17.785273
69.730 17.912661
69.735 18.005999
69.740 17.90806
69.745 18.461624
69.750 18.569706
69.755 18.165213
69.760 17.79188
69.765 17.343727
69.770 17.745735
69.775 17.837633
69.780 17.720455
69.785 17.787373
69.790 18.050549
69.795 19.023321
69.800 19.852478
69.805 20.050714
69.810 20.11511
69.815 20.225124
69.820 20.673876
69.825 20.461908
69.830 19.658548
69.835 19.402863
69.840 18.900816
69.845 18.421511
69.850 17.957979
69.855 17.875591
69.860 18.329643
69.865 18.24337
69.870 18.032177
69.875 18.588623
69.880 19.230883
69.885 19.384054
69.890 19.07711
69.895 19.694366
69.900 19.866659
69.905 20.459715
69.910 20.167953
69.915 20.09157
69.920 19.876642
69.925 19.451185
69.930 18.406775
69.935 18.897976
69.940 18.337212
69.945 17.838301
69.950 17.652222
69.955 17.880381
69.960 18.080389
69.965 17.665499
69.970 17.387056
69.975 18.076681
69.980 18.502939
69.985 18.818583
69.990 18.617193
69.995 18.910801
70.000 19.094784
70.005 19.026314
70.010 18.743073
70.015 18.40414
70.020 18.05925
70.025 18.246061
70.030 18.352091
70.035 18.775942
70.040 18.50613
70.045 18.541481
70.050 18.700127
70.055 18.731619
70.060 18.210003
70.065 18.22571
70.070 18.28138
70.075 18.381872
70.080 18.31819
70.085 18.924419
70.090 18.788893
70.095 18.99744
70.100 19.014265
70.105 18.924162
70.110 18.550774
70.115 18.499434
70.120 18.035145
70.125 18.420406
70.130 18.310869
70.135 18.256439
70.140 18.905674
70.145 19.746128
70.150 19.688923
70.155 19.384712
70.160 19.438728
70.165 19.314045
70.170 19.430363
70.175 18.901236
70.180 19.458817
70.185 19.801054
70.190 19.77964
70.195 18.98563
70.200 18.870079
70.205 18.865326
70.210 18.416931
70.215 17.712376
70.220 17.599312
70.225 17.870085
70.230 18.361912
70.235 18.313608
70.240 18.087223
70.245 18.979233
70.250 19.28977
70.255 19.559059
70.260 19.837179
70.265 19.593498
70.270 19.944912
70.275 19.517908
70.280 18.906582
70.285 18.65571
70.290 18.874548
70.295 18.357199
70.300 18.569605
70.305 18.684652
70.310 19.055502
70.315 18.873268
70.320 18.604973
70.325 18.289272
70.330 18.184492
70.335 17.702122
70.340 17.424761
70.345 17.286421
70.350 17.658474
70.355 17.282959
70.360 16.927414
70.365 17.645792
70.370 17.72654
70.375 17.647116
70.380 17.708529
70.385 17.832537
70.390 18.014824
70.395 18.493832
70.400 18.870642
70.405 18.842691
70.410 18.892166
70.415 17.919279
70.420 17.401836
70.425 17.195061
70.430 17.110115
70.435 17.148193
70.440 17.412958
70.445 17.404881
70.450 18.266848
70.455 19.077036
70.460 19.29216
70.465 18.926895
70.470 18.690769
70.475 18.3162
70.480 18.652052
70.485 18.962887
70.490 18.322941
70.495 18.551596
70.500 18.598721
70.505 18.571959
70.510 18.381271
70.515 17.76034
70.520 16.987177
70.525 16.776321
70.530 16.65938
70.535 16.561689
70.540 16.754972
70.545 17.424856
70.550 17.551888
70.555 18.013662
70.560 18.307981
70.565 18.087002
70.570 17.830704
70.575 17.428579
70.580 17.767118
70.585 18.278763
70.590 18.214138
70.595 18.297918
70.600 18.456491
70.605 18.76449
70.610 18.786245
70.615 18.867043
70.620 19.023586
70.625 19.164759
70.630 19.545111
70.635 19.892223
70.640 19.789541
70.645 19.878271
70.650 18.991076
70.655 18.632366
70.660 18.137495
70.665 17.439198
70.670 17.256382
70.675 16.911745
70.680 17.498461
70.685 17.947618
70.690 17.895176
70.695 18.616037
70.700 18.903267
70.705 19.078522
70.710 19.34882
70.715 19.402212
70.720 19.985136
70.725 19.498531
70.730 18.584465
70.735 18.052237
70.740 17.88266
70.745 16.693151
70.750 15.792098
70.755 15.468859
70.760 15.734259
70.765 16.113394
70.770 16.878433
70.775 17.452795
70.780 18.365374
70.785 18.473295
70.790 18.805037
70.795 18.78516
70.800 18.882725
70.805 18.401806
70.810 17.838791
70.815 17.422016
70.820 17.555016
70.825 17.555134
70.830 17.096422
70.835 16.924099
70.840 17.190712
70.845 17.951511
70.850 18.382517
70.855 17.251221
70.860 17.132732
70.865 17.348169
70.870 17.749378
70.875 17.805111
70.880 17.485085
70.885 17.446856
70.890 17.898939
70.895 17.949551
70.900 17.72732
70.905 17.365131
70.910 17.267797
70.915 17.174171
70.920 17.248022
70.925 17.273191
70.930 17.335695
70.935 17.801746
70.940 17.967579
70.945 17.424965
70.950 17.451113
70.955 17.396685
70.960 17.56093
70.965 18.134354
70.970 18.057072
70.975 17.976887
70.980 18.488115
70.985 18.662443
70.990 18.815271
70.995 18.53096
71.000 18.146433
71.005 18.106266
71.010 18.500141
71.015 17.994156
71.020 17.78912
71.025 17.944422
71.030 18.048758
71.035 18.094334
71.040 18.046284
71.045 18.335985
71.050 18.586946
71.055 18.858643
71.060 18.94241
71.065 19.002178
71.070 18.856085
71.075 18.591545
71.080 18.618883
71.085 18.997425
71.090 19.259871
71.095 19.949142
71.100 19.704008
71.105 20.168909
71.110 19.984308
71.115 19.442385
71.120 18.679861
71.125 18.241503
71.130 18.031366
71.135 18.41221
71.140 18.320147
71.145 17.731674
71.150 18.263557
71.155 18.946705
71.160 18.347878
71.165 18.703276
71.170 18.658543
71.175 18.733047
71.180 19.226624
71.185 18.80953
71.190 18.394533
71.195 18.596485
71.200 17.471718
71.205 17.46253
71.210 17.586685
71.215 17.715944
71.220 17.844852
71.225 18.19466
71.230 18.135885
71.235 18.140249
71.240 18.214832
71.245 18.204329
71.250 17.964371
71.255 18.026779
71.260 17.957247
71.265 18.348627
71.270 18.607656
71.275 18.735304
71.280 19.013313
71.285 19.378736
71.290 19.118839
71.295 19.245853
71.300 19.52927
71.305 19.174919
71.310 19.114563
71.315 19.032318
71.320 19.153769
71.325 19.350065
71.330 19.181131
71.335 19.547773
71.340 19.582487
71.345 19.510141
71.350 19.320442
71.355 18.924784
71.360 19.000374
71.365 19.51248
71.370 20.095577
71.375 20.537718
71.380 20.519123
71.385 20.719807
71.390 20.888113
71.395 20.252005
71.400 20.022379
71.405 19.399584
71.410 19.173462
71.415 19.14739
71.420 19.078398
71.425 19.050533
71.430 19.473984
71.435 18.937754
71.440 18.410503
71.445 18.208889
71.450 18.21957
71.455 18.24675
71.460 17.983145
71.465 17.687185
71.470 17.708715
71.475 18.059887
71.480 18.67491
71.485 18.443781
71.490 18.076363
71.495 18.322124
71.500 18.445839
71.505 18.37282
71.510 17.987677
71.515 17.240593
71.520 18.017786
71.525 18.107632
71.530 17.448784
71.535 17.289469
71.540 17.108274
71.545 17.573088
71.550 18.005106
71.555 17.883478
71.560 17.77676
71.565 17.901587
71.570 17.916744
71.575 17.418171
71.580 17.781565
71.585 17.83457
71.590 17.446068
71.595 17.82152
71.600 17.889679
71.605 17.67852
71.610 18.242897
71.615 17.278839
71.620 16.67581
71.625 16.996866
71.630 17.42079
71.635 17.840494
71.640 18.045572
71.645 17.762798
71.650 17.853525
71.655 18.526976
71.660 18.603741
71.665 18.355213
71.670 18.265642
71.675 18.517384
71.680 18.839788
71.685 19.56229
71.690 19.421263
71.695 19.299376
71.700 19.392822
71.705 19.274242
71.710 18.945652
71.715 18.497011
71.720 18.059916
71.725 17.802708
71.730 17.743578
71.735 17.518711
71.740 17.202421
71.745 17.602211
71.750 18.251524
71.755 18.558107
71.760 18.804937
71.765 18.548061
71.770 18.972309
71.775 18.960642
71.780 18.870903
71.785 18.394068
71.790 18.03281
71.795 17.880211
71.800 18.188223
71.805 18.20344
71.810 18.85281
71.815 19.178938
71.820 19.006681
71.825 18.814381
71.830 19.323503
71.835 19.116465
71.840 18.898182
71.845 18.153221
71.850 17.865919
71.855 17.829014
71.860 17.011351
71.865 16.697357
71.870 16.77751
71.875 17.18219
71.880 17.207392
71.885 16.976645
71.890 17.023626
71.895 17.35214
71.900 17.96439
71.905 17.925497
71.910 17.914848
71.915 17.950485
71.920 17.644426
71.925 17.766527
71.930 17.612415
71.935 17.016172
71.940 17.134577
71.945 17.310305
71.950 17.886185
71.955 18.301212
71.960 18.651335
71.965 18.493679
71.970 18.253019
71.975 18.240673
71.980 17.76383
71.985 17.651785
71.990 17.336836
71.995 17.198841
72.000 17.217926
72.005 16.968277
72.010 16.868118
72.015 16.550135
72.020 17.02339
72.025 18.21797
72.030 18.383469
72.035 18.112768
72.040 18.147232
72.045 18.025152
72.050 18.138706
72.055 17.203638
72.060 16.492388
72.065 16.543726
72.070 16.832146
72.075 17.165062
72.080 17.038534
72.085 16.889507
72.090 17.60549
72.095 17.897013
72.100 18.095392
72.105 17.960863
72.110 17.554541
72.115 17.416817
72.120 18.119501
72.125 17.482027
72.130 17.107529
72.135 16.940006
72.140 17.220768
72.145 18.063496
72.150 18.446943
72.155 17.807125
72.160 17.815248
72.165 17.964294
72.170 18.008665
72.175 17.762302
72.180 17.352057
72.185 17.574619
72.190 17.751204
72.195 18.735687
72.200 19.263948
72.205 19.999498
72.210 20.471563
72.215 20.437437
72.220 20.076658
72.225 19.308512
72.230 18.443241
72.235 17.581888
72.240 16.952017
72.245 16.95434
72.250 16.635382
72.255 16.68799
72.260 17.364338
72.265 17.798281
72.270 17.952396
72.275 17.689104
72.280 17.836786
72.285 18.389107
72.290 18.287186
72.295 18.34428
72.300 18.252804
72.305 18.300779
72.310 18.429251
72.315 18.259714
72.320 18.58098
72.325 18.602617
72.330 18.269047
72.335 18.546551
72.340 18.654911
72.345 18.303938
72.350 17.687485
72.355 17.629496
72.360 17.990856
72.365 18.197868
72.370 18.240637
72.375 18.269016
72.380 18.702461
72.385 18.287813
72.390 17.536291
72.395 16.807617
72.400 16.329601
72.405 15.889045
72.410 15.508898
72.415 15.922165
72.420 16.560144
72.425 16.581276
72.430 16.927713
72.435 17.17968
72.440 17.404581
72.445 17.552509
72.450 17.212513
72.455 17.459515
72.460 17.81926
72.465 17.809416
72.470 17.865368
72.475 18.650087
72.480 19.006691
72.485 18.781542
72.490 18.560118
72.495 18.064445
72.500 18.006479
72.505 17.73657
72.510 17.089487
72.515 17.229877
72.520 18.248915
72.525 18.774988
72.530 19.014727
72.535 18.782757
72.540 18.418047
72.545 18.177999
72.550 17.913246
72.555 17.43281
72.560 17.64567
72.565 17.801683
72.570 18.63909
72.575 18.743032
72.580 19.114979
72.585 19.217705
72.590 18.884422
72.595 18.862385
72.600 19.022224
72.605 19.08217
72.610 18.972233
72.615 18.57954
72.620 17.782537
72.625 17.986837
72.630 17.600599
72.635 17.254183
72.640 17.536497
72.645 18.037865
72.650 18.414862
72.655 18.198606
72.660 17.541533
72.665 17.721682
72.670 17.292664
72.675 16.665972
72.680 16.445724
72.685 16.126057
72.690 16.703325
72.695 16.959515
72.700 16.619013
72.705 16.688189
72.710 16.525927
72.715 16.526943
72.720 16.879412
72.725 16.40863
72.730 16.443087
72.735 16.49151
72.740 16.404215
72.745 16.204342
72.750 16.128088
72.755 15.64245
72.760 15.606949
72.765 16.046602
72.770 16.342508
72.775 17.273109
72.780 16.917713
72.785 16.821157
72.790 16.543768
72.795 16.607733
72.800 16.807932
72.805 16.590075
72.810 16.498446
72.815 17.28241
72.820 17.843952
72.825 17.795071
72.830 17.566338
72.835 17.071394
72.840 16.660759
72.845 16.553083
72.850 16.503908
72.855 16.268097
72.860 16.052004
72.865 16.093969
72.870 16.404148
72.875 16.47769
72.880 16.459698
72.885 16.66745
72.890 17.13533
72.895 17.617031
72.900 17.800508
72.905 17.676889
72.910 17.502615
72.915 17.584978
72.920 17.31081
72.925 17.225863
72.930 16.779989
72.935 15.970406
72.940 16.293995
72.945 15.935553
72.950 15.310182
72.955 15.404083
72.960 15.420124
72.965 15.888288
72.970 16.020182
72.975 16.325779
72.980 17.021727
72.985 17.064661
72.990 17.144533
72.995 17.745886
73.000 18.378191
