!@!!GADDS PLOTSO FILE: Chi integration type
!@!!Title/SampleName: map-b8
!@!!Comment: ?
!@!!User: Bruker Instrument Administrator
!@!!Site: University of Illinois Chicago
!@!!Frame: map-b8_01_000.gfrm
!@!!Wavelengths    1.54184   1.54056   1.54439
!@!!Frame angles: 2Theta: 63.000 Omega: 50.000 Phi: 0.000 Chi: 90.000
!@!!Integration range: 2Theta: 53.000 to 73.000  Gamma: -105.000 to -75.000
!@!!Integration method: bin normalized
!@!N
!@!SS
!@!M
!@!L 0.0 0.0 0.0 0.0
!@!XDegrees
!@!YCounts
53.000 7.302912
53.005 7.708716
53.010 7.77158
53.015 7.779823
53.020 7.969944
53.025 7.971287
53.030 7.983803
53.035 8.009915
53.040 8.053979
53.045 8.171104
53.050 7.930148
53.055 7.619559
53.060 7.909264
53.065 8.330193
53.070 7.780033
53.075 7.493471
53.080 7.21368
53.085 7.211037
53.090 7.392235
53.095 6.851166
53.100 6.613082
53.105 6.624854
53.110 6.640786
53.115 7.025811
53.120 7.323906
53.125 7.396039
53.130 7.707731
53.135 7.838488
53.140 7.677582
53.145 7.406284
53.150 6.898168
53.155 6.579171
53.160 6.143516
53.165 6.034145
53.170 6.472843
53.175 6.886963
53.180 7.105587
53.185 7.349587
53.190 7.661778
53.195 8.012016
53.200 7.975214
53.205 7.497349
53.210 7.375298
53.215 7.208213
53.220 7.241953
53.225 7.380312
53.230 7.405697
53.235 7.531977
53.240 7.836159
53.245 7.76847
53.250 7.724682
53.255 7.934663
53.260 7.845475
53.265 7.539485
53.270 7.373403
53.275 7.589511
53.280 8.129464
53.285 8.18188
53.290 8.013169
53.295 7.908157
53.300 7.918433
53.305 7.971745
53.310 7.75077
53.315 7.771065
53.320 8.087152
53.325 7.782799
53.330 8.304079
53.335 8.749083
53.340 8.981154
53.345 8.882804
53.350 8.446454
53.355 8.257995
53.360 8.956616
53.365 8.552949
53.370 8.294312
53.375 8.42187
53.380 8.657566
53.385 8.753915
53.390 8.593502
53.395 8.370686
53.400 8.428031
53.405 8.20851
53.410 7.866498
53.415 7.744097
53.420 7.809895
53.425 7.642107
53.430 7.834753
53.435 8.299493
53.440 8.040586
53.445 8.069919
53.450 8.146058
53.455 8.238367
53.460 8.269241
53.465 8.094368
53.470 7.807479
53.475 7.880394
53.480 7.450221
53.485 7.343952
53.490 7.718742
53.495 7.625308
53.500 7.351963
53.505 7.317406
53.510 7.34093
53.515 7.77024
53.520 7.893576
53.525 7.634042
53.530 7.407177
53.535 7.984461
53.540 8.348207
53.545 8.344049
53.550 8.15476
53.555 8.24478
53.560 8.575831
53.565 8.715488
53.570 8.662132
53.575 8.889949
53.580 9.205393
53.585 9.086765
53.590 8.595023
53.595 8.447549
53.600 8.422203
53.605 8.113074
53.610 8.168126
53.615 8.333765
53.620 8.864677
53.625 8.764766
53.630 8.775706
53.635 8.916821
53.640 8.61301
53.645 8.086596
53.650 7.430492
53.655 7.374398
53.660 7.948058
53.665 7.771419
53.670 7.771397
53.675 7.85867
53.680 8.034891
53.685 8.30229
53.690 7.663245
53.695 7.475286
53.700 7.52426
53.705 7.976947
53.710 8.080051
53.715 8.026383
53.720 8.123145
53.725 8.52068
53.730 8.383068
53.735 8.364078
53.740 7.812614
53.745 7.95112
53.750 8.144328
53.755 8.549276
53.760 8.626094
53.765 8.610298
53.770 8.765188
53.775 8.468422
53.780 8.442046
53.785 8.107643
53.790 7.829684
53.795 8.170783
53.800 7.770117
53.805 7.919883
53.810 7.940033
53.815 7.679097
53.820 7.593016
53.825 7.141492
53.830 7.133812
53.835 7.052283
53.840 6.84084
53.845 7.114955
53.850 7.224511
53.855 7.355132
53.860 7.39705
53.865 7.375931
53.870 7.837502
53.875 7.542932
53.880 7.604734
53.885 7.950928
53.890 7.789215
53.895 8.202958
53.900 8.203387
53.905 8.374936
53.910 9.034706
53.915 8.985273
53.920 8.824407
53.925 9.243055
53.930 9.389361
53.935 9.669207
53.940 9.627295
53.945 9.598033
53.950 9.713643
53.955 10.398748
53.960 10.093836
53.965 9.813776
53.970 9.209977
53.975 9.142568
53.980 8.88242
53.985 8.591457
53.990 8.129363
53.995 8.004176
54.000 8.361972
54.005 8.474851
54.010 8.373459
54.015 8.671898
54.020 9.077415
54.025 9.127536
54.030 9.171653
54.035 9.187
54.040 9.571963
54.045 9.704189
54.050 9.202916
54.055 8.974599
54.060 9.225072
54.065 9.491694
54.070 9.538548
54.075 9.113927
54.080 8.835387
54.085 9.163502
54.090 9.241563
54.095 9.217612
54.100 8.810822
54.105 8.664048
54.110 8.90896
54.115 9.179934
54.120 8.837325
54.125 8.336495
54.130 8.136301
54.135 8.200273
54.140 8.145336
54.145 8.26177
54.150 8.205065
54.155 8.419224
54.160 8.787831
54.165 8.751832
54.170 9.224453
54.175 9.535736
54.180 9.210219
54.185 9.336337
54.190 9.386322
54.195 9.436124
54.200 9.728868
54.205 9.469244
54.210 9.675397
54.215 10.026546
54.220 10.051903
54.225 10.005863
54.230 10.137039
54.235 10.269737
54.240 9.934925
54.245 10.126989
54.250 10.359907
54.255 10.711746
54.260 10.700924
54.265 10.198561
54.270 9.87352
54.275 9.728522
54.280 9.199496
54.285 8.847518
54.290 8.110548
54.295 8.063896
54.300 8.307808
54.305 8.151118
54.310 8.354697
54.315 8.092027
54.320 8.117485
54.325 8.306871
54.330 8.219209
54.335 8.326226
54.340 8.684078
54.345 8.733234
54.350 8.671963
54.355 8.575853
54.360 8.989241
54.365 9.226738
54.370 9.04146
54.375 9.138733
54.380 9.232119
54.385 9.172525
54.390 9.037859
54.395 8.55617
54.400 8.084571
54.405 7.852813
54.410 8.002399
54.415 8.124473
54.420 8.406562
54.425 8.778998
54.430 8.819177
54.435 9.109985
54.440 9.396353
54.445 9.523746
54.450 9.483352
54.455 9.152839
54.460 8.847862
54.465 8.644468
54.470 8.29229
54.475 7.619884
54.480 7.120864
54.485 7.282864
54.490 7.528307
54.495 7.765966
54.500 8.087464
54.505 8.788989
54.510 9.194414
54.515 9.558398
54.520 9.880879
54.525 10.521315
54.530 10.876392
54.535 11.075277
54.540 10.74656
54.545 10.862118
54.550 10.566487
54.555 10.387551
54.560 9.995143
54.565 9.85724
54.570 9.685752
54.575 9.865917
54.580 9.444584
54.585 9.565265
54.590 9.337045
54.595 9.355352
54.600 9.33472
54.605 8.968599
54.610 8.780953
54.615 9.364362
54.620 9.19962
54.625 8.962806
54.630 8.898598
54.635 9.237502
54.640 9.310353
54.645 9.221134
54.650 8.828259
54.655 8.843292
54.660 8.781278
54.665 8.543806
54.670 8.77409
54.675 9.501747
54.680 9.507123
54.685 9.111409
54.690 9.211563
54.695 9.390699
54.700 9.496962
54.705 8.943065
54.710 8.756694
54.715 9.072799
54.720 9.053871
54.725 9.062061
54.730 9.284057
54.735 9.322463
54.740 9.345566
54.745 9.088724
54.750 9.20629
54.755 9.914087
54.760 9.967393
54.765 9.536465
54.770 9.607736
54.775 9.292961
54.780 9.868494
54.785 9.723634
54.790 9.181326
54.795 9.378573
54.800 9.744142
54.805 9.635926
54.810 9.622502
54.815 9.638551
54.820 9.837368
54.825 9.877823
54.830 9.592323
54.835 9.349725
54.840 9.740217
54.845 9.977151
54.850 9.82405
54.855 9.766371
54.860 9.975092
54.865 10.455688
54.870 10.604094
54.875 10.360421
54.880 10.471903
54.885 10.34244
54.890 10.581258
54.895 10.486825
54.900 10.113615
54.905 10.06778
54.910 10.136789
54.915 10.205215
54.920 10.35853
54.925 10.080983
54.930 10.208049
54.935 10.328847
54.940 10.257357
54.945 10.001157
54.950 9.881151
54.955 9.580557
54.960 9.567467
54.965 9.428005
54.970 9.363531
54.975 9.377964
54.980 9.470478
54.985 9.433433
54.990 9.30728
54.995 9.809835
55.000 9.822347
55.005 9.761266
55.010 9.802265
55.015 9.952789
55.020 10.33112
55.025 10.175986
55.030 9.960241
55.035 9.916676
55.040 10.239906
55.045 10.222358
55.050 10.033089
55.055 9.763075
55.060 10.25893
55.065 9.881698
55.070 10.2089
55.075 10.183074
55.080 10.396327
55.085 10.202111
55.090 10.162983
55.095 10.339571
55.100 10.677854
55.105 10.878437
55.110 10.808203
55.115 10.737588
55.120 11.069748
55.125 10.982981
55.130 10.850953
55.135 10.671828
55.140 10.516325
55.145 10.597508
55.150 10.735743
55.155 10.740948
55.160 10.830181
55.165 10.602056
55.170 10.484576
55.175 10.496349
55.180 10.468865
55.185 10.260185
55.190 10.059385
55.195 9.920753
55.200 9.821854
55.205 9.592399
55.210 9.343138
55.215 9.667597
55.220 9.437847
55.225 9.477429
55.230 9.763693
55.235 10.029803
55.240 10.135684
55.245 9.920823
55.250 9.472657
55.255 9.786797
55.260 9.484754
55.265 9.264938
55.270 9.271358
55.275 9.382754
55.280 9.772724
55.285 9.800759
55.290 9.819634
55.295 10.210257
55.300 9.837658
55.305 9.416802
55.310 9.185722
55.315 8.852853
55.320 8.843103
55.325 8.875013
55.330 8.987176
55.335 9.417526
55.340 10.199853
55.345 10.359243
55.350 10.736563
55.355 10.71632
55.360 10.586889
55.365 10.356008
55.370 9.909972
55.375 9.359927
55.380 9.589158
55.385 9.512683
55.390 9.601996
55.395 9.519735
55.400 9.946158
55.405 10.344357
55.410 10.650886
55.415 10.513434
55.420 10.218533
55.425 10.303103
55.430 10.409075
55.435 9.98847
55.440 9.749491
55.445 9.340586
55.450 9.30303
55.455 9.446834
55.460 9.425611
55.465 9.632637
55.470 9.488752
55.475 9.584835
55.480 9.604914
55.485 9.598788
55.490 9.824404
55.495 10.274045
55.500 10.666645
55.505 11.109605
55.510 11.394727
55.515 11.466022
55.520 11.653995
55.525 11.329939
55.530 10.43022
55.535 10.223224
55.540 10.060636
55.545 9.848281
55.550 9.934708
55.555 9.666615
55.560 10.106109
55.565 10.557047
55.570 11.040604
55.575 11.058373
55.580 10.931636
55.585 10.842787
55.590 11.199188
55.595 10.887863
55.600 10.298278
55.605 9.512229
55.610 9.63202
55.615 9.709547
55.620 9.783406
55.625 9.644605
55.630 9.609248
55.635 9.516852
55.640 9.713752
55.645 10.070499
55.650 10.169116
55.655 9.972048
55.660 9.723647
55.665 10.306181
55.670 10.992072
55.675 10.556664
55.680 10.435344
55.685 10.817637
55.690 10.892499
55.695 11.297822
55.700 10.749856
55.705 10.291568
55.710 10.713846
55.715 10.838292
55.720 10.469419
55.725 10.073267
55.730 9.487022
55.735 9.319526
55.740 9.503743
55.745 9.696699
55.750 9.69141
55.755 10.105732
55.760 10.376524
55.765 11.683258
55.770 11.982377
55.775 12.175749
55.780 11.978987
55.785 12.079216
55.790 11.875989
55.795 11.586563
55.800 10.85168
55.805 10.552324
55.810 10.773549
55.815 10.427961
55.820 10.072127
55.825 10.229147
55.830 10.360046
55.835 10.698776
55.840 10.817812
55.845 10.493498
55.850 10.965548
55.855 11.042234
55.860 11.287461
55.865 11.437968
55.870 11.628683
55.875 11.768503
55.880 11.506985
55.885 11.203548
55.890 11.286507
55.895 11.300793
55.900 10.905426
55.905 10.078336
55.910 9.846976
55.915 10.207896
55.920 10.175328
55.925 10.29437
55.930 10.424662
55.935 10.652152
55.940 11.021006
55.945 11.065888
55.950 10.915617
55.955 10.989055
55.960 10.45436
55.965 10.381639
55.970 10.530564
55.975 10.548173
55.980 10.539612
55.985 10.410867
55.990 10.490314
55.995 10.58704
56.000 10.164619
56.005 9.885863
56.010 9.777444
56.015 9.484817
56.020 9.460855
56.025 9.32055
56.030 9.598288
56.035 9.557856
56.040 9.154807
56.045 9.374437
56.050 9.959035
56.055 9.87862
56.060 9.7193
56.065 9.961012
56.070 10.489171
56.075 10.712581
56.080 10.960047
56.085 10.421106
56.090 10.415298
56.095 10.327663
56.100 9.764662
56.105 9.606506
56.110 9.834168
56.115 9.966261
56.120 10.38581
56.125 10.716414
56.130 10.805187
56.135 10.939225
56.140 11.246709
56.145 11.714005
56.150 11.780467
56.155 11.998732
56.160 12.018059
56.165 12.361269
56.170 12.724598
56.175 12.673684
56.180 12.223557
56.185 11.968916
56.190 11.97756
56.195 12.08235
56.200 11.916238
56.205 11.693135
56.210 11.528172
56.215 11.798885
56.220 11.806075
56.225 12.20202
56.230 12.543911
56.235 12.649836
56.240 12.917294
56.245 13.154163
56.250 12.933543
56.255 12.748798
56.260 11.847223
56.265 11.309358
56.270 11.203541
56.275 10.824544
56.280 10.666567
56.285 10.275014
56.290 10.204844
56.295 10.468672
56.300 10.252909
56.305 10.37861
56.310 10.519798
56.315 10.813059
56.320 11.631254
56.325 11.615649
56.330 11.472898
56.335 11.819866
56.340 11.499034
56.345 11.58799
56.350 11.499567
56.355 11.334343
56.360 11.796583
56.365 11.815958
56.370 11.630394
56.375 11.718194
56.380 11.298194
56.385 10.804058
56.390 10.475323
56.395 9.967123
56.400 10.036604
56.405 10.131029
56.410 9.886913
56.415 10.172285
56.420 10.506965
56.425 11.065346
56.430 11.688537
56.435 11.599809
56.440 12.10623
56.445 12.3096
56.450 12.248605
56.455 11.611329
56.460 11.311667
56.465 11.072951
56.470 11.177784
56.475 11.197669
56.480 11.221208
56.485 11.302924
56.490 12.213844
56.495 12.395016
56.500 12.419036
56.505 12.306602
56.510 12.323391
56.515 12.093781
56.520 12.022952
56.525 11.824933
56.530 11.522658
56.535 11.414451
56.540 10.941843
56.545 10.804184
56.550 11.275293
56.555 11.290467
56.560 11.481283
56.565 11.735561
56.570 12.423819
56.575 12.819978
56.580 12.988422
56.585 12.712743
56.590 13.006045
56.595 12.899993
56.600 12.615012
56.605 12.384165
56.610 12.214187
56.615 12.241453
56.620 12.62606
56.625 12.187594
56.630 12.391726
56.635 12.179319
56.640 11.967254
56.645 11.951213
56.650 11.636325
56.655 11.474348
56.660 11.483499
56.665 11.55609
56.670 11.848495
56.675 12.023025
56.680 12.61374
56.685 13.389162
56.690 13.95238
56.695 14.734187
56.700 14.809778
56.705 14.792028
56.710 14.724319
56.715 14.602649
56.720 13.813144
56.725 13.451201
56.730 12.858832
56.735 12.27206
56.740 12.006044
56.745 12.043423
56.750 11.662649
56.755 11.882099
56.760 11.59989
56.765 11.249599
56.770 11.810052
56.775 11.652309
56.780 11.306041
56.785 11.364547
56.790 11.232876
56.795 11.719084
56.800 12.037059
56.805 12.071524
56.810 12.443402
56.815 12.218322
56.820 11.95771
56.825 12.097952
56.830 11.571101
56.835 11.61468
56.840 12.030935
56.845 12.150928
56.850 12.473014
56.855 12.255294
56.860 12.126862
56.865 12.876684
56.870 13.046258
56.875 12.218022
56.880 11.722246
56.885 11.602318
56.890 11.955481
56.895 11.885515
56.900 10.750119
56.905 10.135239
56.910 10.114927
56.915 10.344204
56.920 10.550427
56.925 10.674875
56.930 10.802263
56.935 11.302873
56.940 11.895299
56.945 12.38731
56.950 12.426567
56.955 12.268141
56.960 12.58936
56.965 13.042582
56.970 13.383549
56.975 13.370203
56.980 13.598808
56.985 13.959272
56.990 13.59184
56.995 13.152232
57.000 12.873976
57.005 12.60609
57.010 12.22977
57.015 12.063629
57.020 11.739613
57.025 11.904852
57.030 11.840652
57.035 11.420551
57.040 11.297838
57.045 11.436672
57.050 11.099217
57.055 11.382268
57.060 11.644935
57.065 11.866046
57.070 11.863379
57.075 12.047151
57.080 12.45454
57.085 12.802127
57.090 12.641862
57.095 12.823667
57.100 12.956433
57.105 13.19475
57.110 13.171706
57.115 12.856764
57.120 12.336192
57.125 12.387316
57.130 12.074123
57.135 11.945871
57.140 11.844658
57.145 11.735449
57.150 11.610834
57.155 11.967786
57.160 11.343224
57.165 11.594838
57.170 11.580678
57.175 11.63283
57.180 11.510814
57.185 11.60873
57.190 11.626682
57.195 12.114391
57.200 12.134748
57.205 12.126646
57.210 12.132938
57.215 11.791178
57.220 11.849822
57.225 12.091863
57.230 11.686385
57.235 11.285755
57.240 11.219654
57.245 10.777508
57.250 11.239902
57.255 11.473782
57.260 11.462132
57.265 11.976827
57.270 12.236114
57.275 12.509832
57.280 13.267253
57.285 12.753254
57.290 12.495117
57.295 12.771616
57.300 12.951861
57.305 13.258958
57.310 13.071361
57.315 13.259473
57.320 13.555962
57.325 13.714673
57.330 13.794971
57.335 14.04483
57.340 13.9698
57.345 13.98531
57.350 13.809879
57.355 13.711862
57.360 13.774159
57.365 13.820305
57.370 13.152926
57.375 12.94591
57.380 12.941112
57.385 13.343737
57.390 13.628577
57.395 14.019084
57.400 13.797575
57.405 13.847051
57.410 14.050215
57.415 14.090425
57.420 13.594139
57.425 13.09116
57.430 12.449475
57.435 12.495799
57.440 12.967009
57.445 12.943208
57.450 12.792507
57.455 13.225695
57.460 13.612027
57.465 13.684169
57.470 13.695892
57.475 13.362868
57.480 13.300116
57.485 13.669163
57.490 13.815144
57.495 13.869208
57.500 13.480682
57.505 13.308072
57.510 13.383092
57.515 13.580328
57.520 13.332217
57.525 12.763137
57.530 12.83426
57.535 12.781837
57.540 12.915017
57.545 13.111297
57.550 12.999975
57.555 13.438373
57.560 13.730813
57.565 13.430081
57.570 13.877418
57.575 13.836411
57.580 13.734282
57.585 13.883636
57.590 14.042037
57.595 14.155772
57.600 14.45193
57.605 14.44906
57.610 14.473722
57.615 14.771526
57.620 14.698973
57.625 14.426262
57.630 14.566301
57.635 14.833873
57.640 15.223611
57.645 15.026205
57.650 14.550228
57.655 14.447389
57.660 14.063179
57.665 13.610742
57.670 13.460469
57.675 12.786338
57.680 12.878283
57.685 13.578981
57.690 13.798145
57.695 13.921983
57.700 13.82922
57.705 13.907976
57.710 14.22127
57.715 14.489958
57.720 13.983958
57.725 13.750887
57.730 14.154214
57.735 14.539206
57.740 13.853435
57.745 13.568287
57.750 13.51793
57.755 13.489729
57.760 13.31604
57.765 12.799258
57.770 12.838903
57.775 13.411306
57.780 13.406594
57.785 13.166761
57.790 13.163272
57.795 13.147805
57.800 13.44901
57.805 13.383409
57.810 13.536592
57.815 13.829062
57.820 14.107213
57.825 14.432303
57.830 15.296323
57.835 15.206323
57.840 15.022042
57.845 14.570082
57.850 14.283785
57.855 14.382979
57.860 14.031899
57.865 13.982568
57.870 14.808937
57.875 15.290454
57.880 16.049795
57.885 16.335091
57.890 16.527058
57.895 16.931831
57.900 16.634045
57.905 15.931165
57.910 15.306644
57.915 15.088563
57.920 14.863483
57.925 14.516283
57.930 14.103189
57.935 13.536
57.940 13.529733
57.945 13.46269
57.950 13.885595
57.955 13.898302
57.960 14.224848
57.965 14.093962
57.970 14.173599
57.975 14.383371
57.980 14.736617
57.985 14.440763
57.990 14.802029
57.995 14.899278
58.000 15.163833
58.005 15.468576
58.010 15.802671
58.015 15.744086
58.020 15.501104
58.025 14.866364
58.030 14.948247
58.035 15.234043
58.040 15.393521
58.045 15.063258
58.050 15.125056
58.055 15.177883
58.060 15.323573
58.065 15.300661
58.070 15.463645
58.075 15.62926
58.080 15.375091
58.085 15.396411
58.090 15.362883
58.095 15.076072
58.100 15.021857
58.105 14.912874
58.110 14.955265
58.115 15.832842
58.120 16.598167
58.125 17.065783
58.130 17.28558
58.135 17.087183
58.140 16.945061
58.145 16.843777
58.150 16.438944
58.155 15.531981
58.160 15.095273
58.165 15.156041
58.170 15.439722
58.175 15.6941
58.180 15.590402
58.185 15.055131
58.190 15.256341
58.195 15.470721
58.200 15.444672
58.205 15.007238
58.210 14.480212
58.215 14.28001
58.220 14.875469
58.225 15.175985
58.230 15.801977
58.235 15.648488
58.240 15.60054
58.245 15.843949
58.250 16.132093
58.255 16.28508
58.260 16.535091
58.265 16.228216
58.270 16.570362
58.275 16.546696
58.280 17.116714
58.285 17.42363
58.290 17.088322
58.295 16.582706
58.300 17.032724
58.305 17.327526
58.310 17.676702
58.315 17.51174
58.320 17.709686
58.325 17.75894
58.330 17.900597
58.335 17.962896
58.340 18.014917
58.345 17.788822
58.350 18.028517
58.355 18.807205
58.360 19.117889
58.365 19.632906
58.370 19.76944
58.375 20.424711
58.380 20.860155
58.385 20.476858
58.390 20.086607
58.395 19.742334
58.400 19.448328
58.405 19.085331
58.410 18.566818
58.415 18.741354
58.420 19.366934
58.425 19.834576
58.430 20.408854
58.435 21.218113
58.440 21.718107
58.445 22.055176
58.450 22.088314
58.455 22.035961
58.460 22.64868
58.465 23.679842
58.470 24.219461
58.475 25.090073
58.480 25.978693
58.485 27.030626
58.490 27.957581
58.495 28.157211
58.500 27.676628
58.505 27.487988
58.510 27.397421
58.515 27.181967
58.520 27.369431
58.525 27.761127
58.530 28.390841
58.535 28.754168
58.540 29.087181
58.545 29.929705
58.550 30.540262
58.555 30.418566
58.560 30.610422
58.565 30.366806
58.570 30.766756
58.575 31.150524
58.580 31.257914
58.585 31.703722
58.590 32.237564
58.595 32.447346
58.600 32.617035
58.605 32.443783
58.610 32.451176
58.615 32.040417
58.620 31.952118
58.625 32.310207
58.630 33.620041
58.635 33.801807
58.640 33.794308
58.645 33.482353
58.650 34.182167
58.655 34.441566
58.660 34.02713
58.665 33.033737
58.670 32.512295
58.675 32.526131
58.680 32.247326
58.685 31.540382
58.690 30.651676
58.695 30.441858
58.700 30.395826
58.705 30.254887
58.710 29.5035
58.715 29.04834
58.720 29.276791
58.725 28.840229
58.730 28.925119
58.735 29.599922
58.740 30.174774
58.745 30.939659
58.750 31.225445
58.755 30.436457
58.760 30.527985
58.765 28.724379
58.770 27.319529
58.775 26.530148
58.780 26.396917
58.785 26.257851
58.790 26.256426
58.795 26.609667
58.800 27.644926
58.805 27.926773
58.810 28.055456
58.815 27.026089
58.820 26.438622
58.825 26.22064
58.830 25.51885
58.835 23.930511
58.840 22.957535
58.845 22.067507
58.850 22.413204
58.855 22.391827
58.860 21.891401
58.865 21.541
58.870 21.678797
58.875 21.631628
58.880 21.922802
58.885 21.328323
58.890 20.556366
58.895 20.200497
58.900 19.763094
58.905 19.086964
58.910 18.788166
58.915 17.869579
58.920 17.276127
58.925 17.628099
58.930 17.784197
58.935 17.71703
58.940 18.066814
58.945 18.071091
58.950 18.721529
58.955 18.939665
58.960 18.538555
58.965 18.505632
58.970 18.552103
58.975 17.964027
58.980 17.830885
58.985 17.703114
58.990 17.761496
58.995 17.68099
59.000 17.972513
59.005 18.661217
59.010 18.52932
59.015 18.15279
59.020 17.384798
59.025 17.036774
59.030 16.900501
59.035 16.314056
59.040 15.78611
59.045 14.992283
59.050 14.564823
59.055 14.309654
59.060 14.512051
59.065 14.446952
59.070 14.458286
59.075 14.696828
59.080 15.09161
59.085 15.218142
59.090 15.343151
59.095 15.06003
59.100 14.993351
59.105 14.832799
59.110 14.53229
59.115 14.14448
59.120 13.839282
59.125 13.596467
59.130 13.213403
59.135 12.908826
59.140 12.89138
59.145 13.547543
59.150 14.007664
59.155 15.06993
59.160 15.635243
59.165 16.060097
59.170 16.68873
59.175 16.926893
59.180 16.293657
59.185 16.198832
59.190 15.428864
59.195 15.259077
59.200 14.908842
59.205 14.238379
59.210 14.188409
59.215 14.51862
59.220 14.142412
59.225 13.950295
59.230 13.974563
59.235 14.312292
59.240 14.593745
59.245 14.40417
59.250 14.387514
59.255 14.986982
59.260 15.610028
59.265 15.942186
59.270 15.507935
59.275 15.565641
59.280 15.428283
59.285 15.418535
59.290 15.139757
59.295 14.576224
59.300 14.332563
59.305 14.626284
59.310 13.937754
59.315 14.079057
59.320 14.288702
59.325 14.517125
59.330 14.730119
59.335 14.8466
59.340 14.356128
59.345 14.51599
59.350 13.962202
59.355 13.241489
59.360 12.919402
59.365 12.905214
59.370 12.858305
59.375 12.757296
59.380 12.420746
59.385 12.596244
59.390 12.937451
59.395 12.653199
59.400 11.676043
59.405 11.543792
59.410 12.233335
59.415 12.705186
59.420 13.008375
59.425 13.228961
59.430 13.535165
59.435 14.423551
59.440 14.875361
59.445 15.088137
59.450 15.035138
59.455 14.851891
59.460 15.460252
59.465 15.531007
59.470 15.373376
59.475 15.526446
59.480 15.33291
59.485 15.091712
59.490 14.788503
59.495 14.205889
59.500 14.380892
59.505 13.957889
59.510 13.120532
59.515 12.930514
59.520 13.588419
59.525 13.543193
59.530 13.244747
59.535 12.82581
59.540 12.643106
59.545 12.864895
59.550 13.130192
59.555 12.665627
59.560 12.686179
59.565 12.951725
59.570 13.488286
59.575 13.746165
59.580 13.660665
59.585 13.455248
59.590 13.532292
59.595 14.050064
59.600 13.840938
59.605 13.444144
59.610 13.447216
59.615 14.001517
59.620 14.044783
59.625 14.32453
59.630 14.421445
59.635 14.867235
59.640 15.153313
59.645 15.25201
59.650 14.842379
59.655 14.86116
59.660 14.675021
59.665 14.672975
59.670 14.553255
59.675 14.314931
59.680 13.857154
59.685 14.016232
59.690 14.473518
59.695 14.395581
59.700 13.878682
59.705 13.611255
59.710 13.937939
59.715 14.253462
59.720 13.966235
59.725 13.681751
59.730 14.200315
59.735 14.669892
59.740 14.783452
59.745 14.787571
59.750 14.594277
59.755 14.684546
59.760 14.518867
59.765 14.387685
59.770 14.074766
59.775 14.001084
59.780 14.050217
59.785 14.284374
59.790 14.059852
59.795 13.849072
59.800 13.168534
59.805 13.418114
59.810 13.270528
59.815 12.746476
59.820 13.040501
59.825 13.777142
59.830 13.8441
59.835 14.00787
59.840 13.60726
59.845 14.170459
59.850 14.829919
59.855 14.598627
59.860 14.364561
59.865 14.123507
59.870 14.143116
59.875 14.113512
59.880 14.056035
59.885 13.950356
59.890 13.938791
59.895 14.286483
59.900 14.728808
59.905 14.956644
59.910 15.455654
59.915 15.721272
59.920 15.956486
59.925 16.27424
59.930 16.009014
59.935 15.788093
59.940 15.407947
59.945 15.04307
59.950 14.427938
59.955 13.479085
59.960 12.726106
59.965 12.972359
59.970 13.515047
59.975 14.097518
59.980 14.107453
59.985 14.54915
59.990 15.124883
59.995 15.043899
60.000 14.789307
60.005 14.605844
60.010 14.730753
60.015 14.709178
60.020 14.503704
60.025 14.791992
60.030 15.502205
60.035 15.575961
60.040 15.713412
60.045 15.66681
60.050 16.301376
60.055 16.270983
60.060 15.84657
60.065 15.337489
60.070 15.379997
60.075 15.222459
60.080 15.041767
60.085 14.39109
60.090 14.955426
60.095 15.107436
60.100 15.093764
60.105 14.984948
60.110 14.580226
60.115 14.683313
60.120 14.752749
60.125 14.829409
60.130 14.409582
60.135 13.921771
60.140 13.553184
60.145 13.914496
60.150 13.796247
60.155 13.269444
60.160 12.590348
60.165 12.940736
60.170 13.664528
60.175 14.402161
60.180 14.376278
60.185 14.429209
60.190 14.628732
60.195 14.757361
60.200 15.027818
60.205 15.090613
60.210 14.489352
60.215 14.542114
60.220 14.440557
60.225 14.581581
60.230 14.814005
60.235 14.949433
60.240 15.182035
60.245 15.284637
60.250 14.920678
60.255 15.068098
60.260 14.938709
60.265 14.799954
60.270 14.236097
60.275 13.903589
60.280 14.236608
60.285 14.592812
60.290 14.271383
60.295 14.501015
60.300 14.392879
60.305 14.896125
60.310 14.812855
60.315 14.870951
60.320 15.605186
60.325 16.320786
60.330 16.37393
60.335 16.43
60.340 16.237658
60.345 16.185423
60.350 15.826074
60.355 15.257723
60.360 14.491302
60.365 14.176506
60.370 14.07913
60.375 13.89611
60.380 14.030642
60.385 13.988479
60.390 14.096199
60.395 14.340928
60.400 14.979367
60.405 15.091941
60.410 15.026196
60.415 15.019964
60.420 14.820192
60.425 14.781981
60.430 14.632032
60.435 14.368899
60.440 14.314955
60.445 14.49321
60.450 14.134189
60.455 14.399847
60.460 14.524136
60.465 14.602552
60.470 14.148847
60.475 14.750765
60.480 15.482838
60.485 15.883391
60.490 15.561481
60.495 15.900213
60.500 15.978577
60.505 16.26301
60.510 15.683943
60.515 15.148491
60.520 15.103462
60.525 14.717762
60.530 14.121876
60.535 13.965935
60.540 14.705811
60.545 14.853621
60.550 14.776857
60.555 14.698545
60.560 15.133436
60.565 15.21151
60.570 14.971848
60.575 14.437147
60.580 14.224805
60.585 14.281144
60.590 14.521268
60.595 14.631096
60.600 14.558043
60.605 14.527756
60.610 14.320971
60.615 14.019727
60.620 14.005273
60.625 13.665136
60.630 13.372501
60.635 13.748088
60.640 13.499421
60.645 13.770473
60.650 14.441884
60.655 14.654331
60.660 14.271111
60.665 14.119606
60.670 14.499159
60.675 14.888245
60.680 14.451183
60.685 13.998614
60.690 13.608389
60.695 13.934281
60.700 13.766876
60.705 13.383573
60.710 13.240363
60.715 13.151429
60.720 13.178347
60.725 13.001662
60.730 13.00745
60.735 13.571269
60.740 13.676257
60.745 13.836444
60.750 13.760271
60.755 13.586429
60.760 13.85504
60.765 13.909175
60.770 13.512159
60.775 13.461053
60.780 13.816649
60.785 14.633128
60.790 15.117188
60.795 14.945278
60.800 14.459057
60.805 14.200737
60.810 13.802883
60.815 13.390357
60.820 13.366785
60.825 13.007317
60.830 13.536376
60.835 14.124722
60.840 14.527764
60.845 14.338971
60.850 14.243161
60.855 13.654543
60.860 13.761436
60.865 13.687983
60.870 13.191707
60.875 13.081398
60.880 13.525413
60.885 13.748797
60.890 14.218388
60.895 14.196968
60.900 14.109038
60.905 14.239744
60.910 14.442401
60.915 14.494826
60.920 13.905556
60.925 13.269874
60.930 13.585034
60.935 13.645157
60.940 13.844921
60.945 13.848328
60.950 14.081259
60.955 14.163378
60.960 14.153864
60.965 13.651389
60.970 13.624743
60.975 13.796191
60.980 13.975488
60.985 13.90526
60.990 14.099889
60.995 14.299212
61.000 14.491481
61.005 14.381725
61.010 14.360243
61.015 14.20686
61.020 15.184387
61.025 15.48152
61.030 15.575123
61.035 15.677025
61.040 15.532626
61.045 15.309381
61.050 15.374433
61.055 14.4501
61.060 14.157924
61.065 14.123221
61.070 14.346835
61.075 14.822486
61.080 14.879457
61.085 14.991875
61.090 15.292737
61.095 15.396294
61.100 15.496149
61.105 14.759706
61.110 14.726259
61.115 14.610935
61.120 14.07864
61.125 14.256761
61.130 14.799187
61.135 15.130064
61.140 15.303672
61.145 15.288569
61.150 15.703903
61.155 16.122379
61.160 15.494413
61.165 14.492742
61.170 14.277206
61.175 14.597903
61.180 14.526876
61.185 14.180305
61.190 14.01088
61.195 15.038116
61.200 16.019445
61.205 16.278259
61.210 16.05151
61.215 15.774833
61.220 16.19499
61.225 16.576092
61.230 16.75169
61.235 16.419016
61.240 16.278179
61.245 16.498289
61.250 16.483984
61.255 16.067007
61.260 15.303431
61.265 14.353489
61.270 14.290975
61.275 14.375691
61.280 14.327971
61.285 14.626553
61.290 15.008023
61.295 15.480156
61.300 15.625876
61.305 14.97686
61.310 14.856822
61.315 14.881145
61.320 14.412567
61.325 14.274699
61.330 13.828945
61.335 13.554101
61.340 13.973478
61.345 13.86694
61.350 13.866951
61.355 14.350647
61.360 14.327777
61.365 14.556113
61.370 14.226995
61.375 13.69915
61.380 13.799055
61.385 13.894458
61.390 13.166274
61.395 13.1394
61.400 13.104572
61.405 13.515477
61.410 14.064964
61.415 13.713327
61.420 13.816566
61.425 14.208184
61.430 14.115465
61.435 14.792463
61.440 14.754316
61.445 14.357335
61.450 14.856588
61.455 14.940312
61.460 14.883327
61.465 14.889697
61.470 14.675755
61.475 15.323452
61.480 15.4605
61.485 15.358315
61.490 14.95966
61.495 14.833643
61.500 14.970702
61.505 14.741146
61.510 14.171668
61.515 14.364343
61.520 14.457506
61.525 14.945549
61.530 14.771825
61.535 14.495728
61.540 15.161257
61.545 15.807888
61.550 16.105642
61.555 16.26041
61.560 16.870447
61.565 17.402103
61.570 17.473568
61.575 17.122219
61.580 16.966845
61.585 16.661856
61.590 16.006609
61.595 15.672587
61.600 15.892402
61.605 16.020605
61.610 16.3001
61.615 16.127123
61.620 16.333332
61.625 16.808058
61.630 16.595572
61.635 16.71874
61.640 16.71068
61.645 15.766901
61.650 15.903994
61.655 15.774407
61.660 15.175542
61.665 14.953058
61.670 14.409899
61.675 14.214992
61.680 14.822194
61.685 14.821085
61.690 15.250936
61.695 15.463962
61.700 15.322083
61.705 15.119825
61.710 15.554288
61.715 15.159099
61.720 14.688834
61.725 14.359893
61.730 15.022102
61.735 14.90305
61.740 14.587626
61.745 14.121557
61.750 15.037073
61.755 15.788617
61.760 15.883288
61.765 15.169184
61.770 15.366051
61.775 16.019623
61.780 16.15555
61.785 15.58198
61.790 15.502317
61.795 15.733176
61.800 15.956203
61.805 15.964404
61.810 16.050007
61.815 16.615185
61.820 16.54353
61.825 16.487257
61.830 16.282085
61.835 16.537346
61.840 16.759632
61.845 16.193829
61.850 15.336573
61.855 15.714085
61.860 15.884418
61.865 15.727326
61.870 15.370273
61.875 15.414134
61.880 15.842342
61.885 16.287567
61.890 16.229357
61.895 16.067425
61.900 16.292419
61.905 16.31834
61.910 16.009716
61.915 16.222692
61.920 16.366838
61.925 16.116322
61.930 15.59517
61.935 15.684177
61.940 16.186197
61.945 16.358747
61.950 15.832587
61.955 15.787236
61.960 15.591293
61.965 15.219547
61.970 15.345275
61.975 15.166077
61.980 14.899766
61.985 14.822822
61.990 14.512209
61.995 14.982676
62.000 15.758377
62.005 15.751675
62.010 15.719541
62.015 15.614014
62.020 15.39355
62.025 15.198828
62.030 14.910071
62.035 15.051079
62.040 14.881575
62.045 14.760283
62.050 15.292324
62.055 15.601717
62.060 15.668418
62.065 15.82103
62.070 15.536478
62.075 15.384373
62.080 15.42028
62.085 15.504573
62.090 15.527657
62.095 15.538825
62.100 14.991955
62.105 15.073915
62.110 15.463948
62.115 15.182464
62.120 15.060873
62.125 15.271589
62.130 16.081774
62.135 16.686649
62.140 16.168646
62.145 15.656169
62.150 15.881839
62.155 16.091825
62.160 15.795766
62.165 15.034445
62.170 14.901977
62.175 15.403659
62.180 15.731438
62.185 15.404331
62.190 15.170942
62.195 14.886576
62.200 14.564163
62.205 14.220196
62.210 14.14321
62.215 14.017282
62.220 14.112094
62.225 14.308837
62.230 14.740157
62.235 15.036427
62.240 15.143737
62.245 15.303765
62.250 15.479054
62.255 15.637178
62.260 15.652525
62.265 15.58956
62.270 15.854517
62.275 15.955441
62.280 15.469176
62.285 15.1946
62.290 15.223906
62.295 15.621913
62.300 15.444797
62.305 14.953522
62.310 15.040134
62.315 15.677242
62.320 15.531367
62.325 15.019649
62.330 14.470319
62.335 14.25015
62.340 14.097161
62.345 14.048923
62.350 13.748295
62.355 13.911437
62.360 14.445865
62.365 14.744701
62.370 14.763
62.375 14.485401
62.380 14.455675
62.385 14.085349
62.390 13.804544
62.395 13.354339
62.400 13.279798
62.405 13.959322
62.410 14.555181
62.415 14.694381
62.420 15.35964
62.425 15.778686
62.430 16.071241
62.435 16.983978
62.440 17.083099
62.445 16.968061
62.450 16.526918
62.455 16.532562
62.460 16.804264
62.465 16.38615
62.470 15.658449
62.475 15.635329
62.480 15.489795
62.485 15.683146
62.490 15.785275
62.495 15.783946
62.500 15.782696
62.505 15.34889
62.510 15.024445
62.515 15.046599
62.520 15.008533
62.525 14.509745
62.530 14.066821
62.535 14.101821
62.540 14.36069
62.545 14.743505
62.550 14.472247
62.555 15.043345
62.560 15.399007
62.565 15.561418
62.570 15.307091
62.575 14.661022
62.580 14.507127
62.585 15.391414
62.590 15.118653
62.595 15.367924
62.600 15.898701
62.605 16.285297
62.610 16.864317
62.615 16.745916
62.620 16.314606
62.625 15.746935
62.630 15.246768
62.635 14.616803
62.640 14.797798
62.645 14.706775
62.650 14.680453
62.655 15.112016
62.660 15.620269
62.665 16.399334
62.670 17.008081
62.675 16.986965
62.680 17.049438
62.685 17.142925
62.690 17.318069
62.695 16.926201
62.700 15.950083
62.705 15.565261
62.710 15.636485
62.715 15.611087
62.720 15.124868
62.725 15.130348
62.730 15.322336
62.735 15.547984
62.740 15.293607
62.745 15.650702
62.750 15.865269
62.755 16.057814
62.760 15.56229
62.765 15.736111
62.770 15.642207
62.775 16.011799
62.780 15.668959
62.785 15.611633
62.790 15.514302
62.795 15.569868
62.800 15.414772
62.805 15.738793
62.810 15.392438
62.815 15.701962
62.820 15.8619
62.825 15.535166
62.830 15.572165
62.835 15.946454
62.840 16.244267
62.845 16.451693
62.850 16.254358
62.855 16.257875
62.860 16.57789
62.865 16.712267
62.870 15.913131
62.875 14.902425
62.880 14.505846
62.885 14.18547
62.890 13.960945
62.895 13.932705
62.900 13.860243
62.905 14.43129
62.910 15.093222
62.915 15.232345
62.920 14.839377
62.925 14.991375
62.930 14.481861
62.935 14.04825
62.940 13.892096
62.945 14.003424
62.950 14.21102
62.955 14.903844
62.960 15.017548
62.965 15.587961
62.970 16.327454
62.975 17.108818
62.980 17.202372
62.985 17.299738
62.990 17.261181
62.995 17.892609
63.000 17.87368
63.005 17.262419
63.010 16.52253
63.015 16.454052
63.020 16.683317
63.025 16.433092
63.030 15.672196
63.035 15.828306
63.040 16.445135
63.045 17.068914
63.050 17.332258
63.055 17.020927
63.060 16.966326
63.065 17.201433
63.070 17.463354
63.075 17.165386
63.080 16.558805
63.085 15.744967
63.090 15.544655
63.095 15.784821
63.100 15.866031
63.105 15.612612
63.110 15.123695
63.115 14.937327
63.120 15.150051
63.125 15.203209
63.130 15.371866
63.135 15.441756
63.140 15.331655
63.145 15.21126
63.150 15.606926
63.155 15.575716
63.160 15.564379
63.165 15.714796
63.170 15.826476
63.175 16.234402
63.180 16.271942
63.185 16.100813
63.190 16.236519
63.195 16.332724
63.200 15.780956
63.205 14.874165
63.210 14.867683
63.215 15.419743
63.220 15.473424
63.225 15.425717
63.230 15.481717
63.235 15.832476
63.240 15.842451
63.245 15.448207
63.250 15.422625
63.255 15.4287
63.260 15.304301
63.265 15.364499
63.270 15.062954
63.275 15.528617
63.280 15.737298
63.285 15.843223
63.290 16.235674
63.295 16.95915
63.300 16.707979
63.305 16.690123
63.310 17.072077
63.315 17.253134
63.320 16.936649
63.325 17.56164
63.330 17.307251
63.335 17.551805
63.340 17.846272
63.345 17.757383
63.350 17.730795
63.355 18.17981
63.360 17.211134
63.365 17.075554
63.370 16.922516
63.375 17.006767
63.380 17.004917
63.385 17.152027
63.390 16.854345
63.395 17.197266
63.400 17.055704
63.405 17.22455
63.410 16.98044
63.415 16.897942
63.420 16.710966
63.425 16.852262
63.430 16.971855
63.435 16.911209
63.440 16.625065
63.445 16.724752
63.450 16.48601
63.455 16.50786
63.460 16.449615
63.465 16.171926
63.470 16.794737
63.475 17.281408
63.480 17.546562
63.485 17.664171
63.490 17.398994
63.495 17.25165
63.500 17.628277
63.505 17.151476
63.510 16.477976
63.515 15.961918
63.520 16.106049
63.525 16.750824
63.530 16.744198
63.535 16.392313
63.540 16.649149
63.545 17.047672
63.550 17.211161
63.555 16.821142
63.560 16.551235
63.565 16.995167
63.570 17.118568
63.575 17.269127
63.580 17.118023
63.585 16.669691
63.590 17.030724
63.595 17.239122
63.600 16.945015
63.605 16.961037
63.610 16.560921
63.615 16.421482
63.620 17.025658
63.625 17.003981
63.630 17.001656
63.635 16.653667
63.640 16.668358
63.645 17.439768
63.650 18.461973
63.655 18.513494
63.660 18.674915
63.665 18.485895
63.670 19.17997
63.675 19.553185
63.680 19.463394
63.685 19.12175
63.690 19.389082
63.695 19.235744
63.700 19.02396
63.705 18.249453
63.710 17.936068
63.715 17.576113
63.720 17.028755
63.725 17.107775
63.730 17.336866
63.735 17.51981
63.740 17.480284
63.745 17.271023
63.750 17.336149
63.755 17.683916
63.760 17.333164
63.765 17.190607
63.770 17.2719
63.775 17.51845
63.780 17.579716
63.785 17.777578
63.790 17.78949
63.795 17.62892
63.800 17.770679
63.805 18.146017
63.810 18.209824
63.815 18.431623
63.820 18.061327
63.825 17.556286
63.830 17.338842
63.835 18.027397
63.840 17.664019
63.845 17.804047
63.850 17.73048
63.855 18.22686
63.860 19.085629
63.865 19.764936
63.870 19.424713
63.875 19.655565
63.880 19.340614
63.885 19.446686
63.890 19.391029
63.895 18.934635
63.900 18.229765
63.905 18.060209
63.910 17.778282
63.915 18.05908
63.920 18.116758
63.925 17.969131
63.930 18.44009
63.935 19.213654
63.940 19.401123
63.945 19.778667
63.950 19.624548
63.955 19.299902
63.960 20.005318
63.965 20.564007
63.970 20.152578
63.975 19.971643
63.980 20.281689
63.985 21.507212
63.990 22.433962
63.995 22.5303
64.000 22.354523
64.005 22.843922
64.010 23.835354
64.015 24.234592
64.020 23.877781
64.025 23.992599
64.030 23.833851
64.035 24.222374
64.040 24.516529
64.045 24.744024
64.050 25.290373
64.055 25.822081
64.060 26.420013
64.065 26.499458
64.070 26.138794
64.075 26.164181
64.080 26.084261
64.085 26.613914
64.090 26.657585
64.095 26.613445
64.100 27.859215
64.105 28.748226
64.110 29.338554
64.115 29.840708
64.120 29.72472
64.125 29.078382
64.130 28.332136
64.135 28.888584
64.140 28.707224
64.145 28.603445
64.150 28.251604
64.155 28.114296
64.160 29.214724
64.165 29.360733
64.170 28.634674
64.175 29.401134
64.180 30.292389
64.185 30.875822
64.190 31.437014
64.195 31.30744
64.200 32.277325
64.205 32.725773
64.210 33.137657
64.215 32.747784
64.220 33.143295
64.225 33.839569
64.230 34.898399
64.235 35.49482
64.240 35.915989
64.245 36.154594
64.250 36.595119
64.255 37.71701
64.260 38.424961
64.265 38.811062
64.270 39.798897
64.275 40.335056
64.280 40.803272
64.285 41.29879
64.290 41.557594
64.295 41.850967
64.300 42.307209
64.305 41.454861
64.310 40.697365
64.315 40.57156
64.320 40.076115
64.325 40.418427
64.330 39.646389
64.335 39.792171
64.340 40.084259
64.345 41.162857
64.350 42.046894
64.355 42.844479
64.360 43.652874
64.365 44.181141
64.370 43.600471
64.375 43.881218
64.380 44.287521
64.385 44.909733
64.390 45.283138
64.395 45.100014
64.400 45.664165
64.405 46.152843
64.410 45.723022
64.415 43.955082
64.420 43.433308
64.425 43.38026
64.430 43.249058
64.435 42.650623
64.440 42.858711
64.445 43.442444
64.450 43.751854
64.455 43.203781
64.460 42.158474
64.465 41.464462
64.470 41.612171
64.475 41.744122
64.480 41.33007
64.485 41.686466
64.490 40.954288
64.495 40.812031
64.500 39.890472
64.505 38.411495
64.510 37.385704
64.515 36.721741
64.520 35.891773
64.525 35.318901
64.530 34.897785
64.535 35.218796
64.540 35.294743
64.545 34.706631
64.550 34.469978
64.555 34.160732
64.560 34.466629
64.565 34.496239
64.570 33.705605
64.575 33.032749
64.580 32.820313
64.585 31.981995
64.590 31.609472
64.595 31.546598
64.600 31.307011
64.605 31.368996
64.610 31.548943
64.615 31.905313
64.620 31.946808
64.625 31.583694
64.630 30.694626
64.635 29.943611
64.640 28.813723
64.645 28.229647
64.650 28.277699
64.655 27.587118
64.660 27.180346
64.665 27.061554
64.670 27.144831
64.675 25.972296
64.680 24.763029
64.685 24.2582
64.690 24.27313
64.695 24.137159
64.700 23.709482
64.705 23.155138
64.710 23.032061
64.715 23.312519
64.720 22.874424
64.725 22.34284
64.730 21.555199
64.735 21.083868
64.740 20.997505
64.745 21.13448
64.750 21.327984
64.755 20.730202
64.760 21.032103
64.765 21.892054
64.770 21.78335
64.775 21.753828
64.780 21.740562
64.785 21.587757
64.790 21.688829
64.795 22.065641
64.800 21.685947
64.805 21.800522
64.810 21.974304
64.815 21.677656
64.820 20.893108
64.825 20.559883
64.830 19.795061
64.835 20.249649
64.840 21.035328
64.845 20.768944
64.850 20.718098
64.855 20.785343
64.860 20.749706
64.865 21.046032
64.870 20.494101
64.875 20.448706
64.880 20.474279
64.885 20.55504
64.890 20.209715
64.895 20.262379
64.900 20.581614
64.905 21.359097
64.910 21.076031
64.915 21.092836
64.920 21.777166
64.925 22.337927
64.930 22.864534
64.935 22.770668
64.940 22.200068
64.945 21.639194
64.950 21.211191
64.955 20.523252
64.960 21.18594
64.965 21.757446
64.970 21.676907
64.975 21.296665
64.980 22.131765
64.985 23.438179
64.990 24.30212
64.995 24.408669
65.000 23.611515
65.005 23.303364
65.010 24.117201
65.015 24.171614
65.020 24.115879
65.025 24.209301
65.030 24.038099
65.035 23.878141
65.040 24.224686
65.045 24.137062
65.050 24.552763
65.055 24.361641
65.060 23.733393
65.065 23.443821
65.070 23.630703
65.075 23.739147
65.080 23.791588
65.085 23.329922
65.090 23.160961
65.095 23.727982
65.100 24.11742
65.105 25.115051
65.110 24.971119
65.115 24.88327
65.120 25.19799
65.125 25.760723
65.130 26.051867
65.135 25.843863
65.140 25.369392
65.145 25.363203
65.150 25.569452
65.155 25.854462
65.160 26.653414
65.165 27.410788
65.170 27.471159
65.175 27.11742
65.180 27.802389
65.185 28.035774
65.190 28.750206
65.195 28.728073
65.200 28.888687
65.205 29.620337
65.210 30.464808
65.215 30.375061
65.220 30.402735
65.225 29.883427
65.230 30.302227
65.235 29.83499
65.240 29.275076
65.245 28.662573
65.250 28.464413
65.255 28.288523
65.260 28.460386
65.265 28.336544
65.270 28.61702
65.275 28.759403
65.280 29.532965
65.285 30.162374
65.290 30.500202
65.295 30.579163
65.300 31.262054
65.305 31.789484
65.310 32.907936
65.315 33.032722
65.320 32.548393
65.325 33.32972
65.330 33.34185
65.335 32.682434
65.340 33.590317
65.345 33.919651
65.350 34.297161
65.355 34.419632
65.360 33.560539
65.365 33.805019
65.370 34.403839
65.375 33.970871
65.380 33.283314
65.385 33.349766
65.390 34.35041
65.395 35.120014
65.400 34.898838
65.405 35.011417
65.410 35.183327
65.415 35.513779
65.420 35.561676
65.425 35.560513
65.430 34.926723
65.435 35.412533
65.440 35.621319
65.445 35.166321
65.450 34.627857
65.455 34.009769
65.460 33.610844
65.465 34.303822
65.470 34.089233
65.475 34.094852
65.480 34.750042
65.485 35.562622
65.490 35.893326
65.495 35.576611
65.500 35.331463
65.505 35.001316
65.510 35.046562
65.515 34.590096
65.520 34.328327
65.525 34.622616
65.530 36.030075
65.535 36.572491
65.540 37.277924
65.545 37.196228
65.550 37.773792
65.555 38.446877
65.560 38.845905
65.565 38.234146
65.570 38.137341
65.575 37.795933
65.580 38.04372
65.585 37.947384
65.590 38.299778
65.595 37.862789
65.600 37.575916
65.605 38.102318
65.610 38.336601
65.615 38.110039
65.620 38.529995
65.625 39.005787
65.630 39.30854
65.635 38.775002
65.640 38.133167
65.645 37.981701
65.650 37.571461
65.655 36.681671
65.660 36.273426
65.665 36.031147
65.670 36.627956
65.675 36.231827
65.680 35.802925
65.685 36.349998
65.690 36.361725
65.695 36.15086
65.700 35.79652
65.705 35.542252
65.710 36.050961
65.715 36.325645
65.720 35.537472
65.725 35.434002
65.730 35.506756
65.735 35.545959
65.740 35.549019
65.745 35.154438
65.750 34.793148
65.755 34.934303
65.760 34.601841
65.765 35.005592
65.770 35.565678
65.775 35.856995
65.780 36.285622
65.785 36.511742
65.790 35.679176
65.795 35.777908
65.800 34.701897
65.805 33.723675
65.810 33.097889
65.815 33.087685
65.820 33.002296
65.825 34.027496
65.830 34.156044
65.835 34.882065
65.840 34.933018
65.845 35.019325
65.850 34.786026
65.855 33.495602
65.860 32.589233
65.865 31.982733
65.870 31.258707
65.875 31.33338
65.880 30.678873
65.885 30.656578
65.890 30.056316
65.895 29.349455
65.900 28.634964
65.905 27.575933
65.910 26.448809
65.915 26.117775
65.920 25.416933
65.925 26.031633
65.930 25.792912
65.935 26.315672
65.940 26.708191
65.945 27.004419
65.950 27.340103
65.955 27.793985
65.960 27.216619
65.965 27.485922
65.970 27.274168
65.975 26.822823
65.980 26.280045
65.985 25.755901
65.990 25.174129
65.995 25.308542
66.000 24.816992
66.005 24.879871
66.010 25.091358
66.015 25.257839
66.020 24.764334
66.025 24.316288
66.030 24.273569
66.035 24.347765
66.040 23.379232
66.045 23.045782
66.050 23.148977
66.055 23.486912
66.060 23.558372
66.065 23.235205
66.070 22.935902
66.075 23.541784
66.080 23.362358
66.085 23.437155
66.090 22.671654
66.095 21.911636
66.100 21.381521
66.105 21.149668
66.110 20.686592
66.115 20.72789
66.120 20.417416
66.125 20.476524
66.130 20.917341
66.135 20.910297
66.140 21.185392
66.145 20.840742
66.150 20.807428
66.155 20.832561
66.160 20.795725
66.165 20.755556
66.170 20.754669
66.175 20.338203
66.180 20.041977
66.185 19.539936
66.190 19.190374
66.195 19.742939
66.200 19.278446
66.205 18.911673
66.210 19.042158
66.215 19.165157
66.220 19.153891
66.225 19.285416
66.230 18.808191
66.235 18.636696
66.240 18.682871
66.245 18.315134
66.250 18.186472
66.255 18.492157
66.260 18.191154
66.265 18.534224
66.270 18.599976
66.275 18.542496
66.280 19.025454
66.285 19.269003
66.290 19.754637
66.295 20.141233
66.300 19.869856
66.305 20.437605
66.310 20.346998
66.315 19.779978
66.320 19.650602
66.325 18.70088
66.330 18.264378
66.335 18.116938
66.340 17.776905
66.345 17.813141
66.350 18.038467
66.355 17.967962
66.360 17.949919
66.365 17.671875
66.370 17.597605
66.375 17.133072
66.380 16.819529
66.385 16.140091
66.390 15.714865
66.395 15.729827
66.400 17.058687
66.405 17.467121
66.410 17.86488
66.415 18.533545
66.420 19.167297
66.425 19.396521
66.430 19.103312
66.435 17.991772
66.440 17.213442
66.445 17.173395
66.450 17.141584
66.455 17.543274
66.460 17.263273
66.465 17.518234
66.470 17.670774
66.475 17.869595
66.480 17.764563
66.485 17.535284
66.490 17.293886
66.495 17.318514
66.500 17.250088
66.505 17.180046
66.510 16.984394
66.515 16.733408
66.520 17.006512
66.525 17.185911
66.530 17.501982
66.535 18.206631
66.540 18.343771
66.545 18.709726
66.550 19.179741
66.555 18.560797
66.560 18.109602
66.565 18.275085
66.570 17.826012
66.575 17.978737
66.580 17.981922
66.585 18.046854
66.590 18.294518
66.595 18.597013
66.600 18.16787
66.605 18.14126
66.610 18.290504
66.615 18.519279
66.620 18.970205
66.625 19.23666
66.630 19.140745
66.635 19.581665
66.640 19.838451
66.645 19.730942
66.650 19.183672
66.655 18.463711
66.660 18.640108
66.665 18.813129
66.670 18.695803
66.675 18.131653
66.680 18.194403
66.685 18.596775
66.690 18.417856
66.695 17.97345
66.700 17.746922
66.705 17.479269
66.710 17.159363
66.715 17.24962
66.720 16.946209
66.725 17.295692
66.730 17.807917
66.735 18.009066
66.740 18.71295
66.745 19.747301
66.750 19.56403
66.755 19.729342
66.760 19.809065
66.765 19.786362
66.770 19.612528
66.775 18.826054
66.780 18.248064
66.785 17.927166
66.790 17.817129
66.795 17.327751
66.800 17.093107
66.805 17.1367
66.810 16.729275
66.815 16.950508
66.820 17.750814
66.825 18.077824
66.830 17.842146
66.835 17.760798
66.840 18.166149
66.845 18.376251
66.850 17.755861
66.855 17.738897
66.860 17.842842
66.865 18.325869
66.870 18.248474
66.875 17.764494
66.880 17.924456
66.885 18.430252
66.890 17.722807
66.895 17.448603
66.900 17.157658
66.905 17.18911
66.910 17.488485
66.915 17.469646
66.920 17.512695
66.925 17.436956
66.930 17.667068
66.935 17.874094
66.940 17.653246
66.945 17.765156
66.950 17.246321
66.955 17.06016
66.960 17.324669
66.965 17.288151
66.970 17.784199
66.975 17.846443
66.980 18.107447
66.985 18.467756
66.990 18.803747
66.995 18.640213
67.000 18.916021
67.005 18.817776
67.010 18.584702
67.015 18.123926
67.020 17.956623
67.025 17.84359
67.030 18.092304
67.035 17.484653
67.040 17.641029
67.045 17.745108
67.050 17.280691
67.055 18.176802
67.060 18.433645
67.065 19.024376
67.070 18.756283
67.075 18.496294
67.080 18.530167
67.085 18.874519
67.090 18.036829
67.095 17.671787
67.100 17.764927
67.105 17.703346
67.110 17.843071
67.115 17.96497
67.120 18.726219
67.125 19.307638
67.130 19.154985
67.135 18.458057
67.140 17.917479
67.145 17.682713
67.150 17.550863
67.155 17.066225
67.160 16.697535
67.165 16.543236
67.170 16.594692
67.175 17.676445
67.180 18.363068
67.185 18.560307
67.190 17.86565
67.195 17.799593
67.200 18.066774
67.205 18.178619
67.210 17.844589
67.215 17.466623
67.220 17.740372
67.225 18.405888
67.230 18.785732
67.235 18.835264
67.240 18.902237
67.245 18.690571
67.250 18.22434
67.255 17.621466
67.260 17.725611
67.265 17.69208
67.270 17.583797
67.275 17.306465
67.280 17.339968
67.285 17.609856
67.290 17.779503
67.295 17.382717
67.300 17.470266
67.305 17.453104
67.310 17.364717
67.315 17.855927
67.320 18.164034
67.325 18.515682
67.330 18.375723
67.335 17.7929
67.340 17.954412
67.345 17.680244
67.350 17.323458
67.355 16.970165
67.360 16.587933
67.365 16.658554
67.370 16.847876
67.375 16.550306
67.380 16.903938
67.385 17.444681
67.390 17.463478
67.395 17.398464
67.400 17.608049
67.405 17.962612
67.410 18.866482
67.415 18.751789
67.420 18.17042
67.425 18.302332
67.430 18.360401
67.435 18.138618
67.440 17.869297
67.445 17.837471
67.450 18.225189
67.455 18.577631
67.460 18.629608
67.465 18.357264
67.470 18.432388
67.475 18.318724
67.480 17.952938
67.485 17.883801
67.490 17.853823
67.495 17.745499
67.500 18.005415
67.505 17.684597
67.510 17.672705
67.515 17.891235
67.520 17.917974
67.525 17.976112
67.530 18.2306
67.535 18.473669
67.540 19.043314
67.545 19.436913
67.550 19.340389
67.555 19.27103
67.560 19.007771
67.565 18.63987
67.570 18.712595
67.575 18.526567
67.580 18.844591
67.585 18.800629
67.590 18.378471
67.595 18.730295
67.600 18.416279
67.605 18.790745
67.610 18.732012
67.615 17.927
67.620 18.292032
67.625 18.997843
67.630 18.975943
67.635 19.434895
67.640 19.122568
67.645 18.974417
67.650 19.841892
67.655 19.645939
67.660 19.158527
67.665 19.441124
67.670 19.324863
67.675 19.247759
67.680 19.660883
67.685 19.370649
67.690 19.49563
67.695 19.222971
67.700 19.219915
67.705 19.439665
67.710 18.858511
67.715 18.29265
67.720 17.815882
67.725 17.704489
67.730 17.601685
67.735 17.109926
67.740 16.428497
67.745 16.528698
67.750 16.79814
67.755 16.534609
67.760 15.834811
67.765 15.736938
67.770 15.455225
67.775 16.041784
67.780 15.782685
67.785 15.553586
67.790 16.015951
67.795 15.881268
67.800 15.667796
67.805 16.407476
67.810 16.476542
67.815 16.818336
67.820 16.726948
67.825 16.663048
67.830 18.048134
67.835 19.203915
67.840 18.206425
67.845 18.193068
67.850 17.70015
67.855 17.953148
67.860 18.518791
67.865 17.767836
67.870 17.597973
67.875 18.516426
67.880 18.354389
67.885 18.819214
67.890 18.646931
67.895 18.078215
67.900 18.60824
67.905 18.662786
67.910 18.230856
67.915 18.678959
67.920 18.286598
67.925 18.554291
67.930 18.90781
67.935 18.733881
67.940 18.900475
67.945 19.240635
67.950 19.012722
67.955 19.344637
67.960 19.062231
67.965 18.884827
67.970 18.585638
67.975 18.521229
67.980 18.57077
67.985 18.958426
67.990 18.876078
67.995 18.775553
68.000 18.709515
68.005 19.181099
68.010 18.930037
68.015 18.557587
68.020 19.016157
68.025 19.246647
68.030 19.258457
68.035 18.992718
68.040 18.26619
68.045 18.573097
68.050 18.701927
68.055 18.032364
68.060 17.389824
68.065 17.466667
68.070 17.067204
68.075 17.157183
68.080 16.990217
68.085 17.043962
68.090 17.196375
68.095 17.543049
68.100 17.702057
68.105 18.269716
68.110 18.067429
68.115 18.407368
68.120 18.646534
68.125 18.806807
68.130 19.173796
68.135 19.301014
68.140 19.386908
68.145 18.97827
68.150 18.412729
68.155 18.223404
68.160 17.892744
68.165 17.420177
68.170 17.244209
68.175 17.134348
68.180 17.31592
68.185 17.4552
68.190 17.944077
68.195 18.535231
68.200 18.716398
68.205 18.927221
68.210 19.564955
68.215 20.083166
68.220 20.172497
68.225 20.318575
68.230 20.091257
68.235 19.79582
68.240 19.30901
68.245 19.431372
68.250 19.276516
68.255 18.62871
68.260 18.514853
68.265 19.045675
68.270 19.88422
68.275 19.918835
68.280 19.250008
68.285 19.409197
68.290 19.852024
68.295 19.586517
68.300 19.383089
68.305 20.108683
68.310 20.853571
68.315 21.953865
68.320 22.349586
68.325 22.425751
68.330 22.263157
68.335 22.337185
68.340 21.947712
68.345 21.65859
68.350 21.687813
68.355 21.553465
68.360 21.8312
68.365 21.868429
68.370 21.588232
68.375 21.305712
68.380 21.595995
68.385 21.848045
68.390 22.807003
68.395 23.184917
68.400 23.974127
68.405 24.604446
68.410 25.013863
68.415 24.196674
68.420 23.999792
68.425 23.41304
68.430 23.133389
68.435 22.417465
68.440 22.114187
68.445 22.689156
68.450 23.916931
68.455 24.055956
68.460 24.301371
68.465 24.843887
68.470 25.883484
68.475 26.366385
68.480 26.503124
68.485 26.920139
68.490 27.488375
68.495 28.132986
68.500 28.209475
68.505 28.104506
68.510 27.819767
68.515 27.258894
68.520 26.433037
68.525 25.950895
68.530 26.227802
68.535 26.272539
68.540 25.823322
68.545 25.874264
68.550 26.507713
68.555 26.633911
68.560 27.260593
68.565 27.018957
68.570 27.227884
68.575 27.511721
68.580 27.798943
68.585 27.826466
68.590 28.321012
68.595 28.286339
68.600 28.125437
68.605 28.15654
68.610 28.875242
68.615 28.687275
68.620 29.436729
68.625 30.748299
68.630 30.857222
68.635 31.618298
68.640 31.436211
68.645 31.539406
68.650 31.928755
68.655 31.371393
68.660 30.693478
68.665 30.612583
68.670 30.454809
68.675 30.901562
68.680 31.085072
68.685 31.548126
68.690 31.829494
68.695 32.343113
68.700 33.080807
68.705 33.723682
68.710 34.278542
68.715 34.62064
68.720 34.087463
68.725 34.90517
68.730 36.095562
68.735 35.697536
68.740 35.058449
68.745 34.43869
68.750 34.506474
68.755 35.251705
68.760 34.912251
68.765 34.7743
68.770 34.730183
68.775 35.442432
68.780 36.09203
68.785 36.101208
68.790 35.895039
68.795 35.233494
68.800 34.445976
68.805 34.384094
68.810 33.613766
68.815 33.06377
68.820 33.970566
68.825 34.814388
68.830 35.414833
68.835 35.459892
68.840 36.060661
68.845 37.105446
68.850 37.027977
68.855 36.180576
68.860 35.532307
68.865 35.923611
68.870 36.523643
68.875 36.411987
68.880 35.779526
68.885 35.659317
68.890 35.823177
68.895 35.398651
68.900 34.974613
68.905 35.294052
68.910 34.293682
68.915 34.639229
68.920 34.223007
68.925 33.868164
68.930 34.067284
68.935 33.650211
68.940 33.359081
68.945 33.006138
68.950 32.959419
68.955 33.101467
68.960 33.057816
68.965 32.84499
68.970 32.964161
68.975 32.611374
68.980 32.400036
68.985 31.812597
68.990 31.532602
68.995 31.955875
69.000 31.778978
69.005 31.218479
69.010 30.785837
69.015 31.109343
69.020 30.626505
69.025 30.028784
69.030 29.434704
69.035 28.877415
69.040 29.032942
69.045 29.726669
69.050 29.987244
69.055 31.352293
69.060 32.162525
69.065 32.822563
69.070 33.099789
69.075 32.86586
69.080 32.287426
69.085 32.266068
69.090 31.781416
69.095 31.329348
69.100 31.000507
69.105 30.447815
69.110 30.593794
69.115 31.423813
69.120 30.745022
69.125 29.851879
69.130 29.873955
69.135 29.735647
69.140 29.510679
69.145 28.347145
69.150 26.793722
69.155 26.4286
69.160 26.632765
69.165 25.980909
69.170 26.070984
69.175 26.278019
69.180 26.031784
69.185 26.852306
69.190 26.842911
69.195 26.792068
69.200 26.669672
69.205 26.373856
69.210 26.285442
69.215 26.685171
69.220 26.422314
69.225 26.028599
69.230 25.27659
69.235 24.86384
69.240 24.630127
69.245 24.713049
69.250 24.340076
69.255 24.129051
69.260 24.108509
69.265 24.131453
69.270 24.30625
69.275 23.346178
69.280 22.297678
69.285 21.64385
69.290 21.709776
69.295 21.959078
69.300 21.656637
69.305 21.662636
69.310 22.333031
69.315 22.023705
69.320 21.566526
69.325 21.17293
69.330 20.527271
69.335 20.595106
69.340 20.567642
69.345 20.367611
69.350 20.963591
69.355 20.640532
69.360 19.781618
69.365 19.73875
69.370 18.884102
69.375 18.243176
69.380 17.627413
69.385 17.166817
69.390 18.364674
69.395 19.64657
69.400 19.935993
69.405 20.276129
69.410 20.282827
69.415 21.011286
69.420 21.765718
69.425 20.981031
69.430 20.397993
69.435 20.563812
69.440 21.23555
69.445 21.503645
69.450 20.870144
69.455 20.455526
69.460 20.253603
69.465 20.242167
69.470 19.911486
69.475 19.246393
69.480 19.421125
69.485 19.831665
69.490 19.803627
69.495 19.810688
69.500 19.549383
69.505 19.855484
69.510 20.279041
69.515 19.759459
69.520 19.539148
69.525 19.990635
69.530 20.252144
69.535 20.935818
69.540 20.978329
69.545 21.056583
69.550 21.79147
69.555 21.038509
69.560 21.252987
69.565 21.290377
69.570 21.037703
69.575 20.93651
69.580 20.205204
69.585 19.735716
69.590 19.8461
69.595 19.692402
69.600 18.668285
69.605 17.731691
69.610 17.307402
69.615 17.423756
69.620 17.318602
69.625 17.564697
69.630 17.129496
69.635 17.505144
69.640 17.938219
69.645 17.725365
69.650 17.693731
69.655 17.55876
69.660 17.229342
69.665 17.433334
69.670 17.36952
69.675 17.19751
69.680 17.972851
69.685 18.420202
69.690 19.084694
69.695 18.878136
69.700 19.12051
69.705 19.77187
69.710 19.997234
69.715 19.174517
69.720 18.879484
69.725 18.524361
69.730 18.822784
69.735 18.702875
69.740 18.483377
69.745 19.075195
69.750 19.638105
69.755 19.123739
69.760 18.905622
69.765 18.719858
69.770 19.106501
69.775 19.254845
69.780 18.481655
69.785 18.364473
69.790 18.542328
69.795 18.797781
69.800 18.306768
69.805 17.283936
69.810 16.887037
69.815 16.974569
69.820 16.729094
69.825 17.034424
69.830 16.847998
69.835 17.332726
69.840 17.057947
69.845 16.960558
69.850 16.755222
69.855 17.180891
69.860 17.312752
69.865 17.488228
69.870 17.708849
69.875 18.654022
69.880 18.822041
69.885 19.354757
69.890 19.436646
69.895 18.874311
69.900 19.022203
69.905 19.380342
69.910 19.244686
69.915 19.088924
69.920 18.80332
69.925 18.409754
69.930 18.579565
69.935 18.434872
69.940 17.728657
69.945 17.520443
69.950 17.871588
69.955 18.142128
69.960 18.665459
69.965 18.260466
69.970 17.472042
69.975 17.508198
69.980 17.057899
69.985 17.243454
69.990 16.926426
69.995 16.661968
70.000 17.133116
70.005 17.049582
70.010 16.910044
70.015 17.471788
70.020 17.059942
70.025 16.961266
70.030 16.570959
70.035 16.198244
70.040 16.686487
70.045 17.107904
70.050 16.885059
70.055 16.90834
70.060 16.823044
70.065 17.201931
70.070 17.606871
70.075 17.681639
70.080 17.229397
70.085 16.950853
70.090 16.843344
70.095 17.166653
70.100 16.701263
70.105 16.273603
70.110 15.861117
70.115 15.753953
70.120 15.872091
70.125 15.810497
70.130 15.879525
70.135 15.824859
70.140 16.290752
70.145 17.184465
70.150 18.179487
70.155 18.428261
70.160 18.147017
70.165 17.964401
70.170 18.256254
70.175 18.377563
70.180 18.160032
70.185 17.909513
70.190 17.958326
70.195 18.061089
70.200 18.274803
70.205 18.129879
70.210 17.386284
70.215 17.127895
70.220 17.013613
70.225 16.891108
70.230 17.498491
70.235 18.09786
70.240 18.655922
70.245 18.965479
70.250 19.120955
70.255 19.36134
70.260 19.437464
70.265 18.889673
70.270 17.891073
70.275 17.444622
70.280 17.430176
70.285 17.077936
70.290 17.024544
70.295 17.181765
70.300 17.302042
70.305 18.037823
70.310 17.906698
70.315 17.976509
70.320 18.454496
70.325 18.415682
70.330 18.129978
70.335 18.355015
70.340 18.515512
70.345 18.801538
70.350 18.901768
70.355 18.202169
70.360 17.938454
70.365 17.902431
70.370 17.913723
70.375 18.113321
70.380 17.78734
70.385 17.68364
70.390 18.157982
70.395 18.437469
70.400 18.561817
70.405 17.926512
70.410 17.978775
70.415 18.234917
70.420 18.619476
70.425 18.321592
70.430 17.921116
70.435 17.676201
70.440 17.84874
70.445 17.712406
70.450 17.412863
70.455 17.247606
70.460 17.430433
70.465 17.823137
70.470 17.982597
70.475 17.75573
70.480 17.188005
70.485 16.849613
70.490 16.472418
70.495 16.492846
70.500 16.573116
70.505 16.815166
70.510 17.200001
70.515 17.992777
70.520 18.538004
70.525 18.384686
70.530 18.208868
70.535 17.817327
70.540 17.999479
70.545 17.778473
70.550 17.418636
70.555 17.2257
70.560 17.18836
70.565 17.612816
70.570 17.825396
70.575 17.539274
70.580 17.066666
70.585 17.671663
70.590 17.853661
70.595 18.479734
70.600 18.490503
70.605 18.140495
70.610 18.16946
70.615 18.136971
70.620 17.901011
70.625 18.235302
70.630 17.587679
70.635 17.426491
70.640 17.209984
70.645 17.157524
70.650 17.430759
70.655 17.521137
70.660 17.469776
70.665 17.893402
70.670 17.714264
70.675 18.195013
70.680 19.102123
70.685 19.621212
70.690 19.54493
70.695 19.263639
70.700 18.941284
70.705 18.999531
70.710 18.923914
70.715 17.531364
70.720 16.703806
70.725 16.536423
70.730 16.099957
70.735 16.160568
70.740 15.995726
70.745 15.629553
70.750 16.546062
70.755 16.698795
70.760 16.757872
70.765 16.859735
70.770 16.881376
70.775 17.24905
70.780 16.940968
70.785 16.843069
70.790 17.000711
70.795 17.220325
70.800 17.60638
70.805 17.736748
70.810 17.568052
70.815 17.587233
70.820 17.557339
70.825 17.494104
70.830 17.91357
70.835 17.98712
70.840 17.622974
70.845 17.748203
70.850 17.546064
70.855 17.557909
70.860 17.387821
70.865 16.573406
70.870 16.686655
70.875 17.051851
70.880 17.362976
70.885 17.79027
70.890 17.833107
70.895 18.060022
70.900 18.400433
70.905 18.017799
70.910 18.235931
70.915 18.063183
70.920 18.011871
70.925 18.457874
70.930 18.107363
70.935 17.789162
70.940 17.863428
70.945 17.754618
70.950 17.871367
70.955 17.606417
70.960 17.383104
70.965 17.879562
70.970 18.282894
70.975 18.267599
70.980 18.317776
70.985 18.404179
70.990 18.910761
70.995 18.789705
71.000 18.068869
71.005 17.929348
71.010 18.224907
71.015 17.622721
71.020 16.89452
71.025 16.396765
71.030 16.309504
71.035 16.241089
71.040 16.229889
71.045 15.957321
71.050 16.33601
71.055 17.146725
71.060 17.142012
71.065 17.071041
71.070 17.578243
71.075 17.868711
71.080 17.601404
71.085 17.796022
71.090 17.109709
71.095 17.143847
71.100 17.13599
71.105 16.938293
71.110 17.127468
71.115 17.276695
71.120 16.957926
71.125 17.022728
71.130 17.613592
71.135 17.322104
71.140 17.192181
71.145 16.892473
71.150 17.175484
71.155 16.964705
71.160 16.906237
71.165 17.102354
71.170 17.506359
71.175 18.331861
71.180 18.275436
71.185 18.186687
71.190 18.529312
71.195 18.921408
71.200 18.338554
71.205 17.82741
71.210 17.162603
71.215 17.33523
71.220 17.63007
71.225 17.191505
71.230 17.12664
71.235 17.362732
71.240 17.252968
71.245 17.034021
71.250 17.38496
71.255 17.715948
71.260 17.850094
71.265 17.809879
71.270 17.701435
71.275 17.873711
71.280 18.035341
71.285 18.0611
71.290 17.91836
71.295 17.726107
71.300 17.453007
71.305 17.368135
71.310 16.539352
71.315 16.044031
71.320 15.655701
71.325 15.387898
71.330 15.876531
71.335 16.155804
71.340 16.732288
71.345 17.81678
71.350 18.024004
71.355 18.242184
71.360 19.070778
71.365 18.934065
71.370 18.62797
71.375 18.782692
71.380 18.446436
71.385 18.088173
71.390 17.381245
71.395 17.097033
71.400 17.607306
71.405 17.891939
71.410 17.641531
71.415 17.355711
71.420 17.48222
71.425 17.776035
71.430 17.513142
71.435 16.217037
71.440 15.985685
71.445 15.899863
71.450 16.359772
71.455 16.482296
71.460 16.537619
71.465 16.979446
71.470 17.898607
71.475 18.062489
71.480 18.200716
71.485 17.777273
71.490 17.527807
71.495 17.204254
71.500 16.606226
71.505 16.807955
71.510 16.702587
71.515 16.667772
71.520 17.233419
71.525 17.345217
71.530 17.176262
71.535 17.597805
71.540 17.705414
71.545 18.551125
71.550 18.692766
71.555 18.880371
71.560 19.36566
71.565 19.643435
71.570 18.826729
71.575 18.524523
71.580 17.701246
71.585 17.816515
71.590 18.08493
71.595 18.212139
71.600 18.989168
71.605 19.780809
71.610 20.032089
71.615 20.328024
71.620 20.124081
71.625 19.667906
71.630 19.322884
71.635 18.241386
71.640 17.676334
71.645 17.249847
71.650 16.94437
71.655 16.871805
71.660 16.781561
71.665 16.957331
71.670 17.263161
71.675 17.400946
71.680 16.948277
71.685 16.427788
71.690 16.048359
71.695 16.329189
71.700 16.728245
71.705 16.367453
71.710 16.129128
71.715 16.755394
71.720 17.296286
71.725 17.314642
71.730 17.237602
71.735 16.541344
71.740 16.411072
71.745 16.625616
71.750 16.974483
71.755 17.36474
71.760 17.561813
71.765 17.792587
71.770 18.329445
71.775 19.128954
71.780 19.506914
71.785 19.614786
71.790 19.493526
71.795 20.018923
71.800 19.931267
71.805 19.610073
71.810 20.005915
71.815 19.578432
71.820 18.830013
71.825 18.166044
71.830 18.095522
71.835 17.960035
71.840 18.03149
71.845 17.751505
71.850 18.223612
71.855 18.46294
71.860 18.730883
71.865 18.290461
71.870 18.302872
71.875 18.350945
71.880 17.880674
71.885 18.021839
71.890 17.204214
71.895 16.402988
71.900 16.0432
71.905 15.887286
71.910 16.273415
71.915 16.483879
71.920 16.351027
71.925 17.296425
71.930 17.650206
71.935 18.057955
71.940 17.612597
71.945 17.199833
71.950 17.073362
71.955 16.875555
71.960 16.634834
71.965 16.956779
71.970 16.71636
71.975 16.778973
71.980 17.099821
71.985 17.555305
71.990 17.549643
71.995 17.558245
72.000 17.34544
72.005 17.451532
72.010 17.353563
72.015 16.729561
72.020 16.034815
72.025 15.714414
72.030 15.364598
72.035 15.483221
72.040 15.721053
72.045 15.587686
72.050 15.702078
72.055 16.691414
72.060 16.979328
72.065 17.265877
72.070 17.001957
72.075 16.833887
72.080 16.640562
72.085 16.62038
72.090 16.404491
72.095 17.040533
72.100 16.996328
72.105 17.444296
72.110 17.645107
72.115 17.656109
72.120 17.593102
72.125 17.094498
72.130 16.869602
72.135 16.82428
72.140 16.666466
72.145 16.769615
72.150 17.098965
72.155 17.416292
72.160 17.389362
72.165 17.565939
72.170 17.621555
72.175 17.888952
72.180 17.837408
72.185 17.299124
72.190 16.878948
72.195 17.148348
72.200 17.207668
72.205 17.229443
72.210 17.169296
72.215 16.784832
72.220 16.793253
72.225 16.657755
72.230 16.09857
72.235 16.440609
72.240 16.250656
72.245 16.400942
72.250 17.294086
72.255 17.564695
72.260 18.423624
72.265 18.124229
72.270 17.382704
72.275 17.394037
72.280 17.37825
72.285 17.020115
72.290 16.687191
72.295 16.466799
72.300 16.815798
72.305 17.154907
72.310 16.992828
72.315 17.299042
72.320 17.220535
72.325 17.199396
72.330 17.091843
72.335 16.636911
72.340 16.720074
72.345 16.77342
72.350 16.559273
72.355 16.963459
72.360 17.308363
72.365 17.41144
72.370 17.505589
72.375 17.489538
72.380 17.405634
72.385 17.906176
72.390 17.222326
72.395 16.888111
72.400 16.955359
72.405 17.254217
72.410 16.813156
72.415 16.820869
72.420 16.542624
72.425 17.206423
72.430 17.377012
72.435 17.10737
72.440 17.095591
72.445 17.106804
72.450 16.680729
72.455 16.288776
72.460 15.642595
72.465 15.667483
72.470 15.882709
72.475 15.981956
72.480 15.773063
72.485 16.129105
72.490 16.06698
72.495 16.463423
72.500 16.198347
72.505 16.26827
72.510 16.384079
72.515 16.674347
72.520 16.714632
72.525 16.29763
72.530 16.431107
72.535 16.307602
72.540 16.335453
72.545 16.386879
72.550 16.704514
72.555 17.110598
72.560 17.241922
72.565 16.828318
72.570 16.470844
72.575 16.47809
72.580 16.293957
72.585 16.459818
72.590 15.988836
72.595 15.881594
72.600 16.480892
72.605 17.179192
72.610 17.005556
72.615 16.724588
72.620 16.085022
72.625 16.15881
72.630 16.505184
72.635 16.280991
72.640 15.743526
72.645 15.728538
72.650 15.391521
72.655 16.02404
72.660 16.298086
72.665 16.397516
72.670 16.622198
72.675 16.507999
72.680 16.702183
72.685 16.792759
72.690 16.861765
72.695 16.643682
72.700 15.89617
72.705 15.595894
72.710 15.638636
72.715 15.316116
72.720 15.191814
72.725 15.250789
72.730 16.114326
72.735 17.299854
72.740 17.786163
72.745 18.072027
72.750 17.940992
72.755 17.753542
72.760 16.971647
72.765 16.244295
72.770 16.088856
72.775 15.886379
72.780 16.075706
72.785 15.991508
72.790 15.786951
72.795 15.984233
72.800 15.449037
72.805 14.863739
72.810 14.495796
72.815 14.377381
72.820 14.204301
72.825 14.272059
72.830 14.693771
72.835 15.408407
72.840 15.647446
72.845 15.749766
72.850 15.830479
72.855 16.259277
72.860 16.501631
72.865 16.22393
72.870 15.391267
72.875 15.151326
72.880 15.427129
72.885 15.968077
72.890 15.912195
72.895 15.899275
72.900 16.050133
72.905 16.596323
72.910 17.443529
72.915 17.286154
72.920 17.151623
72.925 16.765814
72.930 16.291588
72.935 16.083294
72.940 15.878013
72.945 15.297627
72.950 15.009248
72.955 15.240006
72.960 15.83994
72.965 16.318869
72.970 16.077366
72.975 15.551577
72.980 15.165147
72.985 14.898048
72.990 14.752885
72.995 14.640126
73.000 14.378305
