!@!!GADDS PLOTSO FILE: Chi integration type
!@!!Title/SampleName: map-46
!@!!Comment: ?
!@!!User: Bruker Instrument Administrator
!@!!Site: University of Illinois Chicago
!@!!Frame: map-46_01_000.gfrm
!@!!Wavelengths    1.54184   1.54056   1.54439
!@!!Frame angles: 2Theta: 63.000 Omega: 50.000 Phi: 0.000 Chi: 90.000
!@!!Integration range: 2Theta: 53.000 to 73.000  Gamma: -105.000 to -75.000
!@!!Integration method: bin normalized
!@!N
!@!SS
!@!M
!@!L 0.0 0.0 0.0 0.0
!@!XDegrees
!@!YCounts
53.000 10.331453
53.005 10.289637
53.010 9.573754
53.015 9.148505
53.020 9.241062
53.025 9.151574
53.030 9.478499
53.035 9.684278
53.040 10.250815
53.045 10.418214
53.050 10.433556
53.055 10.677712
53.060 10.388898
53.065 10.425435
53.070 10.465525
53.075 10.549638
53.080 10.615801
53.085 10.831605
53.090 11.26449
53.095 11.881773
53.100 11.899443
53.105 11.637209
53.110 11.544068
53.115 10.93548
53.120 10.218021
53.125 9.495681
53.130 8.679604
53.135 9.044068
53.140 9.615365
53.145 9.890738
53.150 10.088304
53.155 10.285741
53.160 10.62689
53.165 10.808259
53.170 10.369004
53.175 10.106763
53.180 9.870358
53.185 9.639707
53.190 10.072168
53.195 10.347006
53.200 10.368534
53.205 10.221414
53.210 10.087012
53.215 10.640322
53.220 11.218843
53.225 11.518862
53.230 10.9418
53.235 10.863441
53.240 10.924946
53.245 10.734028
53.250 10.26479
53.255 10.032516
53.260 9.592018
53.265 9.861814
53.270 9.840049
53.275 9.753231
53.280 10.105649
53.285 10.41526
53.290 10.162004
53.295 9.875997
53.300 9.805677
53.305 9.944076
53.310 9.904188
53.315 9.391112
53.320 9.046909
53.325 9.426521
53.330 9.908487
53.335 10.515384
53.340 10.957245
53.345 10.905934
53.350 11.494538
53.355 11.703441
53.360 11.320562
53.365 10.877197
53.370 10.516549
53.375 10.486556
53.380 10.44431
53.385 9.924254
53.390 9.991594
53.395 10.273909
53.400 10.330041
53.405 9.828875
53.410 9.69348
53.415 9.714492
53.420 10.437803
53.425 10.544427
53.430 10.444978
53.435 10.606903
53.440 10.858654
53.445 10.886981
53.450 10.691243
53.455 10.36257
53.460 10.189078
53.465 10.644005
53.470 10.797854
53.475 10.607085
53.480 10.755382
53.485 10.86275
53.490 10.315372
53.495 10.131502
53.500 9.898273
53.505 10.055206
53.510 10.206793
53.515 10.271651
53.520 10.416106
53.525 11.029774
53.530 10.942042
53.535 10.347272
53.540 10.335547
53.545 10.714532
53.550 10.749391
53.555 11.203788
53.560 10.977238
53.565 11.247825
53.570 11.522908
53.575 11.404512
53.580 11.139281
53.585 10.835678
53.590 10.796063
53.595 11.132181
53.600 11.265097
53.605 11.192936
53.610 10.972578
53.615 11.132415
53.620 11.536496
53.625 11.07174
53.630 10.927173
53.635 10.832712
53.640 10.827607
53.645 10.745788
53.650 10.677727
53.655 10.546698
53.660 10.938972
53.665 10.85799
53.670 10.766778
53.675 11.136199
53.680 11.267597
53.685 11.451238
53.690 11.153181
53.695 11.238414
53.700 11.772279
53.705 11.747792
53.710 11.541076
53.715 11.547684
53.720 11.315044
53.725 11.346494
53.730 11.192557
53.735 11.552311
53.740 11.719482
53.745 11.519506
53.750 11.362688
53.755 11.36234
53.760 11.095243
53.765 10.839978
53.770 10.355288
53.775 10.320249
53.780 10.531264
53.785 10.772378
53.790 11.136232
53.795 11.298331
53.800 11.318329
53.805 11.164353
53.810 11.404658
53.815 11.636126
53.820 11.765079
53.825 12.011311
53.830 12.124184
53.835 12.201645
53.840 11.972023
53.845 11.59091
53.850 11.384217
53.855 11.561019
53.860 10.918505
53.865 10.17305
53.870 10.05916
53.875 10.418777
53.880 10.272916
53.885 10.083954
53.890 9.865772
53.895 10.598083
53.900 10.939833
53.905 10.77281
53.910 10.627766
53.915 10.897991
53.920 10.829381
53.925 11.212506
53.930 11.478673
53.935 11.961032
53.940 12.434376
53.945 12.060029
53.950 11.731207
53.955 11.505497
53.960 10.641923
53.965 10.548779
53.970 10.121854
53.975 10.081952
53.980 10.3648
53.985 10.501529
53.990 10.736227
53.995 10.800784
54.000 10.178331
54.005 10.233901
54.010 10.162263
54.015 10.367926
54.020 10.334701
54.025 10.5115
54.030 10.601472
54.035 10.748713
54.040 10.655666
54.045 10.581254
54.050 10.384615
54.055 10.332758
54.060 10.360733
54.065 11.130882
54.070 11.694323
54.075 11.74371
54.080 11.924506
54.085 12.038363
54.090 11.880838
54.095 11.614535
54.100 10.790827
54.105 10.528758
54.110 10.796573
54.115 10.807077
54.120 10.636642
54.125 11.0519
54.130 11.432857
54.135 12.011686
54.140 12.286505
54.145 11.967597
54.150 11.849647
54.155 12.341948
54.160 12.116143
54.165 11.724049
54.170 11.16414
54.175 10.716778
54.180 10.485105
54.185 10.703707
54.190 10.483559
54.195 10.77866
54.200 11.463276
54.205 11.599116
54.210 11.56654
54.215 11.741417
54.220 11.607283
54.225 11.407959
54.230 11.396588
54.235 12.060996
54.240 12.125483
54.245 12.222695
54.250 12.165687
54.255 11.853146
54.260 11.601328
54.265 11.299048
54.270 10.565951
54.275 10.790718
54.280 10.890087
54.285 10.701215
54.290 10.724644
54.295 11.03153
54.300 11.004086
54.305 11.123768
54.310 11.109614
54.315 11.153296
54.320 11.629984
54.325 12.053387
54.330 12.348137
54.335 12.268331
54.340 12.193424
54.345 12.515312
54.350 12.51217
54.355 12.360065
54.360 12.213163
54.365 11.620052
54.370 11.279799
54.375 11.204457
54.380 11.016047
54.385 10.930555
54.390 11.68584
54.395 11.728286
54.400 11.680433
54.405 12.137733
54.410 11.729441
54.415 11.994487
54.420 12.070989
54.425 11.246995
54.430 11.262592
54.435 11.416897
54.440 11.606446
54.445 11.515071
54.450 11.318094
54.455 11.366852
54.460 11.334198
54.465 11.347112
54.470 11.472789
54.475 11.625221
54.480 11.750361
54.485 11.631679
54.490 11.213554
54.495 10.954913
54.500 10.538907
54.505 10.087068
54.510 10.217257
54.515 10.151474
54.520 10.415231
54.525 11.062696
54.530 11.814197
54.535 12.108738
54.540 11.99137
54.545 12.224135
54.550 12.611821
54.555 12.681901
54.560 11.783109
54.565 11.60092
54.570 12.155367
54.575 12.234347
54.580 11.557908
54.585 11.327583
54.590 11.084836
54.595 11.613988
54.600 11.406284
54.605 11.380355
54.610 11.639536
54.615 12.008735
54.620 12.129896
54.625 12.524263
54.630 12.732789
54.635 12.953671
54.640 13.102899
54.645 13.273029
54.650 13.242906
54.655 13.21899
54.660 13.709729
54.665 13.916473
54.670 13.819033
54.675 13.166033
54.680 12.939674
54.685 12.686055
54.690 12.179062
54.695 11.432757
54.700 11.380933
54.705 11.46083
54.710 11.575306
54.715 11.290914
54.720 11.538133
54.725 12.164849
54.730 12.005779
54.735 11.638669
54.740 11.418946
54.745 11.596283
54.750 12.19111
54.755 11.995987
54.760 12.10586
54.765 12.482432
54.770 12.855836
54.775 13.514704
54.780 13.017079
54.785 12.534452
54.790 12.675177
54.795 12.608688
54.800 12.487781
54.805 12.00504
54.810 11.424039
54.815 11.668126
54.820 11.967244
54.825 11.718532
54.830 11.482704
54.835 11.504878
54.840 11.636827
54.845 11.641876
54.850 11.882317
54.855 11.932238
54.860 12.049155
54.865 12.153646
54.870 12.127167
54.875 12.269024
54.880 12.809868
54.885 12.896095
54.890 12.884007
54.895 12.90575
54.900 12.888964
54.905 12.610081
54.910 12.857077
54.915 12.733023
54.920 12.361786
54.925 11.66784
54.930 11.360268
54.935 11.492122
54.940 11.844846
54.945 11.572979
54.950 11.528264
54.955 11.983745
54.960 12.970957
54.965 13.287864
54.970 13.268528
54.975 12.935517
54.980 12.892035
54.985 12.940834
54.990 12.497572
54.995 11.615326
55.000 11.309584
55.005 11.304872
55.010 11.613985
55.015 11.492543
55.020 11.620075
55.025 12.246508
55.030 12.547138
55.035 12.337741
55.040 12.423415
55.045 12.323303
55.050 12.51715
55.055 12.568876
55.060 12.413374
55.065 12.13613
55.070 12.081412
55.075 11.731133
55.080 11.892591
55.085 11.902621
55.090 11.611871
55.095 11.527313
55.100 11.91098
55.105 12.154954
55.110 12.124979
55.115 12.245667
55.120 12.379661
55.125 12.334632
55.130 12.704764
55.135 12.689531
55.140 12.550927
55.145 12.285521
55.150 11.877063
55.155 12.013158
55.160 12.48624
55.165 12.180539
55.170 12.487102
55.175 12.940656
55.180 13.104115
55.185 13.448334
55.190 13.139655
55.195 12.93119
55.200 13.231627
55.205 13.168471
55.210 12.766704
55.215 12.782886
55.220 12.583416
55.225 12.19318
55.230 12.152005
55.235 12.191188
55.240 12.178251
55.245 12.426917
55.250 12.289057
55.255 12.37867
55.260 12.206817
55.265 11.939011
55.270 11.72187
55.275 11.809009
55.280 11.589923
55.285 11.877179
55.290 11.692954
55.295 12.362449
55.300 12.668985
55.305 12.733124
55.310 12.734403
55.315 12.490698
55.320 12.323648
55.325 13.017965
55.330 12.912045
55.335 12.383379
55.340 12.141259
55.345 12.50547
55.350 12.937338
55.355 12.836688
55.360 12.348673
55.365 11.855559
55.370 11.686703
55.375 11.95451
55.380 11.481539
55.385 11.079533
55.390 11.246452
55.395 11.714246
55.400 12.18613
55.405 12.767962
55.410 12.357963
55.415 12.737823
55.420 13.121307
55.425 12.915854
55.430 12.603382
55.435 12.588951
55.440 12.578031
55.445 12.73266
55.450 12.941291
55.455 12.726753
55.460 12.727083
55.465 13.336195
55.470 13.249299
55.475 13.035591
55.480 13.007046
55.485 12.831706
55.490 13.092416
55.495 12.717767
55.500 12.323045
55.505 11.982626
55.510 11.79102
55.515 11.510757
55.520 11.188029
55.525 11.076064
55.530 10.69922
55.535 10.963523
55.540 10.983662
55.545 11.304911
55.550 11.872238
55.555 12.361991
55.560 12.33825
55.565 12.426819
55.570 12.192593
55.575 12.474112
55.580 12.487718
55.585 12.476796
55.590 12.634456
55.595 12.84992
55.600 13.046864
55.605 13.264397
55.610 13.598894
55.615 13.504687
55.620 13.93072
55.625 14.139349
55.630 14.156899
55.635 14.276188
55.640 13.490378
55.645 12.922379
55.650 13.023685
55.655 12.401861
55.660 12.08389
55.665 12.269216
55.670 12.450285
55.675 12.570107
55.680 12.502006
55.685 12.095647
55.690 11.795629
55.695 11.782566
55.700 11.965528
55.705 11.898753
55.710 12.306292
55.715 12.798372
55.720 13.359657
55.725 13.614301
55.730 13.886631
55.735 13.610709
55.740 13.873774
55.745 13.565987
55.750 13.356559
55.755 12.905847
55.760 12.267192
55.765 11.581595
55.770 11.532955
55.775 12.048469
55.780 12.150638
55.785 12.568225
55.790 13.047204
55.795 13.451051
55.800 14.384733
55.805 14.345871
55.810 13.918206
55.815 14.027119
55.820 13.878778
55.825 13.689981
55.830 13.879278
55.835 13.485486
55.840 13.3392
55.845 13.72733
55.850 13.785162
55.855 13.320776
55.860 13.013395
55.865 12.726098
55.870 13.227066
55.875 13.294418
55.880 12.807104
55.885 12.446087
55.890 12.53635
55.895 12.832181
55.900 12.644409
55.905 12.466437
55.910 12.921593
55.915 13.073721
55.920 13.735896
55.925 14.100139
55.930 14.372199
55.935 14.598676
55.940 13.969102
55.945 14.263594
55.950 14.605241
55.955 14.374983
55.960 14.230149
55.965 13.696198
55.970 13.825933
55.975 13.694613
55.980 13.461684
55.985 13.461405
55.990 13.431871
55.995 13.096682
56.000 13.003416
56.005 13.05256
56.010 12.956951
56.015 12.612018
56.020 12.174475
56.025 11.989038
56.030 12.379429
56.035 12.809322
56.040 12.340747
56.045 12.515903
56.050 12.364618
56.055 12.737473
56.060 12.93201
56.065 13.052032
56.070 13.306921
56.075 13.580376
56.080 13.280488
56.085 13.321443
56.090 12.923778
56.095 12.685321
56.100 12.346462
56.105 12.191296
56.110 12.047452
56.115 11.891299
56.120 11.846532
56.125 12.713982
56.130 12.943533
56.135 12.886199
56.140 13.084165
56.145 13.261855
56.150 13.808816
56.155 14.357176
56.160 13.743372
56.165 13.452229
56.170 13.242694
56.175 12.978208
56.180 13.103802
56.185 12.732509
56.190 12.137954
56.195 12.171268
56.200 12.407321
56.205 12.377304
56.210 12.497352
56.215 12.802799
56.220 13.132463
56.225 13.04859
56.230 13.309413
56.235 13.230732
56.240 13.405845
56.245 13.421862
56.250 12.931627
56.255 13.075211
56.260 12.841735
56.265 13.197626
56.270 13.440462
56.275 13.586913
56.280 13.49529
56.285 13.508288
56.290 13.348566
56.295 13.416713
56.300 12.854074
56.305 12.956388
56.310 13.240687
56.315 13.757807
56.320 13.71815
56.325 13.54937
56.330 13.265229
56.335 13.443336
56.340 13.144306
56.345 12.863984
56.350 12.584673
56.355 12.30391
56.360 12.612935
56.365 13.257093
56.370 13.492711
56.375 13.842227
56.380 13.455384
56.385 13.731728
56.390 14.424703
56.395 14.57736
56.400 14.551023
56.405 14.549774
56.410 14.920054
56.415 15.299445
56.420 14.687146
56.425 14.30418
56.430 13.812069
56.435 13.462019
56.440 13.142849
56.445 12.479719
56.450 12.162597
56.455 12.228277
56.460 12.328871
56.465 13.317474
56.470 13.775251
56.475 14.165121
56.480 14.719002
56.485 14.884568
56.490 15.166362
56.495 14.90541
56.500 14.410758
56.505 13.885573
56.510 13.661094
56.515 13.421535
56.520 13.364433
56.525 13.776094
56.530 13.890291
56.535 14.099045
56.540 14.452191
56.545 14.565644
56.550 14.662071
56.555 14.42953
56.560 13.978537
56.565 13.53356
56.570 12.938402
56.575 12.700028
56.580 12.62851
56.585 12.847025
56.590 13.314837
56.595 13.173359
56.600 13.408899
56.605 13.455239
56.610 13.051883
56.615 12.699534
56.620 12.802536
56.625 12.640598
56.630 13.006467
56.635 13.11574
56.640 13.297389
56.645 13.263651
56.650 13.52354
56.655 13.248739
56.660 13.162399
56.665 13.603435
56.670 13.675784
56.675 13.891498
56.680 14.340857
56.685 14.549071
56.690 15.278515
56.695 15.527007
56.700 14.94905
56.705 14.62821
56.710 15.206679
56.715 15.369883
56.720 15.549892
56.725 14.749579
56.730 15.429165
56.735 16.250702
56.740 16.652313
56.745 16.441196
56.750 16.234489
56.755 15.773856
56.760 15.780732
56.765 14.81017
56.770 14.621314
56.775 15.079405
56.780 15.225129
56.785 15.149992
56.790 15.30969
56.795 15.126752
56.800 15.289748
56.805 14.986925
56.810 14.612257
56.815 14.508046
56.820 14.474414
56.825 14.735839
56.830 14.656099
56.835 14.505119
56.840 14.315568
56.845 13.501464
56.850 13.350768
56.855 13.01535
56.860 12.643384
56.865 13.071144
56.870 13.042338
56.875 13.45029
56.880 14.428578
56.885 14.901989
56.890 15.228048
56.895 15.600471
56.900 15.381097
56.905 15.614025
56.910 15.547194
56.915 14.895244
56.920 14.327347
56.925 14.345131
56.930 14.353443
56.935 14.774768
56.940 14.662342
56.945 14.732815
56.950 14.735021
56.955 14.836612
56.960 15.546034
56.965 15.868477
56.970 15.210653
56.975 15.16364
56.980 15.190557
56.985 15.598895
56.990 15.470456
56.995 14.822088
57.000 14.320368
57.005 14.746536
57.010 14.81299
57.015 15.196131
57.020 15.126521
57.025 14.756897
57.030 14.233334
57.035 14.067812
57.040 13.714024
57.045 13.633371
57.050 13.440498
57.055 13.639513
57.060 14.197701
57.065 14.871939
57.070 15.647611
57.075 15.990715
57.080 15.597054
57.085 15.424375
57.090 15.200065
57.095 14.591908
57.100 14.303084
57.105 14.068299
57.110 14.135181
57.115 14.320646
57.120 14.293654
57.125 14.306272
57.130 14.6383
57.135 14.464887
57.140 14.121988
57.145 14.097967
57.150 13.738534
57.155 13.261237
57.160 13.268921
57.165 13.229142
57.170 13.097631
57.175 13.199987
57.180 13.607117
57.185 13.935617
57.190 14.203575
57.195 14.589616
57.200 14.684643
57.205 14.796801
57.210 14.212071
57.215 13.357127
57.220 13.183966
57.225 13.331922
57.230 13.193355
57.235 12.883928
57.240 13.194827
57.245 13.542694
57.250 13.937073
57.255 13.763994
57.260 13.459394
57.265 13.191226
57.270 14.199522
57.275 14.531172
57.280 14.398045
57.285 14.426923
57.290 14.649923
57.295 14.956792
57.300 14.897415
57.305 14.289579
57.310 14.18762
57.315 14.445973
57.320 14.713451
57.325 14.318205
57.330 14.417627
57.335 14.825691
57.340 14.807284
57.345 14.911498
57.350 14.725907
57.355 14.738542
57.360 15.399113
57.365 15.538436
57.370 15.375676
57.375 15.411972
57.380 15.360936
57.385 15.598549
57.390 15.841458
57.395 16.201746
57.400 16.372417
57.405 16.413029
57.410 16.408358
57.415 16.429937
57.420 16.378908
57.425 15.954872
57.430 15.409707
57.435 15.662557
57.440 15.718866
57.445 16.004944
57.450 15.906527
57.455 16.0951
57.460 16.346684
57.465 15.888262
57.470 15.5821
57.475 15.500958
57.480 14.962356
57.485 14.598999
57.490 14.282601
57.495 14.536964
57.500 14.630888
57.505 14.431551
57.510 14.846225
57.515 15.435167
57.520 15.619411
57.525 15.756329
57.530 16.077017
57.535 16.431751
57.540 16.16033
57.545 15.562369
57.550 15.072851
57.555 15.120606
57.560 14.825935
57.565 14.153285
57.570 14.018324
57.575 13.998876
57.580 14.269995
57.585 14.872756
57.590 15.171907
57.595 15.800233
57.600 16.492323
57.605 16.599764
57.610 17.595285
57.615 17.701225
57.620 17.589731
57.625 17.041872
57.630 16.227396
57.635 15.964951
57.640 16.298243
57.645 15.400326
57.650 14.947545
57.655 14.882566
57.660 15.451528
57.665 15.814788
57.670 15.738525
57.675 15.537762
57.680 15.671998
57.685 16.010187
57.690 16.528156
57.695 16.492695
57.700 16.56353
57.705 16.586578
57.710 16.472929
57.715 16.478359
57.720 16.297987
57.725 16.200157
57.730 15.846571
57.735 15.728712
57.740 15.329416
57.745 15.572171
57.750 15.909615
57.755 15.8926
57.760 15.527033
57.765 15.970606
57.770 16.127981
57.775 16.362375
57.780 15.92622
57.785 15.919475
57.790 15.752134
57.795 15.68714
57.800 15.995246
57.805 15.766912
57.810 16.652128
57.815 16.762243
57.820 16.623407
57.825 16.588581
57.830 16.663345
57.835 16.354143
57.840 16.14098
57.845 15.515331
57.850 16.249533
57.855 16.87578
57.860 17.154568
57.865 17.481356
57.870 17.756794
57.875 18.19665
57.880 18.099644
57.885 17.158228
57.890 16.963369
57.895 16.915773
57.900 16.811279
57.905 16.717073
57.910 16.344872
57.915 16.630898
57.920 16.683977
57.925 16.06304
57.930 15.953763
57.935 15.424242
57.940 15.707047
57.945 15.931102
57.950 15.637435
57.955 16.023527
57.960 16.861263
57.965 17.632536
57.970 18.027922
57.975 17.730095
57.980 17.696148
57.985 17.935783
57.990 18.164709
57.995 17.658426
58.000 16.551783
58.005 16.10783
58.010 16.127417
58.015 16.244179
58.020 16.255831
58.025 16.180426
58.030 16.262678
58.035 16.337816
58.040 17.247236
58.045 17.71546
58.050 18.099766
58.055 18.512764
58.060 18.516825
58.065 19.301895
58.070 20.23881
58.075 20.135891
58.080 19.705429
58.085 19.141783
58.090 18.901016
58.095 18.984541
58.100 18.556952
58.105 18.623264
58.110 18.371593
58.115 18.753403
58.120 19.112265
58.125 19.214531
58.130 19.362324
58.135 19.672522
58.140 20.108992
58.145 20.90489
58.150 20.918036
58.155 20.417568
58.160 19.624512
58.165 19.206036
58.170 19.312885
58.175 18.868792
58.180 18.225149
58.185 17.83227
58.190 18.540323
58.195 18.826633
58.200 18.702841
58.205 18.625044
58.210 18.634123
58.215 18.716961
58.220 18.859854
58.225 19.007818
58.230 19.603056
58.235 19.756626
58.240 19.243919
58.245 19.555502
58.250 19.64963
58.255 19.946503
58.260 19.900064
58.265 19.69198
58.270 19.87471
58.275 20.502808
58.280 20.446096
58.285 20.368084
58.290 20.489447
58.295 20.703787
58.300 20.673927
58.305 20.500828
58.310 20.472033
58.315 20.633593
58.320 21.627087
58.325 21.589123
58.330 21.596895
58.335 21.797596
58.340 22.728584
58.345 23.135895
58.350 22.672073
58.355 22.668007
58.360 23.413088
58.365 23.965611
58.370 24.424601
58.375 24.031733
58.380 23.791637
58.385 24.005095
58.390 23.309258
58.395 22.859776
58.400 23.255224
58.405 22.899469
58.410 22.762169
58.415 23.021776
58.420 23.47192
58.425 24.827059
58.430 25.839184
58.435 25.660486
58.440 26.609875
58.445 27.170212
58.450 27.964281
58.455 28.413103
58.460 27.711775
58.465 27.055592
58.470 27.611963
58.475 27.460253
58.480 27.957666
58.485 28.307547
58.490 28.63129
58.495 29.324411
58.500 30.844883
58.505 31.836475
58.510 32.83577
58.515 33.342205
58.520 32.948444
58.525 33.223991
58.530 32.922939
58.535 32.22155
58.540 31.7068
58.545 31.601736
58.550 30.825354
58.555 31.077124
58.560 31.306728
58.565 31.644924
58.570 32.047825
58.575 32.079884
58.580 31.749899
58.585 31.793667
58.590 31.492062
58.595 31.422131
58.600 30.984999
58.605 30.332188
58.610 30.396799
58.615 30.545982
58.620 31.222897
58.625 31.677118
58.630 31.779806
58.635 32.179077
58.640 32.208012
58.645 31.761337
58.650 31.732203
58.655 31.401775
58.660 31.463127
58.665 31.712584
58.670 31.215652
58.675 31.08499
58.680 30.648617
58.685 30.014088
58.690 30.105602
58.695 29.621422
58.700 28.034039
58.705 27.576591
58.710 26.894848
58.715 27.146658
58.720 26.715942
58.725 26.454624
58.730 26.591608
58.735 27.895672
58.740 29.166252
58.745 29.81901
58.750 29.46772
58.755 29.294037
58.760 28.73328
58.765 27.427547
58.770 25.921638
58.775 24.834478
58.780 24.289974
58.785 24.498838
58.790 24.924955
58.795 24.795706
58.800 24.670473
58.805 25.098841
58.810 24.250088
58.815 23.774723
58.820 23.326483
58.825 22.989054
58.830 22.983732
58.835 22.877968
58.840 22.232697
58.845 22.470654
58.850 23.080816
58.855 23.206776
58.860 22.957645
58.865 23.009232
58.870 23.253933
58.875 23.735435
58.880 23.766001
58.885 23.246748
58.890 23.11628
58.895 23.334085
58.900 23.065369
58.905 22.815742
58.910 22.658218
58.915 22.312836
58.920 22.30246
58.925 22.506124
58.930 22.385939
58.935 22.016998
58.940 21.324358
58.945 21.232513
58.950 20.704205
58.955 20.348324
58.960 19.465836
58.965 18.996298
58.970 18.868082
58.975 19.058712
58.980 18.854256
58.985 18.897362
58.990 18.627186
58.995 19.235031
59.000 19.756153
59.005 20.106714
59.010 20.044634
59.015 20.273119
59.020 20.125832
59.025 20.299822
59.030 20.385595
59.035 20.204565
59.040 20.631872
59.045 20.847895
59.050 20.968563
59.055 20.885979
59.060 20.627789
59.065 19.99955
59.070 20.002136
59.075 19.786074
59.080 19.975903
59.085 19.770908
59.090 19.798965
59.095 20.090147
59.100 19.865471
59.105 19.194984
59.110 18.576128
59.115 17.539402
59.120 16.75157
59.125 16.668449
59.130 17.018021
59.135 17.211542
59.140 17.455683
59.145 17.966995
59.150 18.103367
59.155 18.942919
59.160 18.959551
59.165 18.469225
59.170 18.826796
59.175 18.781168
59.180 19.137291
59.185 19.376078
59.190 19.368853
59.195 19.448402
59.200 19.357922
59.205 19.309654
59.210 19.693882
59.215 19.503748
59.220 19.644785
59.225 19.507385
59.230 19.190588
59.235 18.811426
59.240 18.133558
59.245 17.920435
59.250 17.132608
59.255 17.214819
59.260 17.067186
59.265 17.472492
59.270 17.892546
59.275 18.049221
59.280 18.067495
59.285 17.863626
59.290 17.634674
59.295 18.046936
59.300 17.654854
59.305 17.998707
59.310 17.78932
59.315 17.773672
59.320 18.615225
59.325 18.608173
59.330 18.850126
59.335 19.325169
59.340 18.884245
59.345 18.724239
59.350 18.466797
59.355 17.742626
59.360 17.624111
59.365 17.228281
59.370 16.322254
59.375 16.049086
59.380 15.972634
59.385 15.757811
59.390 16.340487
59.395 15.673507
59.400 15.72454
59.405 16.282278
59.410 16.376596
59.415 16.429655
59.420 16.557858
59.425 16.275213
59.430 16.923708
59.435 16.978647
59.440 17.128643
59.445 17.474428
59.450 17.544069
59.455 17.396526
59.460 16.624901
59.465 16.400198
59.470 16.675846
59.475 16.53434
59.480 16.254614
59.485 15.884613
59.490 15.99833
59.495 16.555964
59.500 16.037849
59.505 15.874056
59.510 15.750147
59.515 16.149075
59.520 16.635237
59.525 16.708366
59.530 16.877071
59.535 17.403923
59.540 17.279072
59.545 17.480526
59.550 17.47979
59.555 17.703609
59.560 17.674202
59.565 17.240078
59.570 16.685862
59.575 16.592196
59.580 16.864195
59.585 16.824448
59.590 16.680666
59.595 16.791842
59.600 17.809536
59.605 18.180168
59.610 18.538235
59.615 18.102304
59.620 17.814688
59.625 17.70817
59.630 17.424282
59.635 16.598261
59.640 16.228907
59.645 15.84787
59.650 16.030107
59.655 16.517239
59.660 16.961235
59.665 17.297991
59.670 17.045834
59.675 17.166996
59.680 17.381769
59.685 17.542471
59.690 17.352282
59.695 17.141052
59.700 17.722313
59.705 18.484594
59.710 18.608797
59.715 17.958189
59.720 17.723406
59.725 17.344782
59.730 17.197824
59.735 17.001637
59.740 17.131992
59.745 16.975403
59.750 17.355858
59.755 17.890909
59.760 18.318823
59.765 18.450878
59.770 18.300333
59.775 18.043049
59.780 18.433662
59.785 18.112362
59.790 17.472736
59.795 16.772846
59.800 16.050062
59.805 15.925831
59.810 15.549748
59.815 15.465756
59.820 15.947792
59.825 16.022961
59.830 16.498119
59.835 16.976776
59.840 16.958155
59.845 17.425848
59.850 17.397144
59.855 16.876669
59.860 16.827898
59.865 16.626028
59.870 16.588547
59.875 17.006136
59.880 16.925245
59.885 16.844572
59.890 17.008648
59.895 17.161503
59.900 17.157824
59.905 16.999672
59.910 16.951147
59.915 17.426647
59.920 17.466982
59.925 17.358105
59.930 17.012831
59.935 17.006718
59.940 16.968504
59.945 16.00157
59.950 15.535245
59.955 15.579277
59.960 15.801651
59.965 16.024826
59.970 15.662532
59.975 15.713835
59.980 15.714599
59.985 15.920647
59.990 16.525585
59.995 16.906721
60.000 17.140388
60.005 17.86677
60.010 18.050465
60.015 18.47348
60.020 17.772631
60.025 17.745344
60.030 17.22637
60.035 16.721767
60.040 16.234997
60.045 16.02413
60.050 16.224377
60.055 16.148933
60.060 15.760747
60.065 16.044895
60.070 16.719561
60.075 16.986925
60.080 16.776634
60.085 16.358162
60.090 16.585436
60.095 16.767523
60.100 17.064249
60.105 16.44492
60.110 16.140293
60.115 16.824867
60.120 17.6248
60.125 18.17605
60.130 17.939106
60.135 17.780128
60.140 18.552929
60.145 18.886597
60.150 18.296928
60.155 17.548233
60.160 16.686213
60.165 16.36237
60.170 16.476044
60.175 16.106638
60.180 15.694718
60.185 15.723665
60.190 15.747392
60.195 15.778067
60.200 15.617732
60.205 15.114631
60.210 14.652756
60.215 14.713175
60.220 14.781498
60.225 15.134524
60.230 15.483343
60.235 15.64239
60.240 15.911689
60.245 16.14645
60.250 16.239525
60.255 16.743858
60.260 16.37324
60.265 16.25148
60.270 16.318016
60.275 16.155909
60.280 16.316465
60.285 16.187757
60.290 15.602928
60.295 15.905272
60.300 15.863956
60.305 15.879965
60.310 15.768553
60.315 15.74774
60.320 16.471889
60.325 16.133474
60.330 15.837455
60.335 16.039648
60.340 15.888829
60.345 16.026295
60.350 15.749759
60.355 15.184647
60.360 15.474026
60.365 15.47791
60.370 15.619745
60.375 15.780361
60.380 16.023893
60.385 16.163172
60.390 15.846549
60.395 16.195873
60.400 15.79283
60.405 15.729999
60.410 15.817879
60.415 15.683692
60.420 16.170778
60.425 15.997628
60.430 15.609184
60.435 15.862961
60.440 15.267272
60.445 15.22671
60.450 15.224606
60.455 15.289198
60.460 15.597763
60.465 15.699952
60.470 15.741675
60.475 15.993334
60.480 16.509232
60.485 16.340096
60.490 16.242569
60.495 16.231142
60.500 15.812572
60.505 16.316906
60.510 16.183428
60.515 16.120832
60.520 16.397675
60.525 16.138962
60.530 15.905325
60.535 16.209108
60.540 15.754286
60.545 16.238228
60.550 16.331167
60.555 16.040224
60.560 15.751654
60.565 16.040813
60.570 16.584631
60.575 16.825302
60.580 16.260794
60.585 16.078531
60.590 16.269295
60.595 16.915573
60.600 17.153677
60.605 16.658321
60.610 16.6973
60.615 16.970146
60.620 16.82625
60.625 16.499908
60.630 16.573828
60.635 16.16011
60.640 16.077333
60.645 16.386497
60.650 16.000483
60.655 15.922235
60.660 16.385435
60.665 16.376648
60.670 16.476524
60.675 16.024792
60.680 15.584036
60.685 15.338581
60.690 15.390454
60.695 15.454525
60.700 15.49872
60.705 16.045366
60.710 16.041504
60.715 15.432108
60.720 15.527864
60.725 15.433841
60.730 15.106697
60.735 14.586525
60.740 14.386629
60.745 14.935537
60.750 15.730191
60.755 16.171473
60.760 16.186447
60.765 16.7208
60.770 17.060822
60.775 17.133663
60.780 17.176392
60.785 17.45056
60.790 17.887568
60.795 17.8218
60.800 17.345596
60.805 17.138056
60.810 17.453173
60.815 17.743574
60.820 16.747187
60.825 16.089088
60.830 16.187126
60.835 16.015783
60.840 15.643985
60.845 15.547302
60.850 16.078941
60.855 17.078974
60.860 18.089596
60.865 17.988194
60.870 17.800468
60.875 17.703983
60.880 16.896488
60.885 16.256065
60.890 16.123276
60.895 15.642632
60.900 15.829803
60.905 16.354345
60.910 16.761379
60.915 17.11743
60.920 16.989811
60.925 16.457176
60.930 16.224064
60.935 16.034809
60.940 15.537545
60.945 15.206576
60.950 15.313791
60.955 15.291529
60.960 15.283319
60.965 15.373763
60.970 15.334453
60.975 15.785115
60.980 16.043955
60.985 16.080502
60.990 16.20022
60.995 16.045883
61.000 15.543599
61.005 15.260036
61.010 15.477015
61.015 15.434573
61.020 15.921417
61.025 15.920044
61.030 16.766388
61.035 17.384874
61.040 17.756241
61.045 17.825798
61.050 18.150455
61.055 17.743828
61.060 17.56963
61.065 17.532015
61.070 17.351513
61.075 17.034643
61.080 17.278135
61.085 16.490065
61.090 16.116314
61.095 15.514918
61.100 15.001774
61.105 14.953991
61.110 15.049167
61.115 15.160091
61.120 15.261715
61.125 14.783939
61.130 14.910953
61.135 15.400843
61.140 15.815503
61.145 16.174074
61.150 15.872511
61.155 16.816246
61.160 18.12027
61.165 18.695486
61.170 18.523659
61.175 17.999174
61.180 17.636385
61.185 17.587465
61.190 17.233461
61.195 16.830084
61.200 17.06048
61.205 16.972145
61.210 17.194529
61.215 16.992079
61.220 17.068829
61.225 17.038879
61.230 17.219448
61.235 16.548136
61.240 16.732054
61.245 16.656029
61.250 17.032206
61.255 17.639826
61.260 17.819633
61.265 18.259619
61.270 18.730066
61.275 18.489414
61.280 18.520929
61.285 18.562492
61.290 17.936342
61.295 17.383068
61.300 16.54641
61.305 16.082941
61.310 15.929285
61.315 15.951618
61.320 15.570572
61.325 15.381232
61.330 15.640872
61.335 15.884782
61.340 16.009439
61.345 15.797725
61.350 15.506619
61.355 15.634122
61.360 15.193223
61.365 14.804878
61.370 14.601055
61.375 14.774507
61.380 15.210578
61.385 15.093616
61.390 15.152181
61.395 15.434389
61.400 15.686134
61.405 15.792809
61.410 15.76661
61.415 15.329977
61.420 15.785898
61.425 15.832427
61.430 16.06682
61.435 16.171856
61.440 16.741282
61.445 16.664446
61.450 17.086576
61.455 16.924068
61.460 16.853125
61.465 16.838966
61.470 16.722498
61.475 16.223669
61.480 16.26339
61.485 16.455635
61.490 16.523581
61.495 16.88755
61.500 17.382099
61.505 17.651899
61.510 17.91466
61.515 18.021444
61.520 17.629507
61.525 17.721521
61.530 17.751368
61.535 17.861149
61.540 17.555634
61.545 17.834393
61.550 18.06863
61.555 18.552944
61.560 18.767803
61.565 18.816416
61.570 18.514744
61.575 18.622015
61.580 18.234753
61.585 18.36978
61.590 18.270897
61.595 17.885218
61.600 17.622498
61.605 17.89925
61.610 17.939638
61.615 18.081062
61.620 17.471804
61.625 17.005678
61.630 16.855335
61.635 16.595148
61.640 16.242575
61.645 16.815235
61.650 17.236309
61.655 17.662357
61.660 17.970861
61.665 17.767769
61.670 17.914772
61.675 18.233377
61.680 17.959347
61.685 17.684544
61.690 17.205364
61.695 16.960213
61.700 16.934792
61.705 16.726393
61.710 16.693832
61.715 16.451241
61.720 15.785737
61.725 15.701053
61.730 16.293699
61.735 17.092617
61.740 17.269409
61.745 17.261993
61.750 17.301081
61.755 17.83569
61.760 17.794035
61.765 17.273849
61.770 16.894745
61.775 17.241905
61.780 16.793921
61.785 16.665518
61.790 16.83289
61.795 16.896715
61.800 16.889133
61.805 16.594004
61.810 16.585611
61.815 16.663475
61.820 16.579342
61.825 16.861416
61.830 17.215933
61.835 17.591047
61.840 17.637486
61.845 17.315424
61.850 17.457794
61.855 17.762424
61.860 17.7278
61.865 17.661798
61.870 17.704279
61.875 17.591755
61.880 17.411497
61.885 17.505861
61.890 17.937336
61.895 17.952669
61.900 17.701433
61.905 16.988161
61.910 16.683218
61.915 16.513508
61.920 16.30069
61.925 15.262905
61.930 14.841625
61.935 14.995789
61.940 15.780047
61.945 16.162785
61.950 16.068205
61.955 16.371166
61.960 16.075565
61.965 16.177942
61.970 16.317007
61.975 16.761351
61.980 17.093803
61.985 17.173424
61.990 16.90169
61.995 17.395594
62.000 16.905136
62.005 16.531881
62.010 15.708387
62.015 15.25695
62.020 15.300058
62.025 15.717906
62.030 15.497733
62.035 15.766744
62.040 15.843733
62.045 16.134092
62.050 16.796398
62.055 16.657354
62.060 16.451302
62.065 17.108397
62.070 17.385347
62.075 17.768978
62.080 17.494055
62.085 17.070082
62.090 17.37788
62.095 17.196764
62.100 17.021229
62.105 17.445877
62.110 17.085802
62.115 17.473686
62.120 17.84338
62.125 17.739716
62.130 17.809801
62.135 18.081848
62.140 18.035538
62.145 17.933729
62.150 17.236189
62.155 16.916409
62.160 16.614246
62.165 16.083891
62.170 16.08703
62.175 15.860546
62.180 16.449589
62.185 16.95364
62.190 16.92104
62.195 17.065821
62.200 17.657694
62.205 18.00972
62.210 17.969994
62.215 17.719791
62.220 17.607838
62.225 17.276194
62.230 17.500624
62.235 17.248409
62.240 16.990818
62.245 17.122068
62.250 16.85038
62.255 17.049414
62.260 17.397545
62.265 16.790007
62.270 16.417419
62.275 16.29664
62.280 15.843381
62.285 15.524529
62.290 15.427187
62.295 15.776719
62.300 15.884854
62.305 15.730061
62.310 15.072866
62.315 15.180402
62.320 15.237439
62.325 15.492288
62.330 15.742252
62.335 16.208626
62.340 16.967632
62.345 17.94499
62.350 18.445763
62.355 18.754572
62.360 18.329128
62.365 18.02067
62.370 18.063797
62.375 17.81583
62.380 17.499603
62.385 17.809027
62.390 17.788132
62.395 18.22414
62.400 18.31782
62.405 18.203384
62.410 18.220854
62.415 18.110981
62.420 17.821634
62.425 17.592882
62.430 17.366819
62.435 17.111742
62.440 16.85849
62.445 16.886402
62.450 16.843132
62.455 17.100201
62.460 17.569399
62.465 17.556013
62.470 17.48357
62.475 18.041046
62.480 17.855448
62.485 17.405561
62.490 17.112961
62.495 16.955324
62.500 17.184393
62.505 17.323332
62.510 17.133482
62.515 17.359097
62.520 18.244909
62.525 18.86265
62.530 19.010399
62.535 19.386549
62.540 19.340714
62.545 19.996613
62.550 19.942186
62.555 19.888796
62.560 19.914965
62.565 19.482973
62.570 18.804722
62.575 18.448639
62.580 17.62015
62.585 17.665659
62.590 17.021639
62.595 16.518688
62.600 16.627048
62.605 16.65851
62.610 16.593418
62.615 16.58078
62.620 16.126177
62.625 16.777716
62.630 17.191328
62.635 17.693003
62.640 17.802685
62.645 18.171219
62.650 18.629061
62.655 18.977924
62.660 18.811661
62.665 18.41156
62.670 18.126997
62.675 18.180328
62.680 18.419714
62.685 18.181267
62.690 18.093777
62.695 17.68503
62.700 17.800152
62.705 18.065191
62.710 18.515963
62.715 18.286043
62.720 18.463888
62.725 18.579155
62.730 19.002838
62.735 18.833683
62.740 18.470797
62.745 18.378321
62.750 18.032669
62.755 17.895403
62.760 17.987469
62.765 18.252897
62.770 18.672966
62.775 18.163956
62.780 17.870108
62.785 18.147671
62.790 18.409986
62.795 18.545286
62.800 18.160168
62.805 18.240858
62.810 18.685211
62.815 19.150957
62.820 19.517229
62.825 19.715633
62.830 19.249084
62.835 19.043579
62.840 18.405531
62.845 18.145779
62.850 18.003799
62.855 17.662287
62.860 17.450407
62.865 17.899546
62.870 18.532368
62.875 19.239155
62.880 19.924433
62.885 20.120579
62.890 20.216721
62.895 19.700735
62.900 19.511837
62.905 19.137814
62.910 18.72871
62.915 17.653341
62.920 17.263365
62.925 17.706074
62.930 18.039949
62.935 17.448776
62.940 16.844561
62.945 16.497585
62.950 16.747492
62.955 16.237923
62.960 15.921796
62.965 16.202229
62.970 17.040709
62.975 17.926807
62.980 18.61997
62.985 18.918615
62.990 19.228472
62.995 19.104841
63.000 19.129499
63.005 19.537382
63.010 19.090857
63.015 19.010807
63.020 19.096445
63.025 19.353132
63.030 19.044317
63.035 18.582258
63.040 17.427341
63.045 17.553467
63.050 17.467379
63.055 17.552759
63.060 17.720963
63.065 17.857603
63.070 17.509396
63.075 17.703409
63.080 17.705143
63.085 17.429832
63.090 16.975403
63.095 16.67753
63.100 16.927462
63.105 17.804226
63.110 18.259346
63.115 18.845806
63.120 19.363695
63.125 19.562922
63.130 19.314062
63.135 19.404526
63.140 19.27169
63.145 19.308285
63.150 19.037367
63.155 18.743181
63.160 19.287931
63.165 19.58462
63.170 19.33231
63.175 19.411663
63.180 19.518892
63.185 19.32382
63.190 19.259108
63.195 18.677376
63.200 18.424606
63.205 18.581217
63.210 18.310493
63.215 17.879332
63.220 17.977472
63.225 17.957067
63.230 18.150202
63.235 18.546803
63.240 18.746721
63.245 18.406309
63.250 18.208292
63.255 18.372536
63.260 18.627497
63.265 18.779579
63.270 18.891205
63.275 19.126114
63.280 19.713606
63.285 19.836964
63.290 19.792261
63.295 19.568558
63.300 20.012915
63.305 20.732414
63.310 20.688471
63.315 20.257397
63.320 20.250105
63.325 19.816872
63.330 19.687263
63.335 19.17021
63.340 18.256605
63.345 18.123087
63.350 18.506042
63.355 18.657431
63.360 18.954401
63.365 19.461367
63.370 19.194614
63.375 18.989515
63.380 18.562599
63.385 18.182213
63.390 17.942533
63.395 18.101383
63.400 17.715775
63.405 17.819885
63.410 17.973948
63.415 18.144804
63.420 18.645466
63.425 18.87944
63.430 18.8195
63.435 18.673332
63.440 18.606464
63.445 18.7278
63.450 19.135899
63.455 18.79875
63.460 18.939459
63.465 19.020531
63.470 19.661676
63.475 20.096581
63.480 20.115948
63.485 20.06806
63.490 19.835939
63.495 19.807552
63.500 19.434444
63.505 19.46839
63.510 19.351276
63.515 19.388794
63.520 19.077124
63.525 18.590656
63.530 18.325958
63.535 19.059166
63.540 18.67415
63.545 18.532751
63.550 18.155302
63.555 17.928082
63.560 18.365448
63.565 18.816139
63.570 18.047186
63.575 18.046074
63.580 17.666027
63.585 18.041807
63.590 18.447399
63.595 18.958454
63.600 18.82513
63.605 19.198851
63.610 19.443888
63.615 20.139601
63.620 20.114189
63.625 19.996017
63.630 19.904219
63.635 20.172497
63.640 20.306849
63.645 20.617899
63.650 20.403742
63.655 20.806511
63.660 20.830202
63.665 20.987539
63.670 21.539633
63.675 21.511906
63.680 21.562115
63.685 21.838499
63.690 22.129639
63.695 22.302372
63.700 22.178837
63.705 21.979483
63.710 21.854616
63.715 21.168713
63.720 21.198694
63.725 20.76482
63.730 20.712395
63.735 19.982718
63.740 19.494843
63.745 19.268509
63.750 19.223141
63.755 19.310917
63.760 19.341051
63.765 19.704851
63.770 20.723867
63.775 20.78471
63.780 21.196444
63.785 20.922565
63.790 21.000788
63.795 21.415434
63.800 21.302916
63.805 20.446001
63.810 20.264521
63.815 20.842314
63.820 21.260759
63.825 20.774878
63.830 20.429607
63.835 20.728241
63.840 21.11298
63.845 21.318644
63.850 21.363285
63.855 21.388983
63.860 21.603474
63.865 21.849976
63.870 21.426744
63.875 21.393175
63.880 22.369684
63.885 22.811008
63.890 22.641676
63.895 22.515467
63.900 22.201826
63.905 22.458467
63.910 23.233446
63.915 22.606709
63.920 22.381987
63.925 22.967348
63.930 23.124994
63.935 23.612835
63.940 23.870073
63.945 23.596008
63.950 23.931559
63.955 24.427553
63.960 24.686363
63.965 25.566553
63.970 25.641615
63.975 25.677763
63.980 25.916502
63.985 26.003662
63.990 26.116068
63.995 25.96829
64.000 25.954748
64.005 26.449583
64.010 27.07094
64.015 27.80476
64.020 27.970675
64.025 28.239313
64.030 28.969679
64.035 28.895241
64.040 28.871449
64.045 29.151804
64.050 28.923609
64.055 29.084253
64.060 28.484659
64.065 28.602051
64.070 29.071621
64.075 30.029364
64.080 30.712938
64.085 31.690163
64.090 31.893543
64.095 32.341957
64.100 32.38604
64.105 32.496868
64.110 32.027115
64.115 32.042442
64.120 31.570591
64.125 32.26149
64.130 32.953434
64.135 32.946632
64.140 33.865723
64.145 35.113178
64.150 35.333614
64.155 35.778465
64.160 35.396511
64.165 35.217957
64.170 35.419598
64.175 34.961082
64.180 34.239639
64.185 34.221096
64.190 34.688114
64.195 35.231461
64.200 35.753555
64.205 36.012012
64.210 35.973782
64.215 35.42992
64.220 35.58197
64.225 36.326439
64.230 36.826969
64.235 37.054256
64.240 37.386883
64.245 38.547775
64.250 39.384731
64.255 40.16077
64.260 40.230701
64.265 39.645855
64.270 39.555138
64.275 38.524006
64.280 37.635925
64.285 37.565807
64.290 37.851505
64.295 38.090187
64.300 39.11924
64.305 39.786335
64.310 40.253139
64.315 39.996662
64.320 39.704655
64.325 39.184319
64.330 38.868504
64.335 37.756279
64.340 37.495148
64.345 37.494354
64.350 38.106167
64.355 38.354984
64.360 37.806824
64.365 37.534969
64.370 37.175228
64.375 36.492489
64.380 36.310238
64.385 36.140686
64.390 35.410221
64.395 34.596828
64.400 34.842903
64.405 35.215248
64.410 35.910141
64.415 35.926548
64.420 35.526863
64.425 35.56995
64.430 35.626171
64.435 34.549583
64.440 34.301846
64.445 33.953651
64.450 33.995453
64.455 34.428173
64.460 34.399063
64.465 34.713017
64.470 35.249619
64.475 34.774231
64.480 33.901363
64.485 33.422726
64.490 32.538986
64.495 32.211502
64.500 31.402687
64.505 30.28059
64.510 29.979605
64.515 30.610292
64.520 30.294563
64.525 30.575048
64.530 30.549847
64.535 30.160978
64.540 29.864243
64.545 29.776852
64.550 29.410414
64.555 29.050762
64.560 28.351973
64.565 28.101582
64.570 27.706129
64.575 27.561388
64.580 27.275169
64.585 26.677433
64.590 26.474171
64.595 26.145445
64.600 25.74275
64.605 26.11433
64.610 26.243832
64.615 25.725767
64.620 25.690697
64.625 25.47551
64.630 25.556559
64.635 25.691135
64.640 24.932381
64.645 24.830032
64.650 25.045803
64.655 24.970778
64.660 25.35191
64.665 25.198204
64.670 25.18181
64.675 24.432785
64.680 23.814657
64.685 24.211075
64.690 23.478025
64.695 22.866461
64.700 22.530216
64.705 22.055304
64.710 22.505947
64.715 22.543447
64.720 21.854187
64.725 22.210388
64.730 22.058895
64.735 22.175306
64.740 22.428818
64.745 22.255842
64.750 22.744267
64.755 22.733776
64.760 22.568529
64.765 22.670385
64.770 22.434347
64.775 22.017372
64.780 22.156137
64.785 21.873672
64.790 22.284397
64.795 22.714876
64.800 22.709501
64.805 22.767248
64.810 22.837627
64.815 23.042778
64.820 23.362116
64.825 22.700659
64.830 22.149498
64.835 21.963875
64.840 22.322744
64.845 22.939255
64.850 22.445492
64.855 22.255667
64.860 22.391018
64.865 22.784979
64.870 22.928642
64.875 23.216421
64.880 23.47715
64.885 23.745659
64.890 23.80397
64.895 23.859331
64.900 23.844677
64.905 24.083801
64.910 23.753843
64.915 23.664749
64.920 23.712255
64.925 23.943594
64.930 23.658667
64.935 23.372644
64.940 23.418489
64.945 23.532095
64.950 23.449095
64.955 23.163221
64.960 22.330322
64.965 22.295092
64.970 22.588295
64.975 22.300249
64.980 21.683882
64.985 21.579924
64.990 21.917891
64.995 22.898012
65.000 23.271519
65.005 23.316654
65.010 23.717968
65.015 24.30488
65.020 25.097313
65.025 25.29768
65.030 25.655003
65.035 25.699556
65.040 25.593643
65.045 25.848484
65.050 25.866735
65.055 25.581388
65.060 25.539347
65.065 24.164776
65.070 24.677681
65.075 25.26325
65.080 25.563696
65.085 25.956488
65.090 26.744928
65.095 27.759436
65.100 28.371532
65.105 28.587439
65.110 28.766724
65.115 27.759764
65.120 27.490601
65.125 25.354
65.130 24.336201
65.135 25.09445
65.140 24.601145
65.145 24.277901
65.150 24.337576
65.155 24.322664
65.160 24.891083
65.165 24.524269
65.170 24.12307
65.175 24.491447
65.180 24.444962
65.185 25.0324
65.190 26.104757
65.195 27.21014
65.200 28.117191
65.205 28.133375
65.210 28.274426
65.215 28.458754
65.220 28.554068
65.225 28.150389
65.230 27.779116
65.235 27.296804
65.240 27.809456
65.245 27.909101
65.250 28.186255
65.255 27.374996
65.260 27.006041
65.265 27.228867
65.270 27.861897
65.275 27.643665
65.280 27.529079
65.285 27.496761
65.290 27.678625
65.295 27.41577
65.300 27.343029
65.305 27.263515
65.310 27.146715
65.315 26.846998
65.320 26.467848
65.325 26.582909
65.330 26.972815
65.335 26.66185
65.340 26.195934
65.345 26.203447
65.350 26.221241
65.355 26.540863
65.360 26.464748
65.365 26.252607
65.370 27.073111
65.375 28.104765
65.380 28.494019
65.385 28.579855
65.390 28.59893
65.395 29.592863
65.400 30.011387
65.405 30.080425
65.410 29.967367
65.415 29.922865
65.420 30.795696
65.425 31.89572
65.430 31.62833
65.435 31.745111
65.440 30.894218
65.445 30.431593
65.450 30.332739
65.455 29.454531
65.460 28.716339
65.465 28.791924
65.470 29.016651
65.475 30.415668
65.480 30.18924
65.485 30.742393
65.490 30.956738
65.495 31.147827
65.500 31.298269
65.505 30.823454
65.510 30.753181
65.515 31.618883
65.520 32.997883
65.525 33.790459
65.530 33.73074
65.535 33.545315
65.540 33.585007
65.545 33.934219
65.550 33.664711
65.555 32.776489
65.560 33.038036
65.565 33.791893
65.570 34.514767
65.575 34.93774
65.580 35.374237
65.585 34.861267
65.590 34.097351
65.595 34.424866
65.600 34.095089
65.605 35.073467
65.610 35.684589
65.615 35.3354
65.620 35.593704
65.625 36.42939
65.630 35.836002
65.635 35.723488
65.640 35.602798
65.645 35.377838
65.650 35.208805
65.655 35.19099
65.660 35.514278
65.665 36.554024
65.670 36.176514
65.675 35.871231
65.680 35.13345
65.685 35.161957
65.690 35.15353
65.695 34.33593
65.700 34.180119
65.705 34.208012
65.710 33.85207
65.715 34.903549
65.720 35.572422
65.725 36.337791
65.730 36.437546
65.735 35.869457
65.740 36.221851
65.745 35.615238
65.750 35.076195
65.755 35.57579
65.760 35.415146
65.765 35.253014
65.770 35.524792
65.775 35.552994
65.780 36.679905
65.785 36.950954
65.790 36.061081
65.795 35.276203
65.800 35.232525
65.805 35.372158
65.810 35.499638
65.815 35.547649
65.820 35.954086
65.825 36.566483
65.830 37.084328
65.835 37.10675
65.840 37.150303
65.845 37.272995
65.850 37.273281
65.855 37.046829
65.860 37.479576
65.865 37.734108
65.870 37.728516
65.875 37.486088
65.880 36.709991
65.885 36.27541
65.890 35.494705
65.895 35.299343
65.900 35.175404
65.905 34.546585
65.910 33.827198
65.915 34.518322
65.920 34.435265
65.925 35.194996
65.930 35.706169
65.935 35.698509
65.940 36.265823
65.945 36.911182
65.950 36.658604
65.955 36.469364
65.960 36.409039
65.965 35.74781
65.970 35.73457
65.975 35.871853
65.980 35.38356
65.985 34.643181
65.990 34.52438
65.995 33.630871
66.000 32.769356
66.005 32.607273
66.010 32.149532
66.015 32.61417
66.020 32.930367
66.025 32.788712
66.030 33.579838
66.035 33.640659
66.040 33.245239
66.045 32.777534
66.050 32.557819
66.055 32.87682
66.060 33.010872
66.065 32.52409
66.070 32.38023
66.075 32.559422
66.080 33.069626
66.085 32.652966
66.090 32.39286
66.095 32.336666
66.100 32.394772
66.105 32.659706
66.110 32.299507
66.115 32.482475
66.120 33.160019
66.125 33.005219
66.130 31.802048
66.135 31.426409
66.140 31.174158
66.145 31.264311
66.150 31.381454
66.155 30.518448
66.160 30.91169
66.165 31.657635
66.170 30.95196
66.175 30.988478
66.180 31.031519
66.185 30.775761
66.190 30.077173
66.195 29.935068
66.200 29.556135
66.205 29.97917
66.210 29.837385
66.215 28.947466
66.220 28.774981
66.225 29.197121
66.230 29.090267
66.235 29.351694
66.240 29.061432
66.245 29.064783
66.250 29.501535
66.255 29.182798
66.260 28.687651
66.265 29.052044
66.270 29.160692
66.275 29.75108
66.280 29.342909
66.285 29.057667
66.290 28.745836
66.295 28.237139
66.300 27.652691
66.305 27.572142
66.310 26.536367
66.315 27.169468
66.320 27.779596
66.325 28.022114
66.330 28.501194
66.335 27.923698
66.340 28.08753
66.345 29.373085
66.350 29.091511
66.355 28.714828
66.360 28.718369
66.365 28.672361
66.370 28.385519
66.375 27.259447
66.380 26.630005
66.385 26.489622
66.390 26.484512
66.395 26.585575
66.400 26.654823
66.405 27.077044
66.410 27.772734
66.415 27.60224
66.420 27.491844
66.425 27.052261
66.430 26.67598
66.435 26.593962
66.440 26.687773
66.445 25.897867
66.450 25.809694
66.455 24.931711
66.460 25.190062
66.465 25.784203
66.470 25.430822
66.475 24.941053
66.480 24.464291
66.485 23.934214
66.490 24.067499
66.495 23.932919
66.500 23.105814
66.505 23.240267
66.510 22.594553
66.515 22.724016
66.520 22.509428
66.525 22.034706
66.530 21.244192
66.535 21.24888
66.540 21.214663
66.545 21.653368
66.550 21.275526
66.555 21.545094
66.560 22.250191
66.565 22.660398
66.570 23.019157
66.575 22.723066
66.580 22.783335
66.585 22.977489
66.590 23.035761
66.595 22.206587
66.600 21.333532
66.605 21.143755
66.610 21.109684
66.615 20.927778
66.620 21.326063
66.625 21.401167
66.630 22.340572
66.635 22.170876
66.640 21.882456
66.645 21.995827
66.650 21.661585
66.655 21.062712
66.660 20.880491
66.665 20.766859
66.670 21.345108
66.675 21.686192
66.680 21.675364
66.685 21.72542
66.690 21.745092
66.695 21.236227
66.700 20.959427
66.705 21.413721
66.710 20.980875
66.715 20.967304
66.720 21.146301
66.725 20.723577
66.730 20.46261
66.735 20.016954
66.740 19.075537
66.745 19.185917
66.750 19.675486
66.755 19.714827
66.760 20.140135
66.765 20.912443
66.770 21.397745
66.775 21.537437
66.780 20.79714
66.785 20.313936
66.790 20.056765
66.795 20.182777
66.800 20.013699
66.805 20.249355
66.810 20.560362
66.815 21.124453
66.820 20.665661
66.825 20.690729
66.830 20.561424
66.835 20.229944
66.840 19.307379
66.845 18.695078
66.850 18.519447
66.855 18.769835
66.860 18.755829
66.865 19.308218
66.870 19.645599
66.875 20.327393
66.880 20.598291
66.885 20.136293
66.890 19.859911
66.895 20.049688
66.900 19.359947
66.905 19.1938
66.910 19.065222
66.915 18.981031
66.920 19.526575
66.925 19.892836
66.930 19.506271
66.935 19.944883
66.940 19.587635
66.945 19.48514
66.950 19.675552
66.955 19.362457
66.960 19.266659
66.965 19.248177
66.970 19.088306
66.975 19.338356
66.980 19.187771
66.985 19.269148
66.990 19.218031
66.995 19.225985
67.000 18.889904
67.005 18.871801
67.010 19.123707
67.015 19.663193
67.020 19.919283
67.025 20.477831
67.030 20.500862
67.035 20.001362
67.040 19.143642
67.045 18.361773
67.050 17.614624
67.055 17.719938
67.060 17.574009
67.065 18.097075
67.070 18.540619
67.075 19.438919
67.080 20.175833
67.085 20.167191
67.090 19.941973
67.095 19.733694
67.100 19.706535
67.105 20.156265
67.110 19.806772
67.115 19.417559
67.120 19.841267
67.125 20.171825
67.130 20.267653
67.135 19.873693
67.140 19.580126
67.145 19.647978
67.150 19.252899
67.155 19.296394
67.160 18.654329
67.165 18.133249
67.170 18.48538
67.175 18.527752
67.180 18.923178
67.185 19.655516
67.190 19.456638
67.195 19.586384
67.200 19.467747
67.205 19.647587
67.210 20.076157
67.215 19.818253
67.220 19.729511
67.225 20.003494
67.230 20.189886
67.235 20.223625
67.240 19.44416
67.245 18.82518
67.250 18.819925
67.255 18.748648
67.260 18.199121
67.265 18.124743
67.270 18.452358
67.275 19.044786
67.280 18.882179
67.285 19.16028
67.290 19.159906
67.295 19.56563
67.300 19.671167
67.305 19.060902
67.310 18.989689
67.315 19.334675
67.320 19.394537
67.325 19.544456
67.330 19.777153
67.335 19.687037
67.340 19.98032
67.345 19.193333
67.350 18.790339
67.355 18.64518
67.360 18.157839
67.365 18.199448
67.370 18.480511
67.375 18.657301
67.380 19.470316
67.385 19.52483
67.390 19.207157
67.395 19.40704
67.400 19.368258
67.405 19.753326
67.410 19.201626
67.415 18.486074
67.420 18.802053
67.425 18.987576
67.430 18.791912
67.435 18.476891
67.440 18.58975
67.445 18.714928
67.450 18.857519
67.455 18.729275
67.460 18.732489
67.465 18.985319
67.470 19.538328
67.475 19.634436
67.480 19.624622
67.485 20.171747
67.490 20.263895
67.495 20.265627
67.500 19.972208
67.505 19.197241
67.510 19.425522
67.515 20.186262
67.520 20.255835
67.525 20.606321
67.530 20.4095
67.535 20.305393
67.540 20.194342
67.545 20.262144
67.550 20.255064
67.555 19.51614
67.560 19.293791
67.565 19.031479
67.570 19.148432
67.575 19.270056
67.580 19.322868
67.585 18.959051
67.590 19.488968
67.595 19.231491
67.600 20.060358
67.605 20.573706
67.610 20.095343
67.615 19.606804
67.620 20.092575
67.625 20.287743
67.630 20.912958
67.635 20.329926
67.640 20.334805
67.645 20.61236
67.650 20.679947
67.655 20.26683
67.660 19.420454
67.665 19.231052
67.670 19.335987
67.675 19.521641
67.680 19.446215
67.685 18.995682
67.690 19.263842
67.695 20.125523
67.700 20.323126
67.705 20.408585
67.710 20.310999
67.715 20.20336
67.720 20.289106
67.725 20.035896
67.730 19.314316
67.735 19.231312
67.740 19.481699
67.745 19.700714
67.750 19.992203
67.755 19.744389
67.760 19.587074
67.765 19.519119
67.770 19.594006
67.775 19.684525
67.780 19.734102
67.785 19.762304
67.790 19.852673
67.795 19.993017
67.800 20.35384
67.805 20.242508
67.810 19.745771
67.815 19.347994
67.820 19.335506
67.825 19.691034
67.830 19.717602
67.835 19.971441
67.840 19.125427
67.845 18.579515
67.850 17.943037
67.855 17.521545
67.860 17.650883
67.865 17.447371
67.870 16.970079
67.875 17.361813
67.880 17.74515
67.885 18.986782
67.890 19.339203
67.895 19.00646
67.900 19.138201
67.905 19.384165
67.910 20.217127
67.915 20.494638
67.920 20.526789
67.925 20.381374
67.930 21.054888
67.935 20.845453
67.940 20.722988
67.945 20.96949
67.950 20.723915
67.955 20.656054
67.960 20.416418
67.965 19.746817
67.970 19.755201
67.975 19.838583
67.980 19.29808
67.985 19.186773
67.990 19.395594
67.995 20.019289
68.000 20.290142
68.005 20.234901
68.010 20.151587
68.015 20.108765
68.020 20.829269
68.025 20.371151
68.030 20.093554
68.035 20.184225
68.040 20.947496
68.045 21.520132
68.050 21.422544
68.055 20.892517
68.060 21.312759
68.065 21.502153
68.070 21.444475
68.075 21.127701
68.080 20.535032
68.085 21.472784
68.090 21.273951
68.095 21.14086
68.100 20.961788
68.105 21.105824
68.110 21.489931
68.115 21.818623
68.120 21.167252
68.125 21.344997
68.130 21.769791
68.135 21.715187
68.140 21.489153
68.145 20.483259
68.150 20.180988
68.155 20.225943
68.160 20.301306
68.165 19.898624
68.170 19.865665
68.175 19.880812
68.180 20.110559
68.185 20.769535
68.190 21.476711
68.195 21.562082
68.200 22.170021
68.205 22.333763
68.210 22.557274
68.215 22.568928
68.220 22.367939
68.225 21.9832
68.230 21.314993
68.235 20.738173
68.240 20.607134
68.245 20.719088
68.250 20.336969
68.255 19.880234
68.260 19.737078
68.265 20.091204
68.270 19.88694
68.275 19.90509
68.280 19.615578
68.285 20.400894
68.290 20.657797
68.295 20.62944
68.300 20.690054
68.305 20.88195
68.310 21.048517
68.315 21.497898
68.320 21.308344
68.325 20.945127
68.330 20.906845
68.335 21.20508
68.340 21.713728
68.345 22.09222
68.350 22.667206
68.355 22.485687
68.360 22.766134
68.365 22.984577
68.370 22.819956
68.375 22.113983
68.380 22.33766
68.385 22.096773
68.390 22.500738
68.395 22.143908
68.400 22.511673
68.405 22.911793
68.410 22.977325
68.415 23.054331
68.420 23.096586
68.425 23.692146
68.430 24.188263
68.435 23.775095
68.440 23.514458
68.445 23.243881
68.450 22.655508
68.455 22.397894
68.460 21.700146
68.465 21.677505
68.470 21.787355
68.475 22.433514
68.480 22.665857
68.485 22.83691
68.490 23.369284
68.495 23.8407
68.500 24.289907
68.505 24.202444
68.510 24.31683
68.515 24.475367
68.520 24.173731
68.525 24.37344
68.530 24.71743
68.535 24.694363
68.540 25.053267
68.545 25.08872
68.550 25.376535
68.555 26.065107
68.560 25.730478
68.565 25.837334
68.570 25.966539
68.575 25.937021
68.580 25.307201
68.585 24.932846
68.590 24.443041
68.595 24.296358
68.600 24.370331
68.605 24.739143
68.610 24.762445
68.615 25.56852
68.620 26.296844
68.625 26.861227
68.630 27.210051
68.635 27.2488
68.640 27.033991
68.645 27.221859
68.650 26.705097
68.655 26.488964
68.660 26.97489
68.665 27.248108
68.670 27.331371
68.675 27.944201
68.680 28.268396
68.685 28.528605
68.690 28.136032
68.695 27.835882
68.700 27.548958
68.705 27.367775
68.710 27.215075
68.715 27.030436
68.720 27.633989
68.725 28.816257
68.730 29.215137
68.735 29.379175
68.740 29.639078
68.745 29.097153
68.750 28.86713
68.755 28.841465
68.760 28.428282
68.765 28.131956
68.770 28.199598
68.775 27.890768
68.780 28.104675
68.785 29.104258
68.790 28.983068
68.795 28.921803
68.800 29.244236
68.805 29.71899
68.810 30.026981
68.815 29.622515
68.820 29.357382
68.825 29.80283
68.830 30.345804
68.835 29.942171
68.840 29.482046
68.845 30.086836
68.850 30.270546
68.855 30.32653
68.860 30.660921
68.865 31.002014
68.870 31.647215
68.875 31.552916
68.880 31.769995
68.885 32.266083
68.890 32.46587
68.895 32.320305
68.900 32.356827
68.905 32.281616
68.910 32.268436
68.915 31.852478
68.920 31.436735
68.925 31.230925
68.930 31.291595
68.935 31.512375
68.940 31.610264
68.945 32.343304
68.950 32.455429
68.955 32.932171
68.960 32.438091
68.965 32.15221
68.970 32.624741
68.975 32.242935
68.980 32.234943
68.985 33.032185
68.990 33.103222
68.995 32.532864
69.000 32.290752
69.005 32.034023
69.010 32.382149
69.015 32.620422
69.020 32.38792
69.025 32.479378
69.030 33.397697
69.035 33.479916
69.040 33.222496
69.045 32.879181
69.050 31.949905
69.055 31.51676
69.060 31.298504
69.065 30.782631
69.070 30.936678
69.075 31.260178
69.080 31.330925
69.085 31.74593
69.090 31.924179
69.095 32.253498
69.100 32.650818
69.105 32.105579
69.110 31.528168
69.115 31.479052
69.120 31.401951
69.125 31.4179
69.130 31.22897
69.135 31.878099
69.140 32.67701
69.145 32.752953
69.150 32.760464
69.155 33.833179
69.160 33.93438
69.165 34.32526
69.170 33.405823
69.175 32.564175
69.180 32.493629
69.185 32.158249
69.190 31.140905
69.195 30.482195
69.200 29.420055
69.205 29.551786
69.210 29.69363
69.215 29.811712
69.220 29.431807
69.225 29.543209
69.230 29.761137
69.235 29.684942
69.240 29.109425
69.245 29.265549
69.250 29.559212
69.255 29.424753
69.260 28.862688
69.265 28.938026
69.270 29.014839
69.275 28.676126
69.280 27.974163
69.285 27.580976
69.290 27.323521
69.295 26.847857
69.300 27.207146
69.305 28.099905
69.310 29.341761
69.315 29.852417
69.320 29.177475
69.325 29.368906
69.330 30.027174
69.335 29.182669
69.340 28.673687
69.345 27.342291
69.350 26.560091
69.355 26.304613
69.360 26.338381
69.365 25.992819
69.370 26.203913
69.375 26.543152
69.380 26.966692
69.385 27.173855
69.390 27.403219
69.395 26.571905
69.400 26.647076
69.405 27.130095
69.410 27.166111
69.415 26.983517
69.420 27.07622
69.425 27.24501
69.430 27.813282
69.435 27.977083
69.440 28.115511
69.445 27.630024
69.450 27.53121
69.455 27.702536
69.460 27.388306
69.465 26.862053
69.470 25.925198
69.475 25.129185
69.480 25.276438
69.485 25.601097
69.490 26.077745
69.495 26.348797
69.500 26.372746
69.505 26.63336
69.510 26.86871
69.515 26.899858
69.520 26.404737
69.525 25.85408
69.530 25.777813
69.535 25.932158
69.540 26.047764
69.545 25.830132
69.550 25.481367
69.555 24.939001
69.560 24.942762
69.565 24.971342
69.570 25.727066
69.575 25.578306
69.580 25.549284
69.585 25.973078
69.590 26.605761
69.595 26.695189
69.600 26.668085
69.605 26.182171
69.610 25.812166
69.615 26.264456
69.620 25.856827
69.625 25.232452
69.630 24.504368
69.635 24.028143
69.640 24.278965
69.645 24.252192
69.650 23.689848
69.655 23.557112
69.660 23.904573
69.665 23.89493
69.670 23.87929
69.675 23.818468
69.680 23.827179
69.685 23.756907
69.690 24.589766
69.695 24.711842
69.700 24.77808
69.705 24.488096
69.710 23.958216
69.715 24.024418
69.720 23.112503
69.725 22.220579
69.730 21.970701
69.735 22.03788
69.740 22.79693
69.745 23.07419
69.750 22.924292
69.755 22.982956
69.760 22.92453
69.765 22.802084
69.770 22.611706
69.775 21.522638
69.780 22.119713
69.785 22.749121
69.790 22.900045
69.795 22.671494
69.800 22.371838
69.805 22.770134
69.810 22.931334
69.815 22.244732
69.820 22.223324
69.825 22.00749
69.830 21.849306
69.835 21.849874
69.840 21.418951
69.845 21.458086
69.850 21.016371
69.855 20.478815
69.860 20.283113
69.865 20.471861
69.870 20.549389
69.875 20.685034
69.880 20.904503
69.885 21.515911
69.890 21.869364
69.895 22.580969
69.900 22.646109
69.905 22.716978
69.910 22.62525
69.915 21.958469
69.920 21.509638
69.925 21.669945
69.930 21.793665
69.935 21.418058
69.940 20.817154
69.945 20.548655
69.950 21.152861
69.955 21.090303
69.960 20.428261
69.965 19.743967
69.970 19.728413
69.975 19.502703
69.980 19.128511
69.985 18.335794
69.990 18.280661
69.995 18.4076
70.000 18.634411
70.005 18.516373
70.010 18.67173
70.015 19.017118
70.020 19.473112
70.025 19.858181
70.030 19.512564
70.035 19.795042
70.040 20.170694
70.045 21.052244
70.050 20.888699
70.055 21.486374
70.060 21.635349
70.065 22.08823
70.070 21.622448
70.075 21.369076
70.080 20.421576
70.085 19.96435
70.090 19.234325
70.095 18.612949
70.100 18.888567
70.105 19.481396
70.110 19.702368
70.115 20.038097
70.120 20.511179
70.125 21.160688
70.130 21.527922
70.135 21.164469
70.140 20.834791
70.145 20.796169
70.150 20.343584
70.155 20.247072
70.160 19.988997
70.165 19.961538
70.170 19.671738
70.175 19.77626
70.180 20.036818
70.185 20.332783
70.190 20.07752
70.195 20.036266
70.200 19.917221
70.205 19.764881
70.210 20.08102
70.215 20.437706
70.220 20.73871
70.225 20.496765
70.230 20.173077
70.235 20.43577
70.240 20.549988
70.245 20.142857
70.250 20.009159
70.255 20.202944
70.260 20.194147
70.265 19.989452
70.270 20.203903
70.275 20.384146
70.280 19.855501
70.285 19.627623
70.290 19.336039
70.295 19.62392
70.300 19.349968
70.305 19.691868
70.310 19.617554
70.315 19.682487
70.320 19.412586
70.325 19.304531
70.330 19.305586
70.335 19.441299
70.340 18.563997
70.345 18.466721
70.350 18.926863
70.355 18.967653
70.360 19.277153
70.365 19.036417
70.370 19.116549
70.375 18.712341
70.380 18.436079
70.385 18.089342
70.390 18.232035
70.395 17.999071
70.400 18.233702
70.405 18.600378
70.410 19.121696
70.415 19.234108
70.420 19.287771
70.425 19.133011
70.430 19.597233
70.435 19.357683
70.440 19.419512
70.445 19.305918
70.450 19.009247
70.455 19.125988
70.460 18.879314
70.465 18.970827
70.470 18.982189
70.475 18.946409
70.480 18.857084
70.485 19.410501
70.490 18.520422
70.495 18.562622
70.500 18.66197
70.505 18.750954
70.510 19.39395
70.515 20.035048
70.520 19.52108
70.525 19.597425
70.530 19.867546
70.535 19.729914
70.540 19.675219
70.545 18.980934
70.550 18.66135
70.555 18.930807
70.560 19.429031
70.565 19.04178
70.570 18.960663
70.575 18.611727
70.580 18.670044
70.585 18.45665
70.590 18.15148
70.595 18.045033
70.600 18.09514
70.605 17.989817
70.610 18.497425
70.615 18.493608
70.620 19.017448
70.625 19.601139
70.630 19.419298
70.635 19.323126
70.640 19.179062
70.645 18.310062
70.650 18.25963
70.655 18.249176
70.660 18.228655
70.665 18.270178
70.670 18.288921
70.675 18.489996
70.680 19.289413
70.685 19.55328
70.690 19.762209
70.695 19.846375
70.700 20.178379
70.705 19.783112
70.710 19.67857
70.715 19.860451
70.720 20.331802
70.725 20.001928
70.730 19.536905
70.735 19.71483
70.740 19.946064
70.745 19.656649
70.750 19.859228
70.755 19.78627
70.760 19.25576
70.765 19.027342
70.770 18.277039
70.775 18.472818
70.780 18.603155
70.785 17.612007
70.790 17.289497
70.795 17.654312
70.800 17.932995
70.805 18.204241
70.810 18.082102
70.815 17.578125
70.820 18.3472
70.825 18.684708
70.830 18.619408
70.835 18.800522
70.840 18.794149
70.845 18.698723
70.850 19.13517
70.855 18.228468
70.860 18.27722
70.865 18.475929
70.870 18.760445
70.875 19.042826
70.880 19.378788
70.885 19.085047
70.890 19.161295
70.895 18.610426
70.900 18.149487
70.905 17.164909
70.910 16.996613
70.915 17.263107
70.920 17.839033
70.925 17.688198
70.930 18.083582
70.935 18.639521
70.940 19.151234
70.945 19.400644
70.950 19.735062
70.955 19.696583
70.960 19.88546
70.965 19.314333
70.970 19.133772
70.975 18.905893
70.980 18.4967
70.985 18.263472
70.990 18.06781
70.995 18.427591
71.000 19.346657
71.005 18.994186
71.010 19.336044
71.015 19.363375
71.020 19.000309
71.025 19.116026
71.030 18.935427
71.035 18.411476
71.040 18.539566
71.045 18.563509
71.050 18.494904
71.055 18.506077
71.060 18.810398
71.065 19.025084
71.070 19.291115
71.075 18.858017
71.080 18.021919
71.085 17.939665
71.090 17.741722
71.095 17.488317
71.100 17.566671
71.105 17.629631
71.110 18.033789
71.115 19.034637
71.120 19.356098
71.125 19.579987
71.130 19.295937
71.135 19.306278
71.140 18.92507
71.145 18.931978
71.150 18.809902
71.155 18.257082
71.160 18.535524
71.165 18.881208
71.170 18.727808
71.175 19.090466
71.180 19.273598
71.185 18.764187
71.190 18.794329
71.195 17.699821
71.200 18.048084
71.205 18.370794
71.210 18.375734
71.215 17.903769
71.220 17.650276
71.225 17.453861
71.230 17.994156
71.235 17.562181
71.240 17.474482
71.245 17.909767
71.250 18.718422
71.255 19.295259
71.260 19.231569
71.265 19.736225
71.270 19.514772
71.275 19.424538
71.280 19.292334
71.285 19.226149
71.290 19.595695
71.295 19.725012
71.300 19.12715
71.305 18.920799
71.310 18.727346
71.315 18.662468
71.320 17.908031
71.325 17.877169
71.330 17.787054
71.335 17.723064
71.340 17.873255
71.345 17.916519
71.350 18.385921
71.355 18.693594
71.360 18.707191
71.365 18.809742
71.370 18.702419
71.375 19.165356
71.380 19.188507
71.385 19.123768
71.390 19.534128
71.395 19.363022
71.400 19.928747
71.405 20.413754
71.410 20.554674
71.415 20.59868
71.420 20.354353
71.425 19.835144
71.430 19.857731
71.435 19.10359
71.440 18.631851
71.445 17.881983
71.450 17.735229
71.455 17.307636
71.460 17.494349
71.465 17.205275
71.470 18.110172
71.475 18.208384
71.480 18.030359
71.485 18.150803
71.490 18.475054
71.495 18.179581
71.500 18.280401
71.505 17.573776
71.510 17.860645
71.515 17.978516
71.520 17.749371
71.525 17.109152
71.530 17.990719
71.535 18.210121
71.540 17.995138
71.545 18.447824
71.550 18.341076
71.555 18.470711
71.560 18.305098
71.565 17.513512
71.570 17.368885
71.575 17.663237
71.580 17.348585
71.585 17.486738
71.590 18.012922
71.595 18.652483
71.600 19.454493
71.605 19.877268
71.610 19.342018
71.615 19.36301
71.620 19.23831
71.625 19.18712
71.630 19.500288
71.635 19.009413
71.640 18.120136
71.645 17.999325
71.650 17.989399
71.655 17.704176
71.660 17.136503
71.665 16.302448
71.670 16.233759
71.675 17.286154
71.680 17.450745
71.685 17.757933
71.690 17.671915
71.695 18.151417
71.700 18.479677
71.705 18.574905
71.710 17.960546
71.715 17.502405
71.720 17.741356
71.725 17.934269
71.730 17.867802
71.735 17.750202
71.740 18.132395
71.745 18.792618
71.750 19.003908
71.755 18.640356
71.760 18.166996
71.765 18.138269
71.770 17.982553
71.775 18.26347
71.780 18.819954
71.785 18.970657
71.790 19.462257
71.795 18.939793
71.800 19.22131
71.805 19.355013
71.810 18.638222
71.815 18.316854
71.820 18.702843
71.825 18.448278
71.830 19.058708
71.835 18.71875
71.840 18.488819
71.845 18.585894
71.850 18.145536
71.855 18.308878
71.860 18.537672
71.865 18.338148
71.870 18.320848
71.875 19.100962
71.880 18.918024
71.885 19.347054
71.890 19.171726
71.895 19.27763
71.900 19.539341
71.905 19.11685
71.910 18.527781
71.915 18.769266
71.920 18.448879
71.925 18.08444
71.930 17.924562
71.935 17.399248
71.940 17.368372
71.945 16.815104
71.950 16.691051
71.955 16.865171
71.960 16.723751
71.965 17.043814
71.970 17.678732
71.975 17.660549
71.980 17.958849
71.985 17.800556
71.990 17.63929
71.995 17.882959
72.000 18.144121
72.005 18.382734
72.010 18.76779
72.015 18.669645
72.020 18.957232
72.025 19.046478
72.030 18.988562
72.035 18.347736
72.040 17.912319
72.045 17.781134
72.050 17.275799
72.055 16.771154
72.060 16.654629
72.065 16.408535
72.070 16.12612
72.075 15.961539
72.080 15.96031
72.085 16.785595
72.090 16.930506
72.095 16.931557
72.100 17.24172
72.105 17.752584
72.110 18.314323
72.115 18.655283
72.120 18.547525
72.125 19.128204
72.130 19.483866
72.135 19.240248
72.140 19.086624
72.145 18.63752
72.150 18.674362
72.155 18.527906
72.160 17.859694
72.165 18.083296
72.170 18.435558
72.175 18.583637
72.180 18.516989
72.185 18.0441
72.190 17.992645
72.195 18.073696
72.200 17.961088
72.205 17.466345
72.210 17.43812
72.215 17.577835
72.220 17.290239
72.225 16.789583
72.230 16.939877
72.235 16.972044
72.240 17.111656
72.245 16.902748
72.250 16.98963
72.255 17.152256
72.260 17.240076
72.265 16.809383
72.270 16.764277
72.275 16.766748
72.280 16.855385
72.285 17.541155
72.290 17.771727
72.295 18.304081
72.300 18.323658
72.305 18.475103
72.310 18.266876
72.315 18.718475
72.320 18.988785
72.325 18.543463
72.330 18.223076
72.335 18.412539
72.340 18.43585
72.345 18.433302
72.350 17.589226
72.355 17.041082
72.360 17.370443
72.365 17.835405
72.370 18.108212
72.375 17.919092
72.380 17.819458
72.385 17.788263
72.390 18.318178
72.395 18.197189
72.400 17.819841
72.405 17.206247
72.410 17.412611
72.415 17.516121
72.420 17.091454
72.425 16.420752
72.430 16.513361
72.435 16.925657
72.440 17.538918
72.445 18.027918
72.450 18.42782
72.455 19.331379
72.460 19.456411
72.465 19.67852
72.470 19.818335
72.475 19.151287
72.480 18.415764
72.485 18.926525
72.490 18.769459
72.495 18.723763
72.500 18.48757
72.505 18.791124
72.510 19.146206
72.515 19.383654
72.520 18.867285
72.525 18.833582
72.530 18.580637
72.535 18.382103
72.540 17.700068
72.545 17.822155
72.550 18.217527
72.555 18.219637
72.560 18.37521
72.565 18.283979
72.570 18.421072
72.575 18.737202
72.580 18.685505
72.585 18.489807
72.590 18.608425
72.595 18.705383
72.600 19.002029
72.605 19.051321
72.610 18.699211
72.615 18.409573
72.620 18.36356
72.625 17.968985
72.630 17.600126
72.635 17.261871
72.640 17.204927
72.645 17.182846
72.650 17.209503
72.655 17.442823
72.660 17.581482
72.665 17.759069
72.670 17.999971
72.675 18.983686
72.680 18.744879
72.685 18.470568
72.690 17.757013
72.695 17.956938
72.700 17.913496
72.705 17.753662
72.710 16.749578
72.715 16.710312
72.720 16.586491
72.725 16.834423
72.730 16.944319
72.735 16.941715
72.740 17.054115
72.745 16.689392
72.750 17.406384
72.755 17.815775
72.760 17.8305
72.765 17.635561
72.770 17.692192
72.775 17.801268
72.780 18.367207
72.785 18.273689
72.790 18.410311
72.795 18.071249
72.800 17.556101
72.805 16.745014
72.810 16.748457
72.815 16.40798
72.820 15.802661
72.825 15.583058
72.830 15.794639
72.835 16.389734
72.840 17.107714
72.845 16.900566
72.850 17.168474
72.855 16.993151
72.860 17.745516
72.865 17.544661
72.870 17.691511
72.875 18.002491
72.880 18.264301
72.885 18.095173
72.890 18.040401
72.895 17.416697
72.900 17.786425
72.905 17.57357
72.910 16.833603
72.915 16.728235
72.920 17.076187
72.925 16.51193
72.930 16.367388
72.935 15.556297
72.940 15.510461
72.945 15.356286
72.950 14.873272
72.955 14.53684
72.960 15.184679
72.965 15.017386
72.970 15.43172
72.975 15.648884
72.980 16.047092
72.985 16.191036
72.990 16.200977
72.995 16.843111
73.000 16.94907
