!@!!GADDS PLOTSO FILE: Chi integration type
!@!!Title/SampleName: map-79
!@!!Comment: ?
!@!!User: Bruker Instrument Administrator
!@!!Site: University of Illinois Chicago
!@!!Frame: map-79_01_000.gfrm
!@!!Wavelengths    1.54184   1.54056   1.54439
!@!!Frame angles: 2Theta: 63.000 Omega: 50.000 Phi: 0.000 Chi: 90.000
!@!!Integration range: 2Theta: 53.000 to 73.000  Gamma: -105.000 to -75.000
!@!!Integration method: bin normalized
!@!N
!@!SS
!@!M
!@!L 0.0 0.0 0.0 0.0
!@!XDegrees
!@!YCounts
53.000 9.018476
53.005 8.968856
53.010 8.831715
53.015 9.110864
53.020 9.217283
53.025 9.005203
53.030 9.307403
53.035 9.342028
53.040 9.239536
53.045 9.117212
53.050 8.195603
53.055 8.252302
53.060 8.446606
53.065 8.476113
53.070 9.306254
53.075 9.752893
53.080 10.479575
53.085 11.046621
53.090 11.312644
53.095 11.783796
53.100 11.780752
53.105 11.36569
53.110 11.040192
53.115 10.77407
53.120 10.468973
53.125 9.927171
53.130 9.57668
53.135 9.328912
53.140 9.572163
53.145 9.991965
53.150 10.240285
53.155 10.110755
53.160 10.306112
53.165 10.403195
53.170 10.473775
53.175 10.173758
53.180 9.702777
53.185 9.781977
53.190 10.01664
53.195 10.228785
53.200 10.156364
53.205 10.437306
53.210 10.544799
53.215 10.637897
53.220 10.597947
53.225 10.290536
53.230 10.05479
53.235 10.290319
53.240 9.909692
53.245 9.932744
53.250 9.462992
53.255 9.914649
53.260 9.998863
53.265 9.804626
53.270 9.889538
53.275 9.782508
53.280 10.035076
53.285 9.51346
53.290 9.012067
53.295 9.096828
53.300 9.41971
53.305 9.735565
53.310 10.040503
53.315 10.742696
53.320 11.609571
53.325 11.860315
53.330 11.73541
53.335 11.172746
53.340 10.352296
53.345 10.171015
53.350 9.464368
53.355 9.302038
53.360 9.348294
53.365 9.112226
53.370 9.578528
53.375 10.002919
53.380 10.347777
53.385 10.37334
53.390 9.919974
53.395 9.467896
53.400 9.521085
53.405 9.788926
53.410 9.91153
53.415 9.472826
53.420 9.74839
53.425 10.467894
53.430 10.704094
53.435 10.508075
53.440 10.511646
53.445 10.742289
53.450 11.399744
53.455 11.200816
53.460 11.116902
53.465 11.263247
53.470 11.653769
53.475 11.50022
53.480 10.940124
53.485 10.591681
53.490 10.441697
53.495 10.606823
53.500 10.41127
53.505 9.975804
53.510 9.974568
53.515 9.715584
53.520 9.65472
53.525 9.631538
53.530 9.5646
53.535 9.667885
53.540 9.542094
53.545 9.375371
53.550 9.73021
53.555 9.81001
53.560 10.090604
53.565 10.138941
53.570 10.179428
53.575 10.123246
53.580 9.934329
53.585 9.803918
53.590 9.559392
53.595 9.13662
53.600 9.211577
53.605 9.218538
53.610 10.011344
53.615 10.474234
53.620 10.649419
53.625 10.914711
53.630 11.130424
53.635 11.345165
53.640 11.310489
53.645 10.893703
53.650 10.708173
53.655 10.464869
53.660 10.488624
53.665 10.94219
53.670 11.064973
53.675 10.982299
53.680 10.839493
53.685 10.70116
53.690 11.005452
53.695 11.098557
53.700 10.608021
53.705 10.937243
53.710 11.105533
53.715 11.246218
53.720 11.482578
53.725 11.509426
53.730 11.203348
53.735 10.812807
53.740 10.066893
53.745 10.026765
53.750 9.616228
53.755 9.888275
53.760 10.122252
53.765 10.56756
53.770 10.599522
53.775 10.627933
53.780 10.835973
53.785 11.214923
53.790 10.856419
53.795 10.018644
53.800 9.831083
53.805 10.022861
53.810 10.517162
53.815 10.338284
53.820 10.321673
53.825 10.810973
53.830 10.886869
53.835 10.728272
53.840 10.301882
53.845 9.84656
53.850 10.069263
53.855 9.835752
53.860 9.757321
53.865 10.199023
53.870 10.099865
53.875 10.202053
53.880 10.155213
53.885 10.016581
53.890 9.988834
53.895 9.858833
53.900 9.744898
53.905 9.683753
53.910 9.751082
53.915 10.307145
53.920 10.424499
53.925 10.430561
53.930 10.759517
53.935 11.105574
53.940 11.458467
53.945 11.684235
53.950 11.649426
53.955 12.086705
53.960 12.001442
53.965 11.717454
53.970 11.651175
53.975 11.605334
53.980 11.199548
53.985 11.08295
53.990 10.972445
53.995 10.764357
54.000 11.048091
54.005 11.02539
54.010 11.42089
54.015 11.408815
54.020 10.973905
54.025 11.147968
54.030 11.545058
54.035 11.289049
54.040 10.986649
54.045 10.925512
54.050 10.96276
54.055 11.201083
54.060 11.148349
54.065 10.833254
54.070 10.813864
54.075 10.736143
54.080 11.12498
54.085 11.037177
54.090 10.829574
54.095 11.115239
54.100 11.172154
54.105 11.758963
54.110 11.820791
54.115 11.525827
54.120 11.541579
54.125 11.184134
54.130 10.872807
54.135 10.780458
54.140 10.378812
54.145 10.226203
54.150 10.187047
54.155 9.84791
54.160 10.07064
54.165 9.743972
54.170 10.009533
54.175 10.070262
54.180 10.116841
54.185 10.313009
54.190 10.712087
54.195 10.8967
54.200 11.214943
54.205 11.230814
54.210 11.506073
54.215 11.962628
54.220 12.04581
54.225 12.176798
54.230 12.170838
54.235 12.49422
54.240 12.633362
54.245 12.93115
54.250 12.962308
54.255 12.853364
54.260 13.123186
54.265 13.342657
54.270 13.483822
54.275 13.112819
54.280 12.577771
54.285 12.014528
54.290 12.00352
54.295 11.686109
54.300 11.140781
54.305 10.722754
54.310 10.679894
54.315 10.273664
54.320 10.510163
54.325 9.693098
54.330 9.429532
54.335 9.821299
54.340 9.704615
54.345 10.045348
54.350 10.468868
54.355 10.96077
54.360 11.182803
54.365 11.086168
54.370 10.950316
54.375 10.652961
54.380 10.523523
54.385 10.57961
54.390 10.29528
54.395 10.37816
54.400 10.180777
54.405 10.079645
54.410 9.964728
54.415 9.729788
54.420 9.613511
54.425 9.954476
54.430 9.931005
54.435 10.109077
54.440 10.296755
54.445 10.468171
54.450 10.906155
54.455 11.176018
54.460 10.863291
54.465 11.091444
54.470 11.523388
54.475 11.813092
54.480 12.103322
54.485 11.736072
54.490 11.792602
54.495 12.125488
54.500 11.926903
54.505 11.59024
54.510 11.536026
54.515 11.504663
54.520 11.240265
54.525 11.386312
54.530 11.753075
54.535 12.056436
54.540 11.727398
54.545 11.420178
54.550 11.41777
54.555 11.712015
54.560 11.225961
54.565 10.71309
54.570 10.695156
54.575 10.89
54.580 11.003289
54.585 11.465324
54.590 11.419285
54.595 11.618881
54.600 11.342818
54.605 11.424273
54.610 11.189811
54.615 10.744262
54.620 10.279892
54.625 10.175329
54.630 10.430957
54.635 10.74883
54.640 11.084599
54.645 11.621845
54.650 11.793582
54.655 11.870697
54.660 11.769427
54.665 11.702641
54.670 11.700493
54.675 11.302717
54.680 10.932542
54.685 11.114677
54.690 11.00707
54.695 11.291561
54.700 10.985788
54.705 11.023421
54.710 11.399746
54.715 11.676271
54.720 11.446378
54.725 11.498529
54.730 11.623254
54.735 11.901722
54.740 11.661953
54.745 11.059574
54.750 11.166937
54.755 11.146994
54.760 11.538571
54.765 11.629887
54.770 11.678559
54.775 11.538291
54.780 11.928477
54.785 11.889919
54.790 11.828719
54.795 11.250385
54.800 11.121195
54.805 11.453049
54.810 11.558994
54.815 11.117794
54.820 11.371799
54.825 11.762708
54.830 11.828909
54.835 11.813084
54.840 11.322144
54.845 11.40814
54.850 11.952662
54.855 11.745098
54.860 11.544831
54.865 11.414727
54.870 11.325814
54.875 11.277268
54.880 11.367366
54.885 11.326488
54.890 11.80157
54.895 11.90124
54.900 11.982981
54.905 12.213268
54.910 12.541549
54.915 12.200722
54.920 11.490774
54.925 10.909694
54.930 11.127024
54.935 11.142313
54.940 11.102846
54.945 11.348543
54.950 11.562133
54.955 11.667488
54.960 11.756803
54.965 11.972047
54.970 12.021001
54.975 11.57491
54.980 11.253061
54.985 11.312812
54.990 11.769077
54.995 12.010642
55.000 11.921969
55.005 11.660739
55.010 11.683559
55.015 11.729638
55.020 12.339532
55.025 12.471756
55.030 12.136465
55.035 11.985321
55.040 11.961918
55.045 12.47545
55.050 12.469388
55.055 12.363577
55.060 12.486739
55.065 12.362164
55.070 12.543792
55.075 12.847763
55.080 12.481956
55.085 12.28892
55.090 11.619598
55.095 11.34306
55.100 11.285622
55.105 11.186443
55.110 11.041429
55.115 10.66718
55.120 10.021878
55.125 10.091675
55.130 10.26788
55.135 10.551706
55.140 10.717734
55.145 11.059323
55.150 11.485554
55.155 12.135844
55.160 11.883821
55.165 11.44051
55.170 11.422225
55.175 11.306583
55.180 10.96831
55.185 10.976214
55.190 11.082142
55.195 11.043056
55.200 11.639125
55.205 11.606281
55.210 11.849603
55.215 11.967548
55.220 12.108435
55.225 12.391152
55.230 12.740211
55.235 11.986582
55.240 11.446848
55.245 11.42134
55.250 11.235816
55.255 10.887518
55.260 10.631162
55.265 10.30063
55.270 10.444059
55.275 10.746071
55.280 11.044318
55.285 11.329697
55.290 11.142352
55.295 10.834941
55.300 11.437737
55.305 12.01017
55.310 11.86725
55.315 11.591777
55.320 11.52471
55.325 11.468187
55.330 11.402827
55.335 11.046506
55.340 10.643352
55.345 10.707188
55.350 10.888676
55.355 11.241055
55.360 11.70125
55.365 12.228997
55.370 12.005448
55.375 11.762578
55.380 11.675993
55.385 11.965815
55.390 11.64929
55.395 11.917754
55.400 11.296198
55.405 11.665565
55.410 11.808599
55.415 11.948318
55.420 11.564325
55.425 11.884967
55.430 11.653029
55.435 11.979554
55.440 11.583162
55.445 11.594633
55.450 11.315613
55.455 11.165426
55.460 11.111547
55.465 11.026736
55.470 11.074964
55.475 11.506595
55.480 11.750408
55.485 12.51231
55.490 13.068707
55.495 13.477317
55.500 13.66705
55.505 13.713913
55.510 13.478611
55.515 13.3181
55.520 13.240237
55.525 13.057516
55.530 12.685946
55.535 13.225537
55.540 13.352956
55.545 13.549054
55.550 13.414827
55.555 12.985661
55.560 12.839371
55.565 12.870025
55.570 13.018854
55.575 13.725578
55.580 13.798673
55.585 13.844543
55.590 13.590072
55.595 13.569825
55.600 13.002594
55.605 12.438822
55.610 12.296156
55.615 12.567047
55.620 12.631784
55.625 12.735008
55.630 13.046579
55.635 13.339742
55.640 12.762844
55.645 12.262287
55.650 11.962646
55.655 11.861003
55.660 11.913111
55.665 11.599089
55.670 11.853589
55.675 12.328132
55.680 12.044374
55.685 11.834703
55.690 11.421869
55.695 11.232406
55.700 11.819453
55.705 11.905133
55.710 11.776184
55.715 11.880055
55.720 12.119304
55.725 12.54823
55.730 12.911997
55.735 12.216853
55.740 12.13069
55.745 12.065369
55.750 12.107028
55.755 12.281967
55.760 12.207257
55.765 12.047685
55.770 12.126924
55.775 11.79442
55.780 12.144629
55.785 12.14133
55.790 11.940912
55.795 12.187192
55.800 12.062139
55.805 12.037356
55.810 12.246642
55.815 12.087487
55.820 12.62175
55.825 12.911834
55.830 12.555042
55.835 12.817652
55.840 12.938761
55.845 13.021084
55.850 12.490569
55.855 11.806523
55.860 11.516173
55.865 11.579565
55.870 11.708028
55.875 11.504762
55.880 11.835505
55.885 12.616762
55.890 12.669971
55.895 13.012753
55.900 13.184958
55.905 13.187378
55.910 13.368815
55.915 13.190368
55.920 13.09379
55.925 13.457755
55.930 13.214608
55.935 12.85875
55.940 12.942019
55.945 13.403534
55.950 13.773762
55.955 13.871059
55.960 13.841395
55.965 13.774347
55.970 13.79558
55.975 13.134215
55.980 12.626185
55.985 12.405254
55.990 12.128946
55.995 12.431648
56.000 13.114805
56.005 13.360037
56.010 13.535906
56.015 13.609592
56.020 13.499866
56.025 13.259701
56.030 12.535724
56.035 11.983269
56.040 11.776415
56.045 12.276957
56.050 12.383183
56.055 12.309674
56.060 12.531479
56.065 12.760212
56.070 13.300203
56.075 13.639531
56.080 13.560058
56.085 13.260541
56.090 13.100487
56.095 13.152217
56.100 12.9125
56.105 12.306249
56.110 12.189559
56.115 11.070943
56.120 11.139608
56.125 11.426536
56.130 11.734051
56.135 11.879017
56.140 11.984844
56.145 12.192909
56.150 13.179222
56.155 13.436065
56.160 13.503148
56.165 13.385256
56.170 13.824016
56.175 13.824688
56.180 13.746696
56.185 13.62843
56.190 13.62168
56.195 13.714994
56.200 14.167442
56.205 13.637142
56.210 13.297852
56.215 12.979372
56.220 13.011001
56.225 12.651848
56.230 12.799725
56.235 12.588778
56.240 12.972177
56.245 13.499067
56.250 13.405602
56.255 13.498552
56.260 13.293612
56.265 12.899271
56.270 12.838045
56.275 12.864487
56.280 12.604499
56.285 12.576177
56.290 12.613444
56.295 13.08717
56.300 13.066781
56.305 12.819859
56.310 12.611336
56.315 13.137941
56.320 13.625081
56.325 13.396743
56.330 13.119272
56.335 12.8888
56.340 13.332062
56.345 13.55951
56.350 12.853219
56.355 12.562242
56.360 12.508534
56.365 12.56027
56.370 13.042781
56.375 13.098652
56.380 12.79201
56.385 12.977447
56.390 12.29748
56.395 12.232244
56.400 12.111719
56.405 11.502997
56.410 11.424944
56.415 11.701378
56.420 11.903904
56.425 12.659615
56.430 13.178249
56.435 13.196439
56.440 13.500631
56.445 13.791773
56.450 13.810223
56.455 13.994484
56.460 14.07851
56.465 13.884287
56.470 13.841082
56.475 13.700234
56.480 12.922424
56.485 12.595551
56.490 12.532566
56.495 12.76547
56.500 12.847956
56.505 13.15115
56.510 13.425179
56.515 13.757237
56.520 13.94374
56.525 13.387981
56.530 12.564829
56.535 12.09003
56.540 11.740081
56.545 11.818163
56.550 11.939671
56.555 11.754401
56.560 11.673064
56.565 11.993999
56.570 12.49699
56.575 13.067056
56.580 13.494492
56.585 13.527132
56.590 13.728217
56.595 14.06516
56.600 14.227216
56.605 14.266745
56.610 13.810836
56.615 13.965655
56.620 13.957613
56.625 14.257921
56.630 14.554021
56.635 14.668556
56.640 14.694185
56.645 13.960526
56.650 13.454255
56.655 13.404961
56.660 13.256225
56.665 12.563599
56.670 12.491096
56.675 13.018533
56.680 13.547128
56.685 13.49693
56.690 13.399883
56.695 13.111458
56.700 13.538256
56.705 14.072516
56.710 14.129969
56.715 14.864119
56.720 15.621921
56.725 15.89257
56.730 16.125881
56.735 16.213366
56.740 15.87686
56.745 15.344119
56.750 15.303535
56.755 15.086142
56.760 15.200167
56.765 14.755019
56.770 14.415933
56.775 14.433207
56.780 14.232477
56.785 14.044902
56.790 14.147994
56.795 13.943916
56.800 14.330731
56.805 13.975491
56.810 13.254165
56.815 13.021115
56.820 12.6638
56.825 12.210289
56.830 12.53756
56.835 12.675945
56.840 13.102665
56.845 13.307266
56.850 13.622138
56.855 13.328539
56.860 13.85088
56.865 14.609942
56.870 14.854436
56.875 14.832616
56.880 15.255419
56.885 15.215973
56.890 15.537058
56.895 15.08414
56.900 14.562185
56.905 14.176151
56.910 14.110791
56.915 14.023159
56.920 14.14505
56.925 14.24952
56.930 14.50878
56.935 14.356642
56.940 14.568732
56.945 14.415822
56.950 13.924875
56.955 13.844604
56.960 13.33309
56.965 13.539595
56.970 13.956802
56.975 14.220968
56.980 14.451488
56.985 14.726774
56.990 14.574769
56.995 14.457065
57.000 14.06813
57.005 13.768691
57.010 13.605735
57.015 13.643669
57.020 13.707891
57.025 13.560229
57.030 13.788239
57.035 13.840098
57.040 13.904299
57.045 13.985245
57.050 14.326152
57.055 14.481009
57.060 14.962679
57.065 14.912715
57.070 14.762551
57.075 14.425784
57.080 14.270728
57.085 14.441911
57.090 14.740309
57.095 14.379902
57.100 14.041959
57.105 13.842236
57.110 14.227194
57.115 14.329986
57.120 13.969117
57.125 13.400427
57.130 13.994387
57.135 14.945613
57.140 15.107991
57.145 14.493398
57.150 13.983343
57.155 13.845178
57.160 13.990506
57.165 14.019506
57.170 13.69965
57.175 14.15864
57.180 14.625134
57.185 14.600402
57.190 15.213026
57.195 15.641411
57.200 15.256456
57.205 15.311273
57.210 15.275702
57.215 15.003446
57.220 14.817501
57.225 14.204512
57.230 13.686234
57.235 13.24139
57.240 13.088957
57.245 13.281193
57.250 13.312821
57.255 13.375211
57.260 13.660341
57.265 14.111635
57.270 14.603109
57.275 14.257969
57.280 14.40833
57.285 15.043252
57.290 14.992527
57.295 14.871818
57.300 15.241396
57.305 14.848612
57.310 14.62466
57.315 14.158708
57.320 13.763372
57.325 14.734343
57.330 15.256362
57.335 15.164529
57.340 15.683487
57.345 15.811386
57.350 16.375305
57.355 16.248917
57.360 15.775961
57.365 15.104917
57.370 14.563768
57.375 14.333744
57.380 14.635282
57.385 14.794572
57.390 15.255294
57.395 15.284651
57.400 15.629394
57.405 16.126171
57.410 16.708338
57.415 16.536251
57.420 16.404575
57.425 15.809293
57.430 15.507853
57.435 15.298201
57.440 15.137668
57.445 14.961513
57.450 14.921803
57.455 14.713841
57.460 15.029012
57.465 14.80899
57.470 14.593182
57.475 14.36155
57.480 13.867899
57.485 13.806991
57.490 13.994606
57.495 13.752224
57.500 13.640176
57.505 14.082919
57.510 13.904799
57.515 14.223284
57.520 14.410305
57.525 14.351856
57.530 14.086998
57.535 13.81711
57.540 13.520099
57.545 13.513352
57.550 13.162447
57.555 13.05563
57.560 13.198584
57.565 13.634392
57.570 14.007097
57.575 14.433146
57.580 14.865862
57.585 15.40821
57.590 15.337445
57.595 15.543023
57.600 15.822933
57.605 15.701777
57.610 15.225895
57.615 14.982048
57.620 14.955176
57.625 14.506278
57.630 14.510147
57.635 13.902002
57.640 13.644344
57.645 13.922512
57.650 14.053835
57.655 13.788914
57.660 14.548772
57.665 14.83779
57.670 15.250453
57.675 15.68421
57.680 15.901256
57.685 15.688011
57.690 15.821477
57.695 15.343377
57.700 14.649867
57.705 14.852341
57.710 14.448723
57.715 14.190696
57.720 14.329939
57.725 14.198734
57.730 14.340008
57.735 15.069854
57.740 15.08545
57.745 15.047975
57.750 15.092586
57.755 14.785166
57.760 14.853311
57.765 14.706135
57.770 14.60135
57.775 14.907441
57.780 14.727205
57.785 14.931733
57.790 15.26716
57.795 15.323314
57.800 15.770863
57.805 15.702622
57.810 15.827168
57.815 15.689016
57.820 15.963496
57.825 15.879427
57.830 15.59954
57.835 15.14945
57.840 14.705436
57.845 14.62781
57.850 15.094558
57.855 14.859502
57.860 15.0454
57.865 15.647779
57.870 15.722326
57.875 15.466967
57.880 14.887143
57.885 14.597435
57.890 14.752982
57.895 14.067151
57.900 13.982183
57.905 13.990297
57.910 14.26648
57.915 14.990355
57.920 15.318846
57.925 15.010935
57.930 15.375639
57.935 15.295576
57.940 15.771921
57.945 15.9773
57.950 15.746186
57.955 15.614232
57.960 15.376096
57.965 15.171222
57.970 14.723609
57.975 14.719485
57.980 15.039226
57.985 15.262452
57.990 15.513391
57.995 15.788914
58.000 16.307579
58.005 16.655794
58.010 16.234388
58.015 16.014395
58.020 15.83818
58.025 15.764595
58.030 15.697856
58.035 15.599781
58.040 15.492767
58.045 15.837439
58.050 15.531139
58.055 15.232887
58.060 15.518064
58.065 15.720271
58.070 15.497482
58.075 15.254863
58.080 14.723581
58.085 15.078237
58.090 15.219615
58.095 14.700553
58.100 14.565125
58.105 14.895956
58.110 15.26668
58.115 15.133237
58.120 15.224007
58.125 15.190452
58.130 15.225908
58.135 15.334016
58.140 15.418723
58.145 15.415936
58.150 15.755628
58.155 15.389335
58.160 15.417604
58.165 15.588508
58.170 15.317866
58.175 15.446567
58.180 15.456708
58.185 15.273361
58.190 15.369569
58.195 15.112707
58.200 15.099491
58.205 15.374858
58.210 14.912681
58.215 14.908323
58.220 15.32393
58.225 15.424664
58.230 15.287868
58.235 15.607121
58.240 15.839185
58.245 16.525572
58.250 16.829329
58.255 17.071198
58.260 17.131088
58.265 17.490019
58.270 17.083426
58.275 16.782001
58.280 16.23587
58.285 16.111322
58.290 16.287695
58.295 16.695753
58.300 16.460522
58.305 16.205853
58.310 15.841611
58.315 14.948607
58.320 14.110976
58.325 13.616041
58.330 13.28234
58.335 13.116719
58.340 13.491733
58.345 14.265085
58.350 14.474745
58.355 14.698704
58.360 14.137101
58.365 14.248003
58.370 14.533563
58.375 14.472051
58.380 14.066079
58.385 14.177853
58.390 14.649564
58.395 14.742909
58.400 14.745768
58.405 14.810662
58.410 14.605463
58.415 15.29714
58.420 16.024925
58.425 16.076485
58.430 16.466284
58.435 16.702192
58.440 17.169769
58.445 17.574389
58.450 17.907618
58.455 17.410831
58.460 17.450775
58.465 17.45026
58.470 17.387028
58.475 16.912178
58.480 16.351772
58.485 15.566533
58.490 16.249432
58.495 16.229532
58.500 16.12027
58.505 16.170807
58.510 16.342003
58.515 16.239424
58.520 16.326311
58.525 15.734346
58.530 15.505535
58.535 15.458833
58.540 15.418616
58.545 15.532601
58.550 15.748263
58.555 15.499861
58.560 15.377098
58.565 15.932931
58.570 16.166311
58.575 16.065374
58.580 16.214664
58.585 16.381626
58.590 16.414717
58.595 16.588522
58.600 16.28203
58.605 16.181767
58.610 15.778459
58.615 14.820953
58.620 14.73111
58.625 15.50373
58.630 15.633554
58.635 15.935949
58.640 15.970022
58.645 16.08316
58.650 16.632103
58.655 16.489035
58.660 15.964478
58.665 15.471168
58.670 14.904096
58.675 15.040935
58.680 14.892517
58.685 14.81837
58.690 14.848356
58.695 15.664742
58.700 16.146456
58.705 16.553719
58.710 16.334951
58.715 16.237774
58.720 16.579159
58.725 16.799503
58.730 16.366379
58.735 16.338345
58.740 16.544209
58.745 16.954187
58.750 16.809174
58.755 15.943787
58.760 15.384079
58.765 15.398629
58.770 15.300364
58.775 14.88406
58.780 14.773619
58.785 15.685288
58.790 16.350891
58.795 16.492113
58.800 16.570816
58.805 16.972761
58.810 17.035395
58.815 16.865095
58.820 16.137062
58.825 15.746432
58.830 15.066259
58.835 14.53865
58.840 14.303727
58.845 14.112777
58.850 14.021867
58.855 14.490565
58.860 14.568606
58.865 14.979475
58.870 14.967207
58.875 15.049419
58.880 15.031302
58.885 14.891514
58.890 14.96899
58.895 14.951449
58.900 14.979845
58.905 15.415406
58.910 15.282198
58.915 15.599101
58.920 15.307514
58.925 15.002213
58.930 15.479685
58.935 15.53535
58.940 15.456958
58.945 15.655958
58.950 15.627046
58.955 16.283155
58.960 16.780392
58.965 17.308943
58.970 18.244844
58.975 18.598093
58.980 18.801764
58.985 18.867989
58.990 18.709448
58.995 18.214521
59.000 17.012463
59.005 16.176815
59.010 15.56532
59.015 15.191977
59.020 14.887218
59.025 14.730605
59.030 15.204306
59.035 15.523959
59.040 15.659563
59.045 15.698735
59.050 15.671886
59.055 15.861061
59.060 15.871544
59.065 15.692724
59.070 15.549228
59.075 15.201194
59.080 15.841872
59.085 15.817569
59.090 16.108803
59.095 16.028481
59.100 16.188358
59.105 16.431337
59.110 16.589554
59.115 16.214832
59.120 16.334633
59.125 16.463652
59.130 16.666647
59.135 16.731155
59.140 17.169825
59.145 16.943098
59.150 16.869602
59.155 16.932972
59.160 17.252865
59.165 17.111866
59.170 16.774208
59.175 16.473244
59.180 16.69655
59.185 16.744583
59.190 16.556805
59.195 16.05455
59.200 15.880117
59.205 15.907651
59.210 16.29598
59.215 16.266048
59.220 16.029192
59.225 15.911999
59.230 15.712657
59.235 16.134274
59.240 16.313089
59.245 16.077599
59.250 15.950242
59.255 16.639242
59.260 16.373144
59.265 16.432058
59.270 16.821529
59.275 16.383928
59.280 16.338041
59.285 16.037048
59.290 15.720613
59.295 15.937905
59.300 16.104794
59.305 15.771692
59.310 15.970936
59.315 15.611856
59.320 15.917741
59.325 15.737282
59.330 15.86024
59.335 16.098257
59.340 16.160053
59.345 15.525516
59.350 15.53294
59.355 15.301565
59.360 15.203281
59.365 15.134691
59.370 14.787375
59.375 15.314411
59.380 15.800056
59.385 15.990552
59.390 16.469122
59.395 16.516958
59.400 16.724649
59.405 16.218506
59.410 16.042597
59.415 16.130253
59.420 16.418943
59.425 16.832031
59.430 17.381878
59.435 17.170818
59.440 17.535645
59.445 17.693142
59.450 18.234964
59.455 18.44492
59.460 18.00308
59.465 17.616518
59.470 17.699284
59.475 17.777864
59.480 17.585146
59.485 17.756559
59.490 17.644657
59.495 17.981604
59.500 18.367489
59.505 18.152241
59.510 17.867579
59.515 17.516523
59.520 17.334503
59.525 17.141474
59.530 16.94191
59.535 16.901604
59.540 17.056406
59.545 16.938692
59.550 16.652777
59.555 16.496784
59.560 16.508869
59.565 16.095558
59.570 16.523739
59.575 16.89484
59.580 17.770977
59.585 18.484896
59.590 18.260227
59.595 18.613098
59.600 18.357838
59.605 17.391775
59.610 17.084072
59.615 16.343454
59.620 16.536135
59.625 17.415627
59.630 17.582664
59.635 18.183289
59.640 18.979435
59.645 19.270107
59.650 19.941437
59.655 19.614899
59.660 19.143589
59.665 19.213392
59.670 18.825525
59.675 18.288712
59.680 18.239983
59.685 17.611217
59.690 17.36982
59.695 17.818523
59.700 18.564205
59.705 19.262581
59.710 19.341063
59.715 19.217726
59.720 19.493294
59.725 19.813744
59.730 20.080694
59.735 20.02236
59.740 20.275135
59.745 20.341427
59.750 20.294533
59.755 20.168474
59.760 19.886971
59.765 19.013456
59.770 18.821468
59.775 18.831354
59.780 18.851641
59.785 18.785906
59.790 18.549759
59.795 18.335651
59.800 18.274836
59.805 17.313536
59.810 17.38294
59.815 18.035162
59.820 18.852236
59.825 19.193672
59.830 18.805704
59.835 18.820225
59.840 19.070307
59.845 18.865223
59.850 18.465944
59.855 18.249096
59.860 18.181095
59.865 19.137028
59.870 19.596962
59.875 19.496372
59.880 19.353592
59.885 19.364788
59.890 19.133783
59.895 19.333269
59.900 19.456205
59.905 19.899754
59.910 20.619928
59.915 21.080156
59.920 21.482805
59.925 21.591173
59.930 21.377018
59.935 20.812075
59.940 19.953131
59.945 20.179585
59.950 19.753853
59.955 19.287561
59.960 19.617552
59.965 20.215899
59.970 20.387917
59.975 20.375721
59.980 20.330057
59.985 20.160448
59.990 20.206837
59.995 20.054613
60.000 19.739237
60.005 20.186323
60.010 20.249033
60.015 20.17218
60.020 20.654594
60.025 20.845316
60.030 21.17654
60.035 21.114765
60.040 20.499275
60.045 21.218313
60.050 21.451515
60.055 21.405272
60.060 21.09164
60.065 20.701372
60.070 20.750843
60.075 21.005714
60.080 20.059513
60.085 19.92103
60.090 20.228855
60.095 20.619446
60.100 20.959391
60.105 21.726316
60.110 22.118706
60.115 22.5695
60.120 22.843037
60.125 22.655148
60.130 22.102821
60.135 21.882185
60.140 21.386681
60.145 21.326149
60.150 21.35708
60.155 21.218521
60.160 21.298492
60.165 21.641321
60.170 22.010843
60.175 22.103872
60.180 22.374565
60.185 22.813839
60.190 22.734186
60.195 22.733011
60.200 22.948164
60.205 23.400244
60.210 23.352537
60.215 23.321991
60.220 22.767385
60.225 22.99659
60.230 23.142023
60.235 23.171274
60.240 22.624065
60.245 22.397129
60.250 22.050106
60.255 21.844942
60.260 21.823538
60.265 22.070345
60.270 22.242624
60.275 22.017263
60.280 22.212982
60.285 22.595932
60.290 22.613369
60.295 22.591848
60.300 22.397606
60.305 22.341408
60.310 22.922075
60.315 23.37229
60.320 23.658403
60.325 23.65704
60.330 23.590387
60.335 22.544302
60.340 22.102274
60.345 21.996346
60.350 21.272358
60.355 20.961851
60.360 20.452774
60.365 20.307692
60.370 20.726963
60.375 20.429499
60.380 20.128923
60.385 19.85417
60.390 20.222242
60.395 21.346111
60.400 21.358
60.405 21.188248
60.410 21.553299
60.415 21.801188
60.420 21.982161
60.425 21.819595
60.430 21.528036
60.435 21.578215
60.440 22.257906
60.445 21.9813
60.450 21.316998
60.455 20.965382
60.460 20.344072
60.465 19.747475
60.470 19.918505
60.475 19.454159
60.480 19.767237
60.485 20.347492
60.490 21.171783
60.495 22.271675
60.500 22.562555
60.505 22.630299
60.510 22.875217
60.515 22.986944
60.520 22.771002
60.525 22.291706
60.530 21.808447
60.535 22.165926
60.540 22.614805
60.545 22.654179
60.550 22.827795
60.555 22.528017
60.560 22.053194
60.565 21.653458
60.570 21.069756
60.575 20.488125
60.580 20.155657
60.585 20.014362
60.590 20.234766
60.595 20.589876
60.600 20.540096
60.605 20.541237
60.610 20.474834
60.615 20.680746
60.620 20.63825
60.625 21.020519
60.630 21.202646
60.635 21.538515
60.640 21.843203
60.645 22.046314
60.650 21.343637
60.655 21.295118
60.660 20.973312
60.665 20.521818
60.670 19.939388
60.675 18.956123
60.680 19.387871
60.685 19.765654
60.690 19.274149
60.695 18.97151
60.700 19.011969
60.705 19.106997
60.710 19.453733
60.715 18.828749
60.720 18.687916
60.725 19.211697
60.730 19.309296
60.735 19.153149
60.740 18.944677
60.745 18.86865
60.750 18.651279
60.755 18.987204
60.760 18.837433
60.765 18.881145
60.770 19.314487
60.775 19.900484
60.780 20.050207
60.785 19.77203
60.790 19.151438
60.795 19.142614
60.800 19.1276
60.805 18.800896
60.810 18.345184
60.815 18.192671
60.820 18.774862
60.825 18.597576
60.830 18.633963
60.835 18.991552
60.840 19.443964
60.845 19.446739
60.850 19.533203
60.855 19.321665
60.860 19.192438
60.865 19.104643
60.870 19.003786
60.875 19.044035
60.880 19.290306
60.885 19.98378
60.890 20.210167
60.895 20.538349
60.900 20.600786
60.905 20.44956
60.910 20.549644
60.915 20.994602
60.920 20.606281
60.925 20.169313
60.930 20.233131
60.935 20.287294
60.940 20.715649
60.945 20.460636
60.950 19.214684
60.955 19.144861
60.960 19.550795
60.965 19.490675
60.970 19.178324
60.975 17.912207
60.980 17.639551
60.985 18.164352
60.990 17.80567
60.995 17.316784
61.000 17.053329
61.005 16.910305
61.010 17.957035
61.015 18.215921
61.020 18.439964
61.025 18.781237
61.030 19.00421
61.035 19.206751
61.040 19.441303
61.045 19.209846
61.050 19.493393
61.055 19.216591
61.060 19.205688
61.065 19.733679
61.070 19.850637
61.075 19.717491
61.080 19.691347
61.085 19.287848
61.090 19.204536
61.095 18.899197
61.100 18.44685
61.105 18.487259
61.110 18.512789
61.115 18.533136
61.120 18.446468
61.125 17.941456
61.130 18.346107
61.135 18.668997
61.140 18.577591
61.145 18.648211
61.150 18.841484
61.155 19.397573
61.160 19.645355
61.165 18.999668
61.170 18.526268
61.175 18.37389
61.180 17.822565
61.185 17.89609
61.190 17.619801
61.195 17.606083
61.200 17.91647
61.205 18.282434
61.210 18.287703
61.215 18.191298
61.220 18.109627
61.225 18.478584
61.230 18.86096
61.235 18.539949
61.240 18.111046
61.245 18.355816
61.250 18.512274
61.255 17.89164
61.260 18.1635
61.265 18.159563
61.270 18.735037
61.275 19.349428
61.280 19.221834
61.285 19.19348
61.290 18.910673
61.295 18.176502
61.300 17.637106
61.305 18.007326
61.310 17.931252
61.315 17.819752
61.320 18.115406
61.325 18.78546
61.330 18.920301
61.335 18.956129
61.340 18.240623
61.345 17.731033
61.350 17.913637
61.355 17.826782
61.360 17.620832
61.365 17.680328
61.370 17.609291
61.375 17.226419
61.380 17.00297
61.385 17.254877
61.390 16.602076
61.395 16.625158
61.400 16.661104
61.405 16.681711
61.410 17.147923
61.415 17.509529
61.420 17.049923
61.425 17.292286
61.430 16.987745
61.435 16.617319
61.440 17.022572
61.445 17.172802
61.450 17.523695
61.455 18.024658
61.460 18.060406
61.465 18.545124
61.470 18.60745
61.475 17.988623
61.480 17.574287
61.485 17.704
61.490 17.887537
61.495 18.034121
61.500 17.618967
61.505 17.55859
61.510 17.846718
61.515 18.502764
61.520 18.411507
61.525 18.200764
61.530 18.495855
61.535 19.105122
61.540 19.049952
61.545 18.41431
61.550 17.749237
61.555 17.87187
61.560 17.886837
61.565 17.368563
61.570 17.239294
61.575 17.169344
61.580 17.442001
61.585 17.510113
61.590 16.786009
61.595 16.981728
61.600 18.01671
61.605 18.112886
61.610 18.363342
61.615 18.847389
61.620 18.907032
61.625 19.097389
61.630 18.468218
61.635 17.515924
61.640 17.135153
61.645 16.947592
61.650 16.425915
61.655 16.118761
61.660 16.425552
61.665 16.95083
61.670 17.171902
61.675 17.400791
61.680 17.655933
61.685 17.70031
61.690 17.792423
61.695 17.3351
61.700 17.184677
61.705 16.965218
61.710 16.865417
61.715 16.880892
61.720 16.7742
61.725 16.904091
61.730 17.088835
61.735 16.98246
61.740 16.984909
61.745 16.857372
61.750 16.641191
61.755 16.992451
61.760 17.312136
61.765 17.422256
61.770 17.811609
61.775 17.71059
61.780 17.22637
61.785 17.049147
61.790 16.663118
61.795 16.194906
61.800 15.973363
61.805 16.287167
61.810 17.130045
61.815 17.474865
61.820 17.380341
61.825 17.750139
61.830 18.281771
61.835 18.172779
61.840 17.565165
61.845 17.147861
61.850 16.978798
61.855 16.900097
61.860 16.674715
61.865 16.383623
61.870 16.809349
61.875 17.466877
61.880 17.998796
61.885 18.732029
61.890 19.585194
61.895 19.326496
61.900 19.240036
61.905 18.840855
61.910 18.402914
61.915 17.839678
61.920 17.593538
61.925 17.429264
61.930 17.199589
61.935 17.356163
61.940 17.536375
61.945 17.051991
61.950 16.999336
61.955 16.431747
61.960 16.259501
61.965 16.37133
61.970 16.123577
61.975 15.396241
61.980 15.889378
61.985 16.34918
61.990 16.605888
61.995 16.70801
62.000 16.93087
62.005 17.296747
62.010 17.917789
62.015 17.683544
62.020 17.214546
62.025 17.311449
62.030 17.159151
62.035 16.897718
62.040 16.943537
62.045 17.311979
62.050 17.559916
62.055 17.727869
62.060 17.472952
62.065 17.415773
62.070 17.562269
62.075 17.104969
62.080 16.456083
62.085 16.181725
62.090 16.536737
62.095 17.096731
62.100 17.382498
62.105 17.633724
62.110 18.079699
62.115 17.917379
62.120 17.914837
62.125 17.56488
62.130 17.333004
62.135 17.501917
62.140 17.597601
62.145 17.81846
62.150 18.695313
62.155 19.036455
62.160 19.228096
62.165 19.553329
62.170 20.297964
62.175 20.787703
62.180 20.239822
62.185 20.320881
62.190 20.251259
62.195 20.035854
62.200 19.319092
62.205 18.009655
62.210 17.344971
62.215 17.775955
62.220 17.50382
62.225 17.207493
62.230 17.400026
62.235 18.016329
62.240 18.5847
62.245 18.322569
62.250 18.223015
62.255 18.049444
62.260 17.680492
62.265 17.043423
62.270 16.355742
62.275 16.113726
62.280 16.61824
62.285 15.999986
62.290 16.091709
62.295 16.349049
62.300 16.388811
62.305 16.267431
62.310 16.199465
62.315 16.196859
62.320 16.322987
62.325 16.01882
62.330 16.211529
62.335 16.836832
62.340 17.09132
62.345 17.050083
62.350 16.732771
62.355 17.091625
62.360 17.750208
62.365 17.503128
62.370 17.388254
62.375 17.397587
62.380 17.728626
62.385 18.133429
62.390 17.832111
62.395 18.023302
62.400 18.759501
62.405 18.872292
62.410 19.342449
62.415 19.505983
62.420 19.779112
62.425 19.693933
62.430 18.922634
62.435 18.416767
62.440 18.126554
62.445 17.990614
62.450 17.713087
62.455 17.749575
62.460 18.247522
62.465 18.603924
62.470 18.315884
62.475 18.923565
62.480 18.896685
62.485 18.398186
62.490 17.743368
62.495 17.394409
62.500 17.796282
62.505 17.994198
62.510 17.446636
62.515 17.603661
62.520 18.232679
62.525 18.758764
62.530 18.403881
62.535 17.970831
62.540 17.801666
62.545 18.616947
62.550 18.794945
62.555 18.335377
62.560 17.953201
62.565 18.328938
62.570 18.930119
62.575 18.984102
62.580 18.355844
62.585 17.065025
62.590 17.065878
62.595 17.351967
62.600 16.946125
62.605 16.490349
62.610 16.349297
62.615 16.185165
62.620 17.092857
62.625 17.283283
62.630 17.158335
62.635 17.579535
62.640 17.515966
62.645 17.476038
62.650 17.760048
62.655 17.781679
62.660 18.01207
62.665 18.343557
62.670 18.988039
62.675 19.043196
62.680 18.978786
62.685 18.852533
62.690 18.70937
62.695 18.853415
62.700 18.765284
62.705 18.201424
62.710 18.449568
62.715 18.372478
62.720 18.314867
62.725 18.688314
62.730 19.243196
62.735 19.376278
62.740 19.005474
62.745 18.640358
62.750 19.179102
62.755 19.093048
62.760 18.373343
62.765 17.598017
62.770 17.45647
62.775 17.417339
62.780 17.342899
62.785 17.02808
62.790 16.964363
62.795 17.38036
62.800 17.028282
62.805 16.552446
62.810 16.65834
62.815 16.606653
62.820 16.315395
62.825 16.349861
62.830 16.208254
62.835 16.411123
62.840 16.574289
62.845 16.810652
62.850 16.891693
62.855 17.467081
62.860 17.490826
62.865 17.121954
62.870 17.1597
62.875 16.741528
62.880 16.610439
62.885 16.767826
62.890 16.312935
62.895 16.072674
62.900 16.259686
62.905 16.625456
62.910 16.795506
62.915 16.772787
62.920 16.753241
62.925 16.741507
62.930 17.092224
62.935 17.59165
62.940 17.605457
62.945 17.776417
62.950 17.859617
62.955 17.998859
62.960 18.506657
62.965 17.951895
62.970 17.768257
62.975 17.830805
62.980 18.360878
62.985 18.887012
62.990 18.603727
62.995 18.82618
63.000 19.155827
63.005 18.960146
63.010 18.708769
63.015 18.4746
63.020 17.85874
63.025 17.678087
63.030 17.621752
63.035 17.706032
63.040 17.738604
63.045 17.475929
63.050 17.335205
63.055 17.592838
63.060 18.042305
63.065 18.302385
63.070 18.359102
63.075 18.274145
63.080 18.571081
63.085 19.062508
63.090 19.252371
63.095 19.18581
63.100 18.417934
63.105 18.079823
63.110 18.069107
63.115 18.09194
63.120 17.452421
63.125 16.843222
63.130 16.63306
63.135 17.141111
63.140 17.946981
63.145 18.468924
63.150 18.508307
63.155 18.592205
63.160 19.258459
63.165 19.540096
63.170 18.983463
63.175 18.676651
63.180 18.474827
63.185 18.814554
63.190 18.959475
63.195 18.306086
63.200 18.266258
63.205 18.73317
63.210 19.021414
63.215 19.022791
63.220 18.474558
63.225 18.139633
63.230 18.083935
63.235 17.512436
63.240 17.281763
63.245 16.866589
63.250 17.125923
63.255 18.046507
63.260 18.297291
63.265 18.887787
63.270 19.296387
63.275 19.266224
63.280 19.203526
63.285 18.71003
63.290 18.225607
63.295 18.240187
63.300 17.951422
63.305 17.732555
63.310 17.442171
63.315 17.51977
63.320 17.348112
63.325 17.039598
63.330 17.230125
63.335 16.53017
63.340 16.523163
63.345 16.294186
63.350 16.383947
63.355 16.448879
63.360 16.336493
63.365 16.369558
63.370 16.424864
63.375 16.351126
63.380 16.627779
63.385 16.14064
63.390 16.189842
63.395 16.35495
63.400 16.610565
63.405 17.179609
63.410 17.270424
63.415 17.363037
63.420 17.475794
63.425 17.43112
63.430 17.820864
63.435 17.793837
63.440 17.811989
63.445 17.929188
63.450 17.670208
63.455 17.55003
63.460 17.367586
63.465 16.880983
63.470 17.458279
63.475 17.722328
63.480 17.352337
63.485 17.043961
63.490 17.96781
63.495 18.394167
63.500 18.399843
63.505 17.896456
63.510 17.492216
63.515 18.31076
63.520 18.368673
63.525 17.82357
63.530 17.888065
63.535 17.886248
63.540 18.116703
63.545 18.040943
63.550 17.760515
63.555 17.700563
63.560 18.141899
63.565 18.208086
63.570 17.277481
63.575 16.875645
63.580 17.035736
63.585 17.005018
63.590 17.534731
63.595 17.171144
63.600 17.007832
63.605 17.935385
63.610 18.105698
63.615 18.41535
63.620 18.49954
63.625 17.876211
63.630 17.324394
63.635 17.457613
63.640 17.372034
63.645 17.571901
63.650 18.00667
63.655 18.147638
63.660 18.463444
63.665 18.873796
63.670 19.010815
63.675 18.799477
63.680 18.359457
63.685 17.879436
63.690 18.079458
63.695 17.956404
63.700 17.5639
63.705 17.699194
63.710 17.880102
63.715 18.076708
63.720 17.478153
63.725 17.567198
63.730 17.749958
63.735 18.445246
63.740 18.725283
63.745 18.905478
63.750 19.460915
63.755 20.227728
63.760 20.090042
63.765 19.615526
63.770 18.68469
63.775 18.450443
63.780 18.620834
63.785 18.464054
63.790 18.240412
63.795 17.729324
63.800 17.740284
63.805 18.010952
63.810 17.314543
63.815 16.762497
63.820 16.758799
63.825 16.806355
63.830 17.358179
63.835 18.083904
63.840 18.026129
63.845 18.684893
63.850 18.901775
63.855 18.435276
63.860 18.950163
63.865 19.123344
63.870 19.027611
63.875 19.05508
63.880 18.642683
63.885 18.821217
63.890 19.129288
63.895 18.343016
63.900 18.223885
63.905 18.755938
63.910 19.165442
63.915 18.959995
63.920 18.448723
63.925 17.911383
63.930 18.160807
63.935 18.249268
63.940 17.728582
63.945 17.543392
63.950 17.763527
63.955 18.282766
63.960 18.742863
63.965 18.713781
63.970 18.296453
63.975 18.022509
63.980 18.440907
63.985 18.185743
63.990 17.788805
63.995 17.755274
64.000 17.857714
64.005 18.508081
64.010 19.22686
64.015 19.239302
64.020 19.797615
64.025 20.458055
64.030 20.090755
64.035 19.915979
64.040 19.751774
64.045 19.524742
64.050 19.402414
64.055 19.127508
64.060 18.720827
64.065 19.296476
64.070 19.431086
64.075 19.182865
64.080 18.626276
64.085 18.526339
64.090 18.65049
64.095 18.390354
64.100 18.437931
64.105 18.199425
64.110 18.171299
64.115 18.519287
64.120 18.895647
64.125 18.575342
64.130 18.164356
64.135 17.578224
64.140 17.73456
64.145 17.701996
64.150 17.872944
64.155 17.66086
64.160 17.980217
64.165 18.218822
64.170 18.472975
64.175 18.380545
64.180 18.068392
64.185 17.301048
64.190 16.749231
64.195 16.61183
64.200 16.968456
64.205 16.444033
64.210 16.629648
64.215 17.161022
64.220 17.642452
64.225 18.329773
64.230 18.380123
64.235 18.477448
64.240 19.0222
64.245 19.369732
64.250 18.836956
64.255 18.821997
64.260 18.947655
64.265 19.514566
64.270 19.506166
64.275 19.164492
64.280 18.617378
64.285 18.509758
64.290 18.123894
64.295 17.924002
64.300 17.725199
64.305 17.650476
64.310 18.206945
64.315 18.649261
64.320 18.66921
64.325 19.138796
64.330 19.215096
64.335 18.726326
64.340 18.508148
64.345 18.188683
64.350 18.391865
64.355 19.208818
64.360 19.221331
64.365 18.61426
64.370 18.696152
64.375 18.68128
64.380 18.908169
64.385 18.522532
64.390 17.984304
64.395 18.13257
64.400 18.67498
64.405 18.68471
64.410 18.85317
64.415 18.748323
64.420 18.839973
64.425 18.740267
64.430 18.094893
64.435 18.525026
64.440 18.652872
64.445 19.045332
64.450 19.648657
64.455 19.429861
64.460 19.496653
64.465 19.72945
64.470 19.287863
64.475 19.656004
64.480 19.57629
64.485 18.983959
64.490 19.131374
64.495 19.758301
64.500 20.272346
64.505 20.033365
64.510 19.813177
64.515 19.9883
64.520 20.257912
64.525 20.257061
64.530 19.65427
64.535 19.776733
64.540 20.740196
64.545 21.275974
64.550 21.13833
64.555 21.034227
64.560 20.987957
64.565 20.927048
64.570 20.426888
64.575 20.33168
64.580 19.23764
64.585 18.738861
64.590 18.95018
64.595 18.952965
64.600 18.727602
64.605 18.537167
64.610 17.723385
64.615 17.739286
64.620 18.165203
64.625 18.070984
64.630 18.017008
64.635 18.27566
64.640 18.319986
64.645 18.784399
64.650 19.251854
64.655 18.776722
64.660 18.419304
64.665 18.735752
64.670 19.551512
64.675 19.877947
64.680 20.004944
64.685 20.337742
64.690 20.585133
64.695 20.81612
64.700 20.263588
64.705 19.412071
64.710 19.23193
64.715 18.970068
64.720 18.535364
64.725 18.685415
64.730 18.423996
64.735 18.792141
64.740 19.288065
64.745 19.51565
64.750 19.792944
64.755 19.728262
64.760 19.282364
64.765 19.645594
64.770 19.204237
64.775 18.71414
64.780 18.575691
64.785 18.335463
64.790 18.772896
64.795 19.775309
64.800 19.780769
64.805 19.948847
64.810 20.610283
64.815 21.09293
64.820 21.286858
64.825 21.283224
64.830 20.984707
64.835 21.448866
64.840 21.266983
64.845 21.044025
64.850 21.080822
64.855 21.516504
64.860 21.650867
64.865 21.621838
64.870 21.664385
64.875 22.028837
64.880 21.994957
64.885 21.528563
64.890 21.287853
64.895 21.170589
64.900 21.093645
64.905 20.654022
64.910 20.983124
64.915 21.190018
64.920 21.131186
64.925 21.135027
64.930 21.342093
64.935 21.008236
64.940 21.498291
64.945 20.765198
64.950 20.331377
64.955 21.36581
64.960 21.574448
64.965 21.743855
64.970 22.122072
64.975 21.981735
64.980 23.078978
64.985 23.949812
64.990 23.316338
64.995 22.851297
65.000 22.693323
65.005 23.199099
65.010 23.22393
65.015 22.774263
65.020 22.399658
65.025 22.935038
65.030 23.735149
65.035 23.88406
65.040 23.942125
65.045 24.206318
65.050 24.229916
65.055 24.020781
65.060 24.166222
65.065 23.485029
65.070 23.837351
65.075 23.363161
65.080 22.487597
65.085 22.082113
65.090 21.770363
65.095 21.86075
65.100 21.891899
65.105 21.464548
65.110 21.694008
65.115 22.403419
65.120 22.857821
65.125 23.5072
65.130 22.871647
65.135 22.266272
65.140 22.029226
65.145 22.534424
65.150 22.923372
65.155 23.008127
65.160 22.086296
65.165 22.604414
65.170 23.948755
65.175 24.125303
65.180 24.025806
65.185 23.771225
65.190 23.258167
65.195 23.50709
65.200 23.449024
65.205 23.008593
65.210 23.000628
65.215 22.77191
65.220 23.052301
65.225 23.884148
65.230 24.796219
65.235 25.271
65.240 25.467262
65.245 25.563643
65.250 25.799845
65.255 25.285076
65.260 24.791025
65.265 23.79859
65.270 23.20466
65.275 23.293694
65.280 23.030283
65.285 22.757238
65.290 22.848831
65.295 22.87199
65.300 22.9032
65.305 22.822945
65.310 22.712526
65.315 22.524122
65.320 22.246906
65.325 22.404322
65.330 22.439211
65.335 22.651249
65.340 22.268412
65.345 21.925997
65.350 21.988596
65.355 22.178226
65.360 22.233688
65.365 22.324205
65.370 23.015516
65.375 23.537455
65.380 23.44552
65.385 24.128342
65.390 24.033823
65.395 24.285303
65.400 23.969154
65.405 24.131268
65.410 24.343721
65.415 25.181065
65.420 25.610312
65.425 25.960949
65.430 26.278147
65.435 26.904772
65.440 26.753271
65.445 26.374233
65.450 25.446548
65.455 24.410803
65.460 24.125305
65.465 23.867817
65.470 23.295191
65.475 23.049231
65.480 23.236679
65.485 24.029943
65.490 24.656382
65.495 24.549007
65.500 24.421143
65.505 24.364153
65.510 25.395342
65.515 26.081078
65.520 26.113962
65.525 26.532795
65.530 27.442928
65.535 28.711823
65.540 29.506691
65.545 28.876657
65.550 29.200451
65.555 29.62562
65.560 30.322376
65.565 30.271002
65.570 29.689653
65.575 29.660988
65.580 30.449745
65.585 29.981014
65.590 29.771301
65.595 29.17029
65.600 29.033148
65.605 29.594934
65.610 30.318293
65.615 30.285105
65.620 30.5665
65.625 30.924891
65.630 31.277262
65.635 31.360445
65.640 31.310875
65.645 30.751642
65.650 30.638983
65.655 31.02067
65.660 31.391775
65.665 32.216492
65.670 33.362274
65.675 34.054947
65.680 34.572655
65.685 35.136829
65.690 35.221684
65.695 34.599426
65.700 33.908394
65.705 33.267136
65.710 33.178455
65.715 33.594112
65.720 33.339035
65.725 33.180538
65.730 32.980492
65.735 33.323784
65.740 33.704941
65.745 33.322311
65.750 32.580387
65.755 32.78754
65.760 33.519482
65.765 33.836491
65.770 34.186577
65.775 34.269394
65.780 34.830589
65.785 36.341549
65.790 36.384876
65.795 36.566315
65.800 37.088089
65.805 37.864647
65.810 38.003178
65.815 37.952015
65.820 37.007645
65.825 37.397511
65.830 37.639729
65.835 38.373734
65.840 37.861839
65.845 37.669327
65.850 37.805065
65.855 38.642799
65.860 39.359074
65.865 39.225178
65.870 38.099041
65.875 38.263279
65.880 38.598358
65.885 38.834846
65.890 38.938625
65.895 38.510368
65.900 38.650314
65.905 38.529079
65.910 37.955143
65.915 38.232006
65.920 37.925922
65.925 37.723866
65.930 37.94524
65.935 37.803013
65.940 38.037075
65.945 38.188965
65.950 37.090122
65.955 37.153194
65.960 37.604168
65.965 37.921856
65.970 37.754265
65.975 37.863327
65.980 37.629803
65.985 37.285309
65.990 37.505684
65.995 36.565933
66.000 36.119995
66.005 36.274609
66.010 35.979023
66.015 35.966034
66.020 36.19973
66.025 36.228245
66.030 37.259651
66.035 37.942535
66.040 38.331615
66.045 38.821327
66.050 39.200581
66.055 39.898094
66.060 39.537922
66.065 39.605503
66.070 38.680618
66.075 38.278076
66.080 38.010246
66.085 38.484615
66.090 38.794823
66.095 38.914692
66.100 38.749912
66.105 39.070858
66.110 40.073521
66.115 40.163139
66.120 39.757462
66.125 38.654221
66.130 37.708305
66.135 37.033367
66.140 36.588886
66.145 35.481251
66.150 35.15168
66.155 35.203541
66.160 35.46455
66.165 35.804104
66.170 35.418118
66.175 35.138744
66.180 34.773464
66.185 34.946327
66.190 35.188644
66.195 35.217655
66.200 35.18161
66.205 35.545704
66.210 35.482464
66.215 35.683697
66.220 35.684975
66.225 35.344887
66.230 34.5634
66.235 34.045341
66.240 33.980804
66.245 33.87035
66.250 33.653973
66.255 33.198975
66.260 33.069046
66.265 33.25169
66.270 32.994171
66.275 32.271412
66.280 31.985254
66.285 32.394386
66.290 32.482441
66.295 32.326424
66.300 33.349747
66.305 34.416134
66.310 35.511898
66.315 35.910622
66.320 35.869675
66.325 36.429771
66.330 36.829498
66.335 36.052017
66.340 34.682846
66.345 34.435623
66.350 34.187561
66.355 34.100967
66.360 33.977276
66.365 33.745697
66.370 33.647396
66.375 33.289898
66.380 32.806061
66.385 33.074921
66.390 32.258801
66.395 31.368259
66.400 31.56172
66.405 31.353104
66.410 31.389378
66.415 31.370445
66.420 30.953491
66.425 31.030603
66.430 31.505562
66.435 31.784628
66.440 31.809042
66.445 31.476206
66.450 31.157263
66.455 31.301497
66.460 31.396509
66.465 30.837584
66.470 30.526464
66.475 30.409817
66.480 30.371677
66.485 30.034332
66.490 30.269779
66.495 30.485035
66.500 30.515192
66.505 30.221783
66.510 30.392796
66.515 29.893719
66.520 29.951406
66.525 29.558611
66.530 29.350868
66.535 28.678734
66.540 28.357635
66.545 27.994976
66.550 28.43762
66.555 27.991777
66.560 27.795475
66.565 27.775948
66.570 28.485647
66.575 28.738308
66.580 28.629425
66.585 28.430628
66.590 28.136061
66.595 28.061401
66.600 27.472075
66.605 26.134535
66.610 25.685089
66.615 25.766836
66.620 26.239273
66.625 26.631481
66.630 26.462908
66.635 26.022682
66.640 26.010633
66.645 26.147652
66.650 26.704788
66.655 26.19243
66.660 26.028433
66.665 26.388306
66.670 26.470762
66.675 27.114969
66.680 27.185593
66.685 26.811977
66.690 25.945221
66.695 25.387352
66.700 25.695063
66.705 26.651361
66.710 25.975935
66.715 25.680567
66.720 25.194204
66.725 26.459705
66.730 26.935513
66.735 26.185005
66.740 25.966465
66.745 25.658689
66.750 25.675999
66.755 25.212582
66.760 24.17366
66.765 23.873125
66.770 23.87611
66.775 23.932186
66.780 24.235399
66.785 24.343773
66.790 24.960699
66.795 25.394335
66.800 25.39465
66.805 25.501421
66.810 25.338158
66.815 24.662996
66.820 24.4196
66.825 24.510469
66.830 24.678772
66.835 24.477043
66.840 24.36314
66.845 24.350735
66.850 24.992077
66.855 24.868795
66.860 24.643549
66.865 24.691616
66.870 24.601423
66.875 24.463789
66.880 24.173712
66.885 24.129557
66.890 24.268482
66.895 24.517012
66.900 24.309736
66.905 24.478216
66.910 24.657465
66.915 24.544336
66.920 24.040083
66.925 23.803015
66.930 23.43461
66.935 22.888382
66.940 22.666651
66.945 22.740009
66.950 22.376406
66.955 22.377665
66.960 22.581343
66.965 23.411299
66.970 23.792498
66.975 23.825712
66.980 24.019402
66.985 25.25942
66.990 25.494024
66.995 24.746496
67.000 23.650827
67.005 23.885672
67.010 24.32053
67.015 23.450249
67.020 22.815771
67.025 22.851631
67.030 23.157181
67.035 23.222221
67.040 22.431751
67.045 22.07391
67.050 22.092331
67.055 21.79958
67.060 22.130659
67.065 22.461622
67.070 22.106392
67.075 22.775732
67.080 23.001366
67.085 23.252319
67.090 23.578928
67.095 22.826527
67.100 22.62398
67.105 22.909601
67.110 22.709646
67.115 22.442791
67.120 22.533266
67.125 22.461586
67.130 22.570827
67.135 22.655626
67.140 22.784588
67.145 22.51622
67.150 22.39694
67.155 22.521864
67.160 22.901545
67.165 23.599442
67.170 23.532358
67.175 22.780138
67.180 22.655245
67.185 22.805672
67.190 23.247089
67.195 23.04455
67.200 22.397625
67.205 22.527088
67.210 22.87406
67.215 23.433041
67.220 23.512506
67.225 22.925716
67.230 22.612301
67.235 22.882515
67.240 22.634655
67.245 22.881302
67.250 22.703859
67.255 22.35701
67.260 22.511509
67.265 22.817244
67.270 22.484554
67.275 22.7722
67.280 22.809828
67.285 23.104179
67.290 22.574596
67.295 22.659651
67.300 22.552294
67.305 22.678801
67.310 23.547819
67.315 23.58993
67.320 23.443457
67.325 24.236492
67.330 24.452293
67.335 24.141693
67.340 24.085529
67.345 23.317696
67.350 23.717939
67.355 23.365141
67.360 23.063568
67.365 22.691452
67.370 22.683382
67.375 22.774885
67.380 22.731798
67.385 22.393963
67.390 22.346096
67.395 22.150629
67.400 21.76379
67.405 21.288441
67.410 21.128643
67.415 20.907934
67.420 20.854788
67.425 20.849493
67.430 21.529558
67.435 21.970642
67.440 22.659981
67.445 22.341501
67.450 22.713444
67.455 22.76614
67.460 23.138336
67.465 22.881678
67.470 22.263504
67.475 22.12237
67.480 22.796782
67.485 23.55229
67.490 23.970175
67.495 23.348289
67.500 23.824183
67.505 24.263779
67.510 24.246792
67.515 23.223793
67.520 21.565252
67.525 21.537142
67.530 22.12677
67.535 21.928061
67.540 22.165638
67.545 21.604368
67.550 21.894379
67.555 22.195248
67.560 21.568331
67.565 21.202654
67.570 20.9079
67.575 20.674898
67.580 21.14296
67.585 21.281174
67.590 21.583317
67.595 22.040096
67.600 21.923878
67.605 21.751402
67.610 22.455063
67.615 22.909088
67.620 23.064854
67.625 22.989738
67.630 22.894688
67.635 22.713259
67.640 22.619085
67.645 22.029217
67.650 21.292965
67.655 21.861145
67.660 21.786068
67.665 21.467945
67.670 21.420706
67.675 21.705111
67.680 21.90786
67.685 21.994726
67.690 21.009541
67.695 21.25663
67.700 21.074127
67.705 20.908428
67.710 21.252283
67.715 21.514759
67.720 22.052462
67.725 22.383694
67.730 22.431133
67.735 22.741314
67.740 23.149576
67.745 22.391985
67.750 22.623728
67.755 22.272665
67.760 21.630527
67.765 21.709402
67.770 21.583185
67.775 21.500761
67.780 21.721155
67.785 20.723576
67.790 20.271473
67.795 20.445921
67.800 20.43803
67.805 21.009375
67.810 20.616856
67.815 21.008905
67.820 21.483402
67.825 21.313959
67.830 21.13324
67.835 21.584688
67.840 21.395191
67.845 21.427317
67.850 20.878309
67.855 21.124828
67.860 22.105114
67.865 22.513327
67.870 22.131805
67.875 21.695068
67.880 21.568743
67.885 21.524015
67.890 21.619225
67.895 21.231543
67.900 21.47175
67.905 22.030521
67.910 22.086546
67.915 22.77578
67.920 22.982214
67.925 22.581732
67.930 22.465755
67.935 22.056322
67.940 21.901163
67.945 21.895884
67.950 21.389351
67.955 21.673916
67.960 21.967163
67.965 21.642181
67.970 21.670149
67.975 21.721962
67.980 21.77704
67.985 22.105362
67.990 21.379757
67.995 20.979082
68.000 21.325729
68.005 21.557783
68.010 21.609695
68.015 21.573483
68.020 21.130844
68.025 20.989555
68.030 21.256914
68.035 20.899225
68.040 20.225309
68.045 20.41275
68.050 21.370182
68.055 21.78285
68.060 21.791431
68.065 21.317087
68.070 21.047192
68.075 21.165766
68.080 20.608091
68.085 19.968163
68.090 19.590826
68.095 19.841633
68.100 20.296417
68.105 20.747553
68.110 21.018488
68.115 20.96533
68.120 21.011917
68.125 21.62755
68.130 21.5749
68.135 21.614651
68.140 21.688732
68.145 21.978367
68.150 23.220621
68.155 23.82765
68.160 23.867767
68.165 24.032143
68.170 24.062099
68.175 24.699171
68.180 24.318707
68.185 23.554567
68.190 23.369059
68.195 23.724916
68.200 23.52528
68.205 22.896919
68.210 22.364178
68.215 22.543795
68.220 22.469769
68.225 22.154539
68.230 21.964951
68.235 21.919968
68.240 22.454521
68.245 22.150471
68.250 22.035883
68.255 22.32733
68.260 22.100868
68.265 21.862549
68.270 22.739971
68.275 22.983196
68.280 23.071781
68.285 22.45792
68.290 22.630051
68.295 22.779869
68.300 22.948265
68.305 22.560986
68.310 22.302845
68.315 22.129622
68.320 22.132704
68.325 21.347008
68.330 21.433685
68.335 21.106302
68.340 21.562838
68.345 21.671522
68.350 22.234327
68.355 22.65962
68.360 23.119095
68.365 23.001146
68.370 22.965275
68.375 22.287455
68.380 22.544004
68.385 21.914825
68.390 21.388826
68.395 21.853481
68.400 22.241064
68.405 22.384586
68.410 22.574486
68.415 22.805473
68.420 22.467836
68.425 22.360609
68.430 21.84034
68.435 21.912613
68.440 21.666065
68.445 21.858524
68.450 21.636843
68.455 22.425144
68.460 23.095541
68.465 23.190517
68.470 23.079844
68.475 22.946281
68.480 22.678665
68.485 22.797142
68.490 23.394697
68.495 23.315233
68.500 22.734121
68.505 22.334324
68.510 22.32073
68.515 21.986547
68.520 21.818001
68.525 21.603512
68.530 21.644993
68.535 22.579271
68.540 22.687124
68.545 22.740993
68.550 23.047419
68.555 22.598927
68.560 22.047642
68.565 22.536152
68.570 22.640501
68.575 23.062422
68.580 22.864874
68.585 22.563932
68.590 22.470423
68.595 22.097281
68.600 21.723932
68.605 21.574545
68.610 21.716536
68.615 21.645918
68.620 21.48012
68.625 21.430599
68.630 21.246401
68.635 20.839455
68.640 20.575943
68.645 20.311235
68.650 20.671055
68.655 20.674938
68.660 21.214174
68.665 21.560276
68.670 21.563663
68.675 21.686514
68.680 22.011408
68.685 21.872026
68.690 22.203754
68.695 22.193436
68.700 22.243832
68.705 22.410061
68.710 22.411781
68.715 22.361458
68.720 22.439922
68.725 22.070908
68.730 21.850557
68.735 21.918148
68.740 21.696396
68.745 21.185463
68.750 21.168871
68.755 21.686155
68.760 22.288837
68.765 22.14253
68.770 21.912334
68.775 22.166689
68.780 22.020258
68.785 21.642859
68.790 21.634407
68.795 21.859163
68.800 22.844553
68.805 23.61771
68.810 24.045929
68.815 24.806116
68.820 25.079727
68.825 24.477573
68.830 23.424002
68.835 23.466208
68.840 22.936453
68.845 22.349213
68.850 22.563465
68.855 23.194708
68.860 24.100426
68.865 24.914093
68.870 24.249527
68.875 24.541401
68.880 24.880846
68.885 24.581648
68.890 24.25939
68.895 24.153231
68.900 24.483574
68.905 24.719063
68.910 24.245798
68.915 24.056173
68.920 23.546957
68.925 23.182419
68.930 22.915768
68.935 22.516401
68.940 21.776432
68.945 21.68284
68.950 22.080912
68.955 22.424686
68.960 22.348623
68.965 21.964287
68.970 21.690159
68.975 22.561573
68.980 22.998304
68.985 22.834936
68.990 23.138109
68.995 23.428616
69.000 23.735798
69.005 24.661366
69.010 24.760441
69.015 25.256659
69.020 25.082653
69.025 24.953175
69.030 25.1919
69.035 25.230392
69.040 25.750443
69.045 26.144796
69.050 26.186504
69.055 26.27519
69.060 26.449713
69.065 26.638193
69.070 26.277443
69.075 26.473759
69.080 26.06119
69.085 26.314665
69.090 26.616161
69.095 26.318846
69.100 26.176411
69.105 26.292402
69.110 25.573793
69.115 25.499779
69.120 25.169298
69.125 25.300219
69.130 25.746805
69.135 25.60195
69.140 26.30578
69.145 26.627222
69.150 26.671303
69.155 26.982788
69.160 26.815601
69.165 26.984629
69.170 27.284273
69.175 26.455328
69.180 26.544241
69.185 26.281944
69.190 26.320057
69.195 26.334455
69.200 26.007751
69.205 25.792383
69.210 25.231527
69.215 25.166304
69.220 26.193718
69.225 26.268354
69.230 26.28676
69.235 26.614336
69.240 26.854677
69.245 27.633545
69.250 27.694948
69.255 27.406673
69.260 26.974489
69.265 26.805878
69.270 27.792246
69.275 28.988085
69.280 29.348196
69.285 29.836226
69.290 29.851627
69.295 30.068508
69.300 30.750439
69.305 30.122274
69.310 29.345869
69.315 30.250809
69.320 30.909328
69.325 31.216173
69.330 31.046194
69.335 30.977703
69.340 31.190533
69.345 31.006729
69.350 29.970861
69.355 28.404652
69.360 28.393187
69.365 28.468821
69.370 28.351885
69.375 28.418503
69.380 28.98218
69.385 28.861071
69.390 29.578266
69.395 29.48547
69.400 29.45887
69.405 29.704012
69.410 29.05669
69.415 27.954638
69.420 28.164333
69.425 28.006254
69.430 28.977003
69.435 28.70475
69.440 28.345997
69.445 29.313654
69.450 29.900709
69.455 29.975149
69.460 30.192945
69.465 29.967415
69.470 30.368933
69.475 30.207249
69.480 29.934843
69.485 29.853117
69.490 29.952908
69.495 30.057325
69.500 29.725786
69.505 29.784233
69.510 30.330332
69.515 30.951317
69.520 30.687132
69.525 29.944885
69.530 29.292477
69.535 29.098043
69.540 28.657215
69.545 28.296673
69.550 28.415888
69.555 28.525877
69.560 28.430147
69.565 29.096367
69.570 29.659525
69.575 29.471945
69.580 29.152349
69.585 29.041164
69.590 29.256533
69.595 29.748335
69.600 29.361492
69.605 29.537109
69.610 29.806528
69.615 30.186012
69.620 30.645979
69.625 30.498232
69.630 29.773417
69.635 29.061514
69.640 28.934799
69.645 28.868368
69.650 28.244396
69.655 27.048422
69.660 27.728476
69.665 28.586639
69.670 29.215252
69.675 28.978975
69.680 28.248613
69.685 28.373405
69.690 29.0119
69.695 28.586143
69.700 28.406759
69.705 28.395483
69.710 28.147099
69.715 28.21121
69.720 28.260386
69.725 28.279902
69.730 28.423512
69.735 28.515772
69.740 28.391485
69.745 28.399107
69.750 28.47072
69.755 28.101892
69.760 28.045465
69.765 28.061195
69.770 28.40494
69.775 28.410393
69.780 28.387089
69.785 28.304609
69.790 27.855844
69.795 27.194035
69.800 26.128115
69.805 25.229626
69.810 25.587801
69.815 26.135986
69.820 26.065796
69.825 26.648836
69.830 27.250473
69.835 27.781721
69.840 27.936897
69.845 27.190241
69.850 26.904585
69.855 26.945127
69.860 25.907047
69.865 25.686621
69.870 25.393948
69.875 25.021185
69.880 24.99766
69.885 24.75178
69.890 24.336853
69.895 23.907101
69.900 23.512213
69.905 22.99222
69.910 22.962673
69.915 22.598417
69.920 22.509506
69.925 23.361191
69.930 23.867296
69.935 23.929064
69.940 24.415169
69.945 24.30703
69.950 24.134497
69.955 23.665173
69.960 23.150331
69.965 23.134344
69.970 22.699617
69.975 22.289852
69.980 22.976566
69.985 23.208069
69.990 23.758724
69.995 23.400915
70.000 23.045422
70.005 23.66577
70.010 23.637371
70.015 23.855349
70.020 23.953671
70.025 23.371717
70.030 23.407566
70.035 23.28104
70.040 22.80315
70.045 22.450243
70.050 22.321526
70.055 22.375034
70.060 22.061047
70.065 21.52615
70.070 21.18676
70.075 21.336
70.080 21.84594
70.085 21.5173
70.090 21.70509
70.095 21.767887
70.100 22.075373
70.105 21.472319
70.110 21.294569
70.115 21.243923
70.120 21.076357
70.125 20.878513
70.130 21.105295
70.135 21.937021
70.140 22.44099
70.145 22.654236
70.150 22.280903
70.155 21.915304
70.160 21.844721
70.165 21.706457
70.170 21.428009
70.175 21.205038
70.180 20.646864
70.185 20.837149
70.190 21.016249
70.195 21.53396
70.200 22.191948
70.205 22.54492
70.210 22.504915
70.215 22.216646
70.220 22.315132
70.225 22.725496
70.230 22.395758
70.235 21.339632
70.240 21.365065
70.245 21.323961
70.250 21.76709
70.255 21.83436
70.260 20.675501
70.265 20.508165
70.270 20.825941
70.275 20.118851
70.280 20.215956
70.285 20.011368
70.290 19.796272
70.295 20.598068
70.300 21.18783
70.305 21.252281
70.310 21.665865
70.315 21.837873
70.320 21.613586
70.325 21.635576
70.330 20.97785
70.335 20.362249
70.340 20.460825
70.345 20.423986
70.350 19.97756
70.355 19.741156
70.360 19.7995
70.365 20.245388
70.370 20.853865
70.375 20.426228
70.380 20.292797
70.385 20.628256
70.390 21.344465
70.395 21.761095
70.400 21.388138
70.405 21.17774
70.410 21.627523
70.415 22.498655
70.420 22.353584
70.425 22.017906
70.430 22.155016
70.435 21.899298
70.440 21.991537
70.445 21.848764
70.450 21.381508
70.455 21.34617
70.460 20.967815
70.465 20.71673
70.470 20.552097
70.475 20.50634
70.480 20.029018
70.485 19.804003
70.490 20.322376
70.495 20.715942
70.500 20.868877
70.505 20.837421
70.510 20.484613
70.515 20.981903
70.520 20.822746
70.525 20.199036
70.530 20.865326
70.535 21.378534
70.540 21.053131
70.545 21.152592
70.550 20.947783
70.555 21.299471
70.560 21.49789
70.565 21.339544
70.570 20.988108
70.575 21.153555
70.580 20.889301
70.585 20.241301
70.590 19.884943
70.595 19.356453
70.600 18.788881
70.605 18.639547
70.610 18.90941
70.615 18.943995
70.620 19.414297
70.625 19.654089
70.630 19.80493
70.635 20.056965
70.640 20.138016
70.645 20.422434
70.650 20.331367
70.655 19.740591
70.660 19.942057
70.665 20.046196
70.670 19.804796
70.675 19.70562
70.680 19.38448
70.685 19.938063
70.690 19.737019
70.695 19.864594
70.700 19.278259
70.705 19.452686
70.710 19.361935
70.715 18.909153
70.720 18.558212
70.725 18.45462
70.730 18.181664
70.735 18.857166
70.740 19.444023
70.745 19.232925
70.750 19.753992
70.755 20.21232
70.760 20.253611
70.765 20.122789
70.770 19.682146
70.775 19.503363
70.780 19.880787
70.785 19.966669
70.790 20.13467
70.795 19.997585
70.800 19.960609
70.805 20.345743
70.810 20.543646
70.815 20.127144
70.820 20.102238
70.825 20.279234
70.830 20.695114
70.835 20.588617
70.840 19.935928
70.845 19.682404
70.850 19.983667
70.855 19.181988
70.860 19.195833
70.865 19.457029
70.870 20.046114
70.875 20.469578
70.880 20.724705
70.885 20.749083
70.890 20.913925
70.895 20.882042
70.900 20.737789
70.905 20.379635
70.910 20.066374
70.915 20.331417
70.920 20.408463
70.925 20.098097
70.930 19.362473
70.935 18.741993
70.940 18.469614
70.945 17.758734
70.950 17.328201
70.955 17.270945
70.960 17.642118
70.965 17.767117
70.970 18.141668
70.975 18.335396
70.980 18.657063
70.985 19.266788
70.990 19.397366
70.995 19.200825
71.000 19.498573
71.005 19.589497
71.010 19.919491
71.015 19.513498
71.020 19.581514
71.025 19.97047
71.030 20.275278
71.035 20.532488
71.040 20.190971
71.045 19.808128
71.050 20.235579
71.055 20.096434
71.060 19.829161
71.065 19.746632
71.070 19.158375
71.075 19.286995
71.080 19.461946
71.085 19.382294
71.090 18.944992
71.095 19.323544
71.100 19.133181
71.105 19.666662
71.110 19.563236
71.115 19.467901
71.120 19.521486
71.125 19.560055
71.130 19.821266
71.135 19.682484
71.140 19.759933
71.145 19.804537
71.150 19.714804
71.155 19.636574
71.160 20.300274
71.165 20.382479
71.170 20.212969
71.175 19.963409
71.180 19.433769
71.185 19.125366
71.190 18.40855
71.195 18.024263
71.200 17.626793
71.205 17.640852
71.210 17.774261
71.215 18.636686
71.220 18.907593
71.225 19.290781
71.230 18.980152
71.235 18.74984
71.240 19.6863
71.245 20.254501
71.250 20.538239
71.255 20.380116
71.260 20.229433
71.265 20.543871
71.270 21.244583
71.275 20.44956
71.280 19.835157
71.285 19.561695
71.290 19.510223
71.295 19.459513
71.300 19.3834
71.305 19.003874
71.310 19.160751
71.315 18.474964
71.320 18.560472
71.325 18.725443
71.330 18.741755
71.335 18.857977
71.340 19.453726
71.345 20.023071
71.350 20.651627
71.355 20.605581
71.360 20.942984
71.365 20.68392
71.370 20.150415
71.375 19.887592
71.380 19.96212
71.385 20.013802
71.390 19.669115
71.395 20.068836
71.400 20.870258
71.405 20.556284
71.410 20.304379
71.415 20.155231
71.420 19.813911
71.425 20.340693
71.430 19.883978
71.435 19.465849
71.440 19.401932
71.445 18.711275
71.450 18.755976
71.455 19.217865
71.460 18.710964
71.465 18.531567
71.470 18.062496
71.475 18.380415
71.480 18.651363
71.485 18.212816
71.490 18.106745
71.495 18.389433
71.500 18.130707
71.505 18.327999
71.510 18.668806
71.515 18.819475
71.520 19.188599
71.525 19.027287
71.530 18.676332
71.535 18.490841
71.540 18.437729
71.545 18.123589
71.550 18.632177
71.555 17.87677
71.560 18.451994
71.565 19.185534
71.570 19.282934
71.575 19.526041
71.580 18.913347
71.585 18.652487
71.590 18.623821
71.595 17.99662
71.600 17.886499
71.605 18.413006
71.610 18.923906
71.615 19.760143
71.620 19.841713
71.625 20.060053
71.630 19.953733
71.635 20.054239
71.640 19.644487
71.645 18.800343
71.650 18.503008
71.655 18.580961
71.660 18.428341
71.665 18.608711
71.670 18.421747
71.675 19.087828
71.680 19.188301
71.685 19.215683
71.690 19.139067
71.695 18.966597
71.700 18.54372
71.705 18.250164
71.710 17.600161
71.715 17.140833
71.720 17.141743
71.725 16.914274
71.730 17.090414
71.735 17.18128
71.740 17.710136
71.745 17.994478
71.750 18.605875
71.755 18.66036
71.760 19.191866
71.765 19.12825
71.770 20.151224
71.775 20.572052
71.780 20.074919
71.785 20.238409
71.790 20.189447
71.795 19.98259
71.800 19.908655
71.805 18.863483
71.810 19.598007
71.815 20.515823
71.820 20.281847
71.825 20.891464
71.830 21.321482
71.835 21.255972
71.840 20.85708
71.845 20.438328
71.850 20.24556
71.855 20.020147
71.860 19.398836
71.865 19.000601
71.870 19.184523
71.875 19.54298
71.880 18.873552
71.885 18.740223
71.890 18.484173
71.895 18.399853
71.900 18.901501
71.905 18.753923
71.910 19.092676
71.915 18.797832
71.920 18.229847
71.925 18.216496
71.930 18.115015
71.935 17.865612
71.940 17.806341
71.945 17.299295
71.950 18.04104
71.955 18.680082
71.960 19.434397
71.965 19.587782
71.970 19.314178
71.975 18.657972
71.980 18.20709
71.985 18.25844
71.990 17.917881
71.995 17.4984
72.000 17.790012
72.005 18.109642
72.010 18.71806
72.015 18.799774
72.020 18.69899
72.025 19.074799
72.030 19.471485
72.035 19.484224
72.040 19.716434
72.045 19.697235
72.050 19.705002
72.055 19.341011
72.060 18.811821
72.065 18.649376
72.070 18.607866
72.075 18.889038
72.080 19.110903
72.085 19.001385
72.090 19.286383
72.095 19.109085
72.100 19.185369
72.105 19.11508
72.110 18.812813
72.115 19.124037
72.120 19.240023
72.125 18.866751
72.130 18.593237
72.135 18.412384
72.140 18.196857
72.145 17.863319
72.150 17.78546
72.155 18.021767
72.160 18.428789
72.165 18.51969
72.170 18.716928
72.175 18.781321
72.180 18.942345
72.185 18.564365
72.190 18.427813
72.195 18.565403
72.200 18.770269
72.205 19.221083
72.210 19.276539
72.215 19.781929
72.220 20.511688
72.225 20.626783
72.230 21.012478
72.235 20.664457
72.240 19.973932
72.245 19.919575
72.250 19.662542
72.255 19.263426
72.260 19.140163
72.265 19.233841
72.270 19.394562
72.275 20.100868
72.280 19.372246
72.285 19.246489
72.290 18.689737
72.295 18.055597
72.300 17.763823
72.305 17.719788
72.310 17.195225
72.315 17.656086
72.320 17.904114
72.325 18.224018
72.330 18.401518
72.335 18.394333
72.340 18.789619
72.345 18.879959
72.350 19.582226
72.355 19.600655
72.360 20.041954
72.365 19.91548
72.370 20.056398
72.375 19.807148
72.380 19.253042
72.385 18.267643
72.390 17.848253
72.395 17.628271
72.400 17.5042
72.405 17.27677
72.410 17.371849
72.415 17.731201
72.420 17.768816
72.425 18.14562
72.430 18.361858
72.435 18.513124
72.440 18.787899
72.445 19.013706
72.450 18.894054
72.455 18.671635
72.460 18.032854
72.465 17.729406
72.470 17.862534
72.475 17.218697
72.480 16.620916
72.485 16.967134
72.490 17.204458
72.495 17.744099
72.500 17.316914
72.505 17.225943
72.510 17.478243
72.515 17.693165
72.520 18.18437
72.525 18.247986
72.530 18.05983
72.535 18.444689
72.540 18.20784
72.545 18.202465
72.550 17.898664
72.555 17.121727
72.560 16.846218
72.565 16.601629
72.570 16.050867
72.575 15.876266
72.580 16.18292
72.585 16.487898
72.590 16.678576
72.595 16.703268
72.600 17.182341
72.605 18.01293
72.610 18.584278
72.615 18.315481
72.620 17.604759
72.625 17.623919
72.630 17.73481
72.635 18.01079
72.640 17.880405
72.645 17.828871
72.650 17.986784
72.655 18.47455
72.660 18.765005
72.665 18.803761
72.670 18.718992
72.675 18.548237
72.680 18.258591
72.685 18.454727
72.690 18.989571
72.695 18.802732
72.700 18.634846
72.705 18.708982
72.710 19.161375
72.715 18.917269
72.720 18.987888
72.725 18.821039
72.730 19.151314
72.735 19.08905
72.740 18.57646
72.745 18.289146
72.750 19.008327
72.755 18.752337
72.760 19.389612
72.765 18.766102
72.770 18.335522
72.775 18.366993
72.780 18.349846
72.785 18.013407
72.790 18.112986
72.795 17.702864
72.800 18.546715
72.805 18.637224
72.810 18.466555
72.815 18.228546
72.820 17.791525
72.825 17.874987
72.830 18.051682
72.835 17.710718
72.840 17.450689
72.845 17.501291
72.850 17.596062
72.855 17.685328
72.860 17.111736
72.865 16.411345
72.870 16.302422
72.875 16.374897
72.880 16.197363
72.885 16.037371
72.890 15.422787
72.895 15.012787
72.900 14.980858
72.905 15.61375
72.910 16.091473
72.915 16.879442
72.920 17.336868
72.925 18.08569
72.930 18.600458
72.935 18.297697
72.940 18.153301
72.945 17.393543
72.950 16.909485
72.955 16.354578
72.960 16.293736
72.965 16.689396
72.970 17.024927
72.975 17.43445
72.980 17.535978
72.985 17.583019
72.990 17.361361
72.995 17.231869
73.000 17.203371
