!@!!GADDS PLOTSO FILE: Chi integration type
!@!!Title/SampleName: map-be
!@!!Comment: ?
!@!!User: Bruker Instrument Administrator
!@!!Site: University of Illinois Chicago
!@!!Frame: map-be_01_000.gfrm
!@!!Wavelengths    1.54184   1.54056   1.54439
!@!!Frame angles: 2Theta: 63.000 Omega: 50.000 Phi: 0.000 Chi: 90.000
!@!!Integration range: 2Theta: 53.000 to 73.000  Gamma: -105.000 to -75.000
!@!!Integration method: bin normalized
!@!N
!@!SS
!@!M
!@!L 0.0 0.0 0.0 0.0
!@!XDegrees
!@!YCounts
53.000 9.239661
53.005 9.169632
53.010 8.465597
53.015 8.074542
53.020 8.051607
53.025 8.082833
53.030 8.190907
53.035 8.08392
53.040 7.948356
53.045 8.204305
53.050 8.416465
53.055 8.555873
53.060 8.310712
53.065 7.928471
53.070 8.066796
53.075 8.321991
53.080 8.494641
53.085 8.25304
53.090 8.81855
53.095 8.992321
53.100 8.935019
53.105 9.184858
53.110 8.870648
53.115 8.320016
53.120 8.319054
53.125 7.567701
53.130 7.701217
53.135 7.320924
53.140 7.120739
53.145 7.376183
53.150 7.692409
53.155 7.699437
53.160 7.902727
53.165 8.17767
53.170 8.361511
53.175 8.436286
53.180 8.92667
53.185 8.93713
53.190 9.07254
53.195 8.693504
53.200 8.614386
53.205 9.151489
53.210 8.9822
53.215 8.768678
53.220 8.844323
53.225 8.980066
53.230 9.174516
53.235 8.875878
53.240 8.494916
53.245 8.164555
53.250 8.031904
53.255 8.055399
53.260 7.893815
53.265 7.840687
53.270 8.010836
53.275 8.594542
53.280 8.776279
53.285 8.500716
53.290 8.685425
53.295 8.714231
53.300 8.997005
53.305 8.776664
53.310 8.895844
53.315 9.195514
53.320 9.032033
53.325 9.364387
53.330 9.824083
53.335 10.013829
53.340 10.30193
53.345 10.199872
53.350 10.497912
53.355 10.324561
53.360 9.72928
53.365 9.523986
53.370 9.186142
53.375 9.21646
53.380 9.127305
53.385 9.207252
53.390 9.804826
53.395 9.492566
53.400 9.535308
53.405 9.405743
53.410 9.195659
53.415 9.455235
53.420 9.124105
53.425 8.611016
53.430 8.451174
53.435 7.879314
53.440 7.760128
53.445 7.540411
53.450 7.198807
53.455 7.253571
53.460 7.405174
53.465 7.462046
53.470 7.810247
53.475 7.891851
53.480 8.16488
53.485 8.526684
53.490 8.660343
53.495 9.169822
53.500 9.939913
53.505 10.035534
53.510 10.039292
53.515 9.80199
53.520 9.849356
53.525 9.999601
53.530 9.806703
53.535 9.649462
53.540 9.598405
53.545 9.17585
53.550 9.350139
53.555 9.108122
53.560 9.154741
53.565 9.293993
53.570 8.905046
53.575 8.865148
53.580 9.113433
53.585 8.872228
53.590 8.604093
53.595 8.250377
53.600 7.958466
53.605 8.185869
53.610 8.41441
53.615 8.471339
53.620 9.00878
53.625 9.712646
53.630 10.39858
53.635 10.942825
53.640 10.608898
53.645 10.443849
53.650 10.477968
53.655 10.174266
53.660 9.851923
53.665 9.322399
53.670 9.077088
53.675 9.055035
53.680 9.014035
53.685 8.863832
53.690 8.944226
53.695 8.974344
53.700 8.579576
53.705 8.640357
53.710 8.759822
53.715 8.556992
53.720 8.605103
53.725 8.325053
53.730 8.491307
53.735 8.488675
53.740 8.356905
53.745 8.472648
53.750 8.960005
53.755 8.832923
53.760 9.177121
53.765 9.101522
53.770 9.30923
53.775 9.921704
53.780 9.981176
53.785 9.82684
53.790 9.659214
53.795 9.242487
53.800 9.288858
53.805 9.000644
53.810 8.354023
53.815 8.466408
53.820 8.220013
53.825 8.520007
53.830 8.729352
53.835 8.827866
53.840 8.82323
53.845 8.842473
53.850 8.60586
53.855 9.034099
53.860 9.078141
53.865 8.796794
53.870 9.07498
53.875 9.565965
53.880 9.650013
53.885 9.511055
53.890 9.154751
53.895 9.086844
53.900 8.83542
53.905 8.923078
53.910 8.695994
53.915 8.792619
53.920 8.959422
53.925 9.025512
53.930 9.192145
53.935 9.070472
53.940 8.740367
53.945 8.700963
53.950 8.405367
53.955 8.273315
53.960 8.017293
53.965 7.968949
53.970 8.09024
53.975 7.812112
53.980 8.109753
53.985 8.415838
53.990 8.623929
53.995 9.683367
54.000 10.261182
54.005 10.813926
54.010 11.437965
54.015 11.680759
54.020 11.81217
54.025 11.623474
54.030 10.768379
54.035 10.580855
54.040 10.267892
54.045 9.989347
54.050 9.675311
54.055 9.104545
54.060 8.711111
54.065 8.774889
54.070 8.513812
54.075 8.494403
54.080 8.51485
54.085 8.917866
54.090 9.243896
54.095 9.559899
54.100 9.725705
54.105 9.722391
54.110 9.914189
54.115 9.723406
54.120 9.732943
54.125 9.91416
54.130 9.819283
54.135 9.608033
54.140 9.371106
54.145 9.09359
54.150 9.064516
54.155 9.190399
54.160 9.299322
54.165 8.990851
54.170 9.009146
54.175 9.209109
54.180 9.161564
54.185 8.620255
54.190 8.383358
54.195 7.955197
54.200 8.53947
54.205 8.888472
54.210 8.496724
54.215 8.668898
54.220 9.265577
54.225 9.286952
54.230 9.781301
54.235 9.847208
54.240 10.254452
54.245 11.113555
54.250 11.06913
54.255 11.207532
54.260 11.163751
54.265 10.603192
54.270 10.855187
54.275 10.011532
54.280 9.324731
54.285 9.50341
54.290 9.477734
54.295 9.664787
54.300 9.738105
54.305 9.585697
54.310 10.373163
54.315 10.830123
54.320 10.498414
54.325 10.426898
54.330 10.41604
54.335 10.458948
54.340 10.731987
54.345 10.71983
54.350 10.511057
54.355 10.42934
54.360 10.500173
54.365 10.67015
54.370 10.420296
54.375 10.218676
54.380 9.845272
54.385 9.881983
54.390 10.032525
54.395 10.074354
54.400 10.098964
54.405 9.854862
54.410 10.088736
54.415 10.432421
54.420 10.68657
54.425 11.311686
54.430 10.797009
54.435 10.42887
54.440 10.805466
54.445 10.421568
54.450 10.411517
54.455 9.999086
54.460 9.662975
54.465 9.460402
54.470 9.450475
54.475 9.035542
54.480 9.134394
54.485 8.457408
54.490 8.332716
54.495 8.479099
54.500 8.790969
54.505 8.292179
54.510 8.289458
54.515 7.948526
54.520 8.176298
54.525 8.288206
54.530 8.669622
54.535 9.046364
54.540 9.994858
54.545 10.582681
54.550 10.914716
54.555 11.408815
54.560 10.884279
54.565 10.247772
54.570 9.986423
54.575 9.696842
54.580 9.907583
54.585 10.135106
54.590 9.635458
54.595 9.895961
54.600 10.211445
54.605 10.343238
54.610 10.000442
54.615 9.646395
54.620 9.491171
54.625 10.02816
54.630 10.107043
54.635 10.057183
54.640 9.851428
54.645 9.878983
54.650 10.23105
54.655 9.932625
54.660 9.394406
54.665 9.222972
54.670 9.258091
54.675 8.884576
54.680 8.659347
54.685 8.558559
54.690 8.673511
54.695 8.944158
54.700 9.034276
54.705 9.197288
54.710 9.530176
54.715 9.568647
54.720 10.005981
54.725 10.571566
54.730 10.935058
54.735 11.025518
54.740 10.947111
54.745 11.061082
54.750 10.911351
54.755 10.657462
54.760 10.04213
54.765 9.933195
54.770 10.127839
54.775 10.018533
54.780 10.156887
54.785 10.30037
54.790 10.801945
54.795 10.772817
54.800 10.517681
54.805 10.13
54.810 10.113399
54.815 9.921597
54.820 9.468556
54.825 9.318715
54.830 9.394227
54.835 9.296958
54.840 9.539804
54.845 9.861246
54.850 9.995588
54.855 10.020863
54.860 9.888088
54.865 9.933368
54.870 10.434855
54.875 10.375921
54.880 10.479366
54.885 10.268921
54.890 10.458188
54.895 10.30983
54.900 9.889715
54.905 9.636464
54.910 9.973424
54.915 10.121381
54.920 10.504493
54.925 10.292405
54.930 10.695803
54.935 11.360845
54.940 11.374864
54.945 11.360331
54.950 11.266686
54.955 11.103205
54.960 11.128801
54.965 10.8323
54.970 10.363607
54.975 10.039516
54.980 9.95403
54.985 9.802695
54.990 9.951145
54.995 10.48866
55.000 10.560584
55.005 10.819266
55.010 10.929255
55.015 10.594093
55.020 11.05866
55.025 10.978746
55.030 10.679311
55.035 10.701308
55.040 10.550512
55.045 10.641266
55.050 10.836083
55.055 10.694752
55.060 10.524593
55.065 10.575645
55.070 10.383196
55.075 10.286297
55.080 10.20983
55.085 9.579899
55.090 9.391493
55.095 9.190681
55.100 9.122899
55.105 9.340377
55.110 9.545811
55.115 9.621165
55.120 10.006864
55.125 10.121841
55.130 10.884431
55.135 11.23843
55.140 11.007663
55.145 10.956673
55.150 11.20472
55.155 12.064366
55.160 12.175917
55.165 11.842566
55.170 11.903991
55.175 12.326411
55.180 12.598124
55.185 12.435769
55.190 11.961872
55.195 12.136561
55.200 11.999938
55.205 11.745235
55.210 12.086449
55.215 12.020296
55.220 12.003656
55.225 11.277339
55.230 10.564766
55.235 10.689726
55.240 10.320895
55.245 9.945986
55.250 9.779799
55.255 9.627108
55.260 9.898861
55.265 10.293406
55.270 10.579768
55.275 10.955984
55.280 11.241458
55.285 11.314019
55.290 11.266518
55.295 10.903939
55.300 10.65029
55.305 10.16556
55.310 9.665302
55.315 9.432377
55.320 9.569218
55.325 9.582414
55.330 9.843608
55.335 10.430382
55.340 11.175796
55.345 11.882217
55.350 11.886318
55.355 11.909518
55.360 12.299788
55.365 12.047574
55.370 11.809061
55.375 11.383027
55.380 11.123544
55.385 11.259392
55.390 11.030276
55.395 10.650981
55.400 10.599075
55.405 10.306647
55.410 10.730924
55.415 10.703133
55.420 10.111535
55.425 9.904192
55.430 9.82447
55.435 10.273091
55.440 9.784037
55.445 9.15072
55.450 8.889336
55.455 9.724104
55.460 10.170295
55.465 10.120136
55.470 10.181109
55.475 10.510641
55.480 11.246054
55.485 11.475423
55.490 11.036668
55.495 11.091177
55.500 11.301978
55.505 11.501846
55.510 11.470443
55.515 10.89676
55.520 10.728371
55.525 10.55969
55.530 10.446493
55.535 10.913211
55.540 10.875875
55.545 11.528326
55.550 11.990263
55.555 12.315645
55.560 13.165664
55.565 13.045763
55.570 12.680628
55.575 12.393605
55.580 11.766576
55.585 11.849247
55.590 11.776686
55.595 11.375403
55.600 11.344644
55.605 11.806736
55.610 12.104316
55.615 11.835128
55.620 11.574666
55.625 11.738533
55.630 11.921868
55.635 11.790107
55.640 11.223524
55.645 11.415945
55.650 11.87228
55.655 11.701185
55.660 11.533247
55.665 11.930732
55.670 11.918421
55.675 11.496113
55.680 11.169661
55.685 11.055484
55.690 11.036703
55.695 10.553399
55.700 9.951507
55.705 10.041648
55.710 10.606617
55.715 10.828146
55.720 10.833608
55.725 10.591188
55.730 10.769694
55.735 10.649961
55.740 10.651951
55.745 10.247915
55.750 9.93103
55.755 9.829697
55.760 10.194468
55.765 10.517526
55.770 10.907248
55.775 10.655723
55.780 10.621207
55.785 10.790017
55.790 10.702502
55.795 10.386086
55.800 9.991934
55.805 10.307971
55.810 10.273054
55.815 10.253724
55.820 10.080004
55.825 10.245058
55.830 10.490735
55.835 10.829146
55.840 11.028191
55.845 11.216885
55.850 11.964848
55.855 12.284591
55.860 12.317807
55.865 12.295381
55.870 11.846413
55.875 11.733492
55.880 11.693666
55.885 11.115044
55.890 11.107135
55.895 11.018456
55.900 10.976719
55.905 10.745562
55.910 10.800809
55.915 10.991437
55.920 11.64136
55.925 11.891494
55.930 11.866609
55.935 12.009278
55.940 12.649737
55.945 12.76411
55.950 12.605676
55.955 11.785247
55.960 11.683162
55.965 11.68014
55.970 11.711482
55.975 11.47106
55.980 11.327107
55.985 11.426366
55.990 11.747337
55.995 11.572538
56.000 11.393475
56.005 11.448505
56.010 11.768018
56.015 12.078534
56.020 11.832047
56.025 11.580848
56.030 11.736641
56.035 12.122857
56.040 11.933864
56.045 11.173594
56.050 10.587458
56.055 10.832928
56.060 10.782297
56.065 10.689678
56.070 10.100338
56.075 9.713675
56.080 9.897268
56.085 10.783628
56.090 10.343372
56.095 10.279775
56.100 10.253536
56.105 10.549835
56.110 10.630093
56.115 10.543284
56.120 10.41259
56.125 10.727467
56.130 10.561644
56.135 10.40614
56.140 10.693139
56.145 11.397512
56.150 11.558299
56.155 11.65192
56.160 11.425715
56.165 11.794507
56.170 12.210446
56.175 12.13166
56.180 11.536229
56.185 10.972032
56.190 11.012418
56.195 11.382309
56.200 11.607934
56.205 11.40496
56.210 11.435301
56.215 12.017519
56.220 11.880986
56.225 11.857519
56.230 12.266116
56.235 12.662774
56.240 12.739333
56.245 13.11575
56.250 12.846867
56.255 13.160127
56.260 12.880692
56.265 12.544489
56.270 11.974664
56.275 11.759199
56.280 11.737742
56.285 12.306767
56.290 12.66615
56.295 12.692324
56.300 12.28573
56.305 12.857681
56.310 13.213772
56.315 13.015528
56.320 12.672642
56.325 12.819316
56.330 13.211744
56.335 13.730645
56.340 13.633898
56.345 13.408811
56.350 13.434604
56.355 13.367951
56.360 13.282994
56.365 13.148418
56.370 12.762515
56.375 12.375763
56.380 12.316598
56.385 12.1913
56.390 12.503188
56.395 11.880232
56.400 11.926898
56.405 12.108418
56.410 12.222296
56.415 12.211074
56.420 12.183912
56.425 11.931157
56.430 12.069731
56.435 11.576888
56.440 10.91483
56.445 10.860827
56.450 10.790958
56.455 11.015644
56.460 11.102106
56.465 11.468094
56.470 11.744433
56.475 12.026937
56.480 12.354731
56.485 12.401392
56.490 12.42347
56.495 12.45503
56.500 12.29215
56.505 12.201065
56.510 12.220849
56.515 12.236558
56.520 12.533642
56.525 11.803056
56.530 11.36439
56.535 11.797341
56.540 11.774353
56.545 11.078712
56.550 10.705473
56.555 10.390774
56.560 10.758803
56.565 10.64378
56.570 10.09652
56.575 9.943867
56.580 10.257207
56.585 10.146487
56.590 10.558694
56.595 11.224319
56.600 11.77141
56.605 12.050736
56.610 12.447013
56.615 12.526476
56.620 12.585913
56.625 11.97247
56.630 11.621226
56.635 11.115564
56.640 11.257018
56.645 11.628403
56.650 11.851786
56.655 11.733477
56.660 11.990396
56.665 12.10616
56.670 12.004945
56.675 11.709846
56.680 11.270513
56.685 11.424735
56.690 11.915259
56.695 12.194911
56.700 12.215122
56.705 12.787882
56.710 13.115767
56.715 13.605633
56.720 13.439076
56.725 13.614562
56.730 14.049273
56.735 14.16664
56.740 13.611987
56.745 13.494726
56.750 13.665995
56.755 13.856583
56.760 13.5223
56.765 13.144162
56.770 13.003131
56.775 13.511206
56.780 13.770527
56.785 13.426553
56.790 13.179323
56.795 13.076467
56.800 12.703439
56.805 12.968788
56.810 12.914579
56.815 12.687316
56.820 12.713714
56.825 12.386677
56.830 12.315116
56.835 12.716392
56.840 12.946688
56.845 12.997454
56.850 13.133431
56.855 13.452087
56.860 13.843152
56.865 13.607832
56.870 13.561943
56.875 12.899566
56.880 12.585655
56.885 12.445985
56.890 12.016978
56.895 11.962923
56.900 12.005603
56.905 12.071394
56.910 12.317843
56.915 12.160134
56.920 12.288732
56.925 12.403007
56.930 12.611654
56.935 12.874811
56.940 12.753515
56.945 12.897917
56.950 12.619
56.955 12.194208
56.960 11.972775
56.965 11.651007
56.970 11.694171
56.975 12.111209
56.980 12.010813
56.985 11.996066
56.990 12.444794
56.995 12.626844
57.000 12.959475
57.005 12.745973
57.010 12.218032
57.015 12.815938
57.020 12.690735
57.025 12.160295
57.030 11.876223
57.035 11.453937
57.040 11.135493
57.045 10.858291
57.050 10.677037
57.055 10.832697
57.060 11.63025
57.065 11.997663
57.070 12.787948
57.075 13.930096
57.080 14.390326
57.085 14.369435
57.090 14.826988
57.095 14.252782
57.100 13.759887
57.105 12.760991
57.110 12.31464
57.115 12.743692
57.120 13.060504
57.125 13.046516
57.130 13.667878
57.135 14.123169
57.140 14.313293
57.145 13.800335
57.150 13.542448
57.155 13.480207
57.160 13.215706
57.165 12.743134
57.170 12.647778
57.175 12.788695
57.180 12.901222
57.185 12.835185
57.190 12.82273
57.195 13.272443
57.200 13.81706
57.205 13.949244
57.210 13.728758
57.215 13.374334
57.220 12.842212
57.225 12.824865
57.230 12.37233
57.235 12.149649
57.240 11.889751
57.245 11.820581
57.250 12.298489
57.255 12.240188
57.260 12.026412
57.265 11.815933
57.270 12.23914
57.275 12.369301
57.280 12.91299
57.285 13.211761
57.290 13.424882
57.295 13.818546
57.300 14.331974
57.305 14.35329
57.310 14.618549
57.315 14.369677
57.320 13.714414
57.325 14.122156
57.330 14.307347
57.335 14.442182
57.340 14.452067
57.345 14.691483
57.350 14.303002
57.355 14.690061
57.360 14.395724
57.365 14.280413
57.370 14.099339
57.375 13.458722
57.380 13.37896
57.385 14.187233
57.390 14.393016
57.395 14.472493
57.400 14.078816
57.405 13.674766
57.410 13.622204
57.415 13.316523
57.420 13.034272
57.425 13.081023
57.430 13.121655
57.435 12.925671
57.440 13.190286
57.445 13.209057
57.450 12.949944
57.455 12.776862
57.460 12.267587
57.465 12.175874
57.470 11.927799
57.475 12.473343
57.480 13.065746
57.485 13.141413
57.490 13.379831
57.495 13.743933
57.500 14.228355
57.505 14.430772
57.510 13.761651
57.515 13.761338
57.520 14.860006
57.525 15.018436
57.530 14.719611
57.535 14.491608
57.540 14.545319
57.545 14.69028
57.550 14.504167
57.555 13.528273
57.560 13.735259
57.565 13.800857
57.570 13.840181
57.575 13.937215
57.580 13.961231
57.585 13.771018
57.590 13.594743
57.595 13.329469
57.600 13.402982
57.605 13.351809
57.610 13.314563
57.615 13.606443
57.620 13.954431
57.625 14.202679
57.630 14.033746
57.635 13.988468
57.640 13.698303
57.645 13.605186
57.650 13.708271
57.655 13.803295
57.660 13.479675
57.665 13.058682
57.670 13.112659
57.675 13.534051
57.680 13.445329
57.685 13.429136
57.690 13.50535
57.695 14.120567
57.700 14.511514
57.705 14.242011
57.710 14.007995
57.715 14.123375
57.720 13.952238
57.725 13.691459
57.730 13.037942
57.735 12.850242
57.740 13.164069
57.745 13.419688
57.750 13.360161
57.755 13.643118
57.760 13.701581
57.765 13.972208
57.770 14.679151
57.775 14.896344
57.780 15.341587
57.785 15.46188
57.790 15.085727
57.795 14.970845
57.800 15.257361
57.805 15.175704
57.810 15.14541
57.815 14.856758
57.820 14.562647
57.825 14.637175
57.830 14.887
57.835 14.649201
57.840 14.200366
57.845 14.196597
57.850 13.793611
57.855 13.566098
57.860 13.419237
57.865 13.398919
57.870 13.945903
57.875 14.475645
57.880 14.347838
57.885 14.61264
57.890 15.15345
57.895 15.124363
57.900 14.54563
57.905 14.130194
57.910 13.883471
57.915 13.99025
57.920 14.193013
57.925 14.069173
57.930 14.317916
57.935 15.054444
57.940 15.308442
57.945 15.553695
57.950 15.485683
57.955 15.410932
57.960 15.267943
57.965 15.023752
57.970 14.624288
57.975 14.135519
57.980 13.717001
57.985 13.914885
57.990 13.612067
57.995 13.843778
58.000 14.011757
58.005 14.554888
58.010 14.792546
58.015 15.06185
58.020 15.018843
58.025 15.205787
58.030 15.792927
58.035 16.121918
58.040 16.255535
58.045 16.421154
58.050 16.23769
58.055 16.498369
58.060 16.618425
58.065 16.169647
58.070 16.217331
58.075 15.607563
58.080 15.395267
58.085 15.682499
58.090 15.237359
58.095 15.051777
58.100 15.078887
58.105 15.293893
58.110 15.716854
58.115 15.538721
58.120 15.295324
58.125 15.4545
58.130 15.376234
58.135 15.472468
58.140 15.049605
58.145 15.265454
58.150 15.415012
58.155 15.475999
58.160 15.313358
58.165 15.40335
58.170 15.913049
58.175 16.366762
58.180 16.27434
58.185 16.131369
58.190 16.063833
58.195 16.572704
58.200 16.397821
58.205 16.148794
58.210 16.635267
58.215 17.145052
58.220 17.569906
58.225 18.317707
58.230 17.96384
58.235 17.544193
58.240 17.243031
58.245 17.04483
58.250 17.310547
58.255 17.207699
58.260 16.765522
58.265 16.88563
58.270 16.879993
58.275 17.085058
58.280 16.712774
58.285 16.41733
58.290 16.657776
58.295 16.934208
58.300 17.656788
58.305 18.032341
58.310 17.902487
58.315 17.823935
58.320 17.844967
58.325 18.237259
58.330 17.804342
58.335 17.737263
58.340 18.187979
58.345 18.281096
58.350 17.739515
58.355 17.583937
58.360 17.461006
58.365 18.462124
58.370 18.843616
58.375 18.663515
58.380 18.77957
58.385 19.175972
58.390 19.111494
58.395 18.715302
58.400 18.738253
58.405 19.435019
58.410 19.66082
58.415 20.265699
58.420 21.775122
58.425 22.912933
58.430 23.871325
58.435 23.684145
58.440 23.047958
58.445 23.753294
58.450 24.079706
58.455 24.194654
58.460 24.240854
58.465 24.301722
58.470 24.973898
58.475 25.254763
58.480 24.693281
58.485 24.568707
58.490 24.445112
58.495 24.947485
58.500 25.361065
58.505 25.916414
58.510 26.583635
58.515 27.231628
58.520 28.184658
58.525 28.625444
58.530 28.36289
58.535 28.40242
58.540 28.33857
58.545 28.316004
58.550 28.278006
58.555 27.235956
58.560 27.436403
58.565 27.898342
58.570 28.586447
58.575 28.734707
58.580 29.386545
58.585 30.086554
58.590 31.470745
58.595 32.30743
58.600 32.730556
58.605 33.310772
58.610 33.369377
58.615 33.815765
58.620 34.227871
58.625 34.454166
58.630 34.141998
58.635 33.84359
58.640 34.425652
58.645 34.245125
58.650 33.472733
58.655 33.38414
58.660 33.328426
58.665 34.171021
58.670 34.608505
58.675 34.730553
58.680 35.329185
58.685 35.570629
58.690 35.780239
58.695 36.20063
58.700 36.029633
58.705 35.397133
58.710 34.507046
58.715 34.293858
58.720 34.140198
58.725 33.982655
58.730 33.3475
58.735 33.063957
58.740 32.728592
58.745 32.77877
58.750 33.114948
58.755 33.276592
58.760 32.846329
58.765 32.466522
58.770 32.146832
58.775 31.468
58.780 30.971498
58.785 30.43014
58.790 29.724186
58.795 29.299961
58.800 29.146358
58.805 29.406904
58.810 30.044199
58.815 29.846291
58.820 30.22887
58.825 30.618948
58.830 30.708469
58.835 30.666639
58.840 29.952812
58.845 29.284094
58.850 28.790291
58.855 27.699707
58.860 27.416735
58.865 26.768644
58.870 25.67127
58.875 25.245237
58.880 24.99164
58.885 24.455545
58.890 24.227322
58.895 24.227093
58.900 24.461317
58.905 24.762674
58.910 24.404402
58.915 23.301418
58.920 22.718937
58.925 22.668203
58.930 22.263687
58.935 21.656683
58.940 20.573071
58.945 20.134718
58.950 20.499571
58.955 20.023685
58.960 19.61055
58.965 18.740507
58.970 18.680405
58.975 19.072937
58.980 19.046333
58.985 19.242331
58.990 19.921415
58.995 20.228045
59.000 19.712011
59.005 18.732056
59.010 18.196627
59.015 17.995512
59.020 17.459133
59.025 16.90111
59.030 16.357821
59.035 16.874157
59.040 17.247473
59.045 17.334326
59.050 17.681932
59.055 17.571915
59.060 17.90155
59.065 17.941217
59.070 17.744984
59.075 17.285044
59.080 16.674208
59.085 16.221664
59.090 16.138134
59.095 15.495233
59.100 15.183869
59.105 15.034698
59.110 14.328866
59.115 14.570612
59.120 15.066875
59.125 15.394867
59.130 15.619931
59.135 15.798128
59.140 15.938086
59.145 16.442358
59.150 16.28438
59.155 15.906787
59.160 15.23766
59.165 15.133064
59.170 14.723448
59.175 14.619788
59.180 14.225852
59.185 13.761997
59.190 13.818888
59.195 14.102841
59.200 13.828745
59.205 13.851801
59.210 14.269403
59.215 14.330743
59.220 14.714909
59.225 14.809806
59.230 15.080505
59.235 15.153646
59.240 15.489779
59.245 15.526659
59.250 15.823092
59.255 15.609983
59.260 15.305673
59.265 15.176492
59.270 15.017429
59.275 14.698674
59.280 14.35582
59.285 13.913706
59.290 13.748343
59.295 14.174339
59.300 14.65428
59.305 15.060293
59.310 14.642429
59.315 14.551869
59.320 14.656871
59.325 14.598217
59.330 14.181947
59.335 13.869216
59.340 14.121012
59.345 14.607356
59.350 14.956462
59.355 15.044205
59.360 15.115981
59.365 14.990697
59.370 14.922788
59.375 14.867271
59.380 14.979391
59.385 15.40712
59.390 16.051937
59.395 16.172825
59.400 16.052137
59.405 15.802537
59.410 15.908434
59.415 16.093983
59.420 15.824574
59.425 15.438039
59.430 15.06848
59.435 15.348968
59.440 15.397623
59.445 15.019532
59.450 14.497862
59.455 14.497283
59.460 14.545063
59.465 14.378784
59.470 14.110666
59.475 13.914665
59.480 14.413889
59.485 14.57908
59.490 14.811131
59.495 15.262913
59.500 15.649356
59.505 15.542658
59.510 15.489486
59.515 15.056445
59.520 15.12656
59.525 15.683522
59.530 15.744791
59.535 15.507737
59.540 15.445334
59.545 16.019634
59.550 15.945121
59.555 15.728231
59.560 14.842634
59.565 14.196372
59.570 14.454995
59.575 14.911255
59.580 14.764517
59.585 15.327263
59.590 14.797369
59.595 14.922025
59.600 15.350313
59.605 15.433663
59.610 15.757142
59.615 15.593814
59.620 15.666391
59.625 15.875812
59.630 15.435795
59.635 15.042828
59.640 14.931149
59.645 14.695451
59.650 14.942553
59.655 15.099648
59.660 15.75575
59.665 15.507575
59.670 15.256348
59.675 14.688743
59.680 14.209463
59.685 13.590493
59.690 13.336915
59.695 13.578621
59.700 14.672481
59.705 14.941466
59.710 15.173618
59.715 15.530831
59.720 15.795674
59.725 15.575659
59.730 15.089453
59.735 14.820021
59.740 15.243706
59.745 15.032058
59.750 14.803577
59.755 14.341875
59.760 14.162194
59.765 14.004911
59.770 13.685455
59.775 13.785957
59.780 14.344964
59.785 14.89669
59.790 15.025464
59.795 15.246759
59.800 15.97196
59.805 15.720059
59.810 15.563901
59.815 15.396933
59.820 15.231542
59.825 15.503607
59.830 15.017936
59.835 14.07094
59.840 14.385486
59.845 14.489963
59.850 14.708454
59.855 14.278523
59.860 14.292098
59.865 14.468847
59.870 14.739218
59.875 15.340531
59.880 15.271212
59.885 15.11522
59.890 15.060724
59.895 15.266316
59.900 15.751697
59.905 15.404212
59.910 14.622752
59.915 14.516057
59.920 14.724388
59.925 15.165774
59.930 15.185361
59.935 15.121059
59.940 15.056838
59.945 14.897294
59.950 15.250313
59.955 15.536823
59.960 15.459432
59.965 14.863124
59.970 14.557755
59.975 14.986757
59.980 15.509129
59.985 14.691104
59.990 14.440363
59.995 14.296166
60.000 14.741588
60.005 15.411383
60.010 15.598206
60.015 15.197219
60.020 15.293524
60.025 15.484241
60.030 15.180904
60.035 14.671549
60.040 13.524228
60.045 13.519298
60.050 14.180216
60.055 14.575371
60.060 14.306007
60.065 14.496223
60.070 15.363912
60.075 16.198174
60.080 15.865938
60.085 15.625184
60.090 15.265568
60.095 15.702779
60.100 15.609665
60.105 15.594832
60.110 15.543326
60.115 15.13947
60.120 15.128401
60.125 15.306851
60.130 14.650989
60.135 14.45675
60.140 14.125337
60.145 14.333985
60.150 14.685719
60.155 14.233781
60.160 13.967381
60.165 14.239326
60.170 14.255257
60.175 13.814915
60.180 13.635154
60.185 13.821418
60.190 14.312536
60.195 14.677152
60.200 14.60776
60.205 14.34081
60.210 15.073506
60.215 15.344162
60.220 15.801205
60.225 15.692019
60.230 15.676023
60.235 16.208483
60.240 16.569899
60.245 16.392117
60.250 16.16732
60.255 15.670485
60.260 15.382063
60.265 15.500152
60.270 15.378239
60.275 16.090866
60.280 16.104536
60.285 16.08997
60.290 16.082211
60.295 15.765387
60.300 15.618758
60.305 15.577034
60.310 14.923892
60.315 14.53957
60.320 14.564295
60.325 14.378309
60.330 14.375212
60.335 14.390787
60.340 14.080195
60.345 13.932334
60.350 14.017054
60.355 13.902285
60.360 14.009409
60.365 14.093769
60.370 14.153847
60.375 14.514142
60.380 14.760603
60.385 14.770619
60.390 14.406576
60.395 14.351005
60.400 14.403843
60.405 14.991934
60.410 15.472622
60.415 15.306005
60.420 15.135695
60.425 15.289598
60.430 15.000107
60.435 14.971237
60.440 14.394217
60.445 14.220078
60.450 14.349951
60.455 14.675386
60.460 15.028386
60.465 15.665127
60.470 15.775059
60.475 15.532395
60.480 15.531657
60.485 15.627682
60.490 15.405583
60.495 15.036594
60.500 14.532548
60.505 14.324599
60.510 14.437052
60.515 14.390307
60.520 14.493187
60.525 14.856767
60.530 15.336791
60.535 15.328831
60.540 15.084643
60.545 14.728844
60.550 13.948835
60.555 13.577
60.560 13.240211
60.565 13.1872
60.570 13.494377
60.575 13.721013
60.580 14.077624
60.585 14.486516
60.590 14.661268
60.595 14.947497
60.600 14.864726
60.605 14.755802
60.610 14.604207
60.615 14.26471
60.620 14.435966
60.625 14.314877
60.630 14.152723
60.635 14.154026
60.640 14.574676
60.645 14.939909
60.650 15.535603
60.655 15.561586
60.660 15.145589
60.665 14.985538
60.670 15.020087
60.675 14.333704
60.680 14.427871
60.685 14.53495
60.690 14.15033
60.695 14.997383
60.700 15.69875
60.705 16.000565
60.710 16.374535
60.715 16.114063
60.720 15.864326
60.725 16.377432
60.730 15.719055
60.735 15.173614
60.740 15.007284
60.745 15.058399
60.750 14.718624
60.755 14.779758
60.760 14.956289
60.765 14.939595
60.770 14.75846
60.775 14.625432
60.780 14.353293
60.785 14.269145
60.790 13.748053
60.795 13.94669
60.800 14.641213
60.805 15.027205
60.810 14.958899
60.815 15.158398
60.820 15.183513
60.825 15.514991
60.830 15.154261
60.835 15.428289
60.840 15.147516
60.845 15.457708
60.850 15.794
60.855 16.106577
60.860 15.726263
60.865 15.468205
60.870 14.975282
60.875 15.456743
60.880 15.193543
60.885 14.607021
60.890 14.234535
60.895 14.745268
60.900 14.891261
60.905 14.63266
60.910 14.450589
60.915 14.200305
60.920 14.118181
60.925 14.002242
60.930 13.752634
60.935 13.578579
60.940 13.922395
60.945 13.833378
60.950 13.549879
60.955 14.235076
60.960 14.902264
60.965 14.886598
60.970 14.978511
60.975 14.68486
60.980 14.988223
60.985 15.884185
60.990 16.101688
60.995 15.983919
61.000 15.960696
61.005 16.014879
61.010 16.036692
61.015 15.810724
61.020 15.364838
61.025 14.762448
61.030 14.447459
61.035 14.610234
61.040 14.542756
61.045 14.870597
61.050 14.960693
61.055 15.154175
61.060 15.738379
61.065 16.072557
61.070 16.357294
61.075 16.645401
61.080 16.805183
61.085 16.563963
61.090 16.100927
61.095 15.425639
61.100 15.265292
61.105 15.166035
61.110 15.180665
61.115 14.517776
61.120 14.815446
61.125 15.519653
61.130 15.84976
61.135 15.731527
61.140 15.787176
61.145 15.667103
61.150 15.824004
61.155 15.330273
61.160 15.057561
61.165 15.22594
61.170 15.789432
61.175 15.967507
61.180 15.772535
61.185 16.07896
61.190 16.105709
61.195 16.208563
61.200 15.77517
61.205 15.181523
61.210 14.569258
61.215 14.374534
61.220 14.510139
61.225 14.892488
61.230 15.517678
61.235 15.718149
61.240 15.681663
61.245 16.201729
61.250 16.149382
61.255 16.379843
61.260 16.072615
61.265 15.813461
61.270 15.720155
61.275 15.818813
61.280 15.829262
61.285 16.196026
61.290 16.421555
61.295 16.409096
61.300 15.980306
61.305 15.89926
61.310 15.717473
61.315 15.732857
61.320 15.568285
61.325 15.406937
61.330 15.938798
61.335 15.961098
61.340 16.406036
61.345 16.543989
61.350 16.048138
61.355 15.627471
61.360 15.057426
61.365 14.5857
61.370 14.591367
61.375 14.386388
61.380 14.480837
61.385 14.482824
61.390 14.654032
61.395 15.118064
61.400 15.246312
61.405 15.185167
61.410 15.471348
61.415 15.521201
61.420 15.67311
61.425 15.764855
61.430 15.388036
61.435 15.357229
61.440 15.888003
61.445 16.093985
61.450 15.709256
61.455 15.81956
61.460 16.009943
61.465 15.956366
61.470 15.367567
61.475 15.046283
61.480 14.739655
61.485 14.712805
61.490 14.805955
61.495 14.307189
61.500 14.523146
61.505 14.711672
61.510 14.0581
61.515 13.908214
61.520 14.126393
61.525 14.043022
61.530 14.306829
61.535 14.612669
61.540 15.667249
61.545 16.24374
61.550 16.756208
61.555 16.790154
61.560 17.041563
61.565 17.209398
61.570 16.728861
61.575 15.932545
61.580 16.453426
61.585 15.956206
61.590 16.14378
61.595 15.904229
61.600 15.883944
61.605 16.045765
61.610 15.865158
61.615 15.46233
61.620 15.669162
61.625 15.661797
61.630 15.88659
61.635 15.975595
61.640 16.06443
61.645 16.523705
61.650 16.888142
61.655 16.935976
61.660 16.697556
61.665 16.263605
61.670 15.910494
61.675 15.862257
61.680 15.169601
61.685 14.847547
61.690 14.655527
61.695 14.530018
61.700 14.748444
61.705 14.925403
61.710 15.110678
61.715 15.212906
61.720 14.79778
61.725 14.996402
61.730 15.383089
61.735 15.70004
61.740 15.639082
61.745 15.356648
61.750 15.425561
61.755 15.648458
61.760 15.711614
61.765 15.921386
61.770 15.879675
61.775 15.643439
61.780 15.578554
61.785 15.610222
61.790 15.318665
61.795 14.849012
61.800 14.748016
61.805 14.949898
61.810 15.350951
61.815 15.216704
61.820 15.21908
61.825 15.675328
61.830 15.902961
61.835 15.416459
61.840 14.734875
61.845 14.996607
61.850 15.27974
61.855 15.57252
61.860 15.320387
61.865 15.13629
61.870 15.341084
61.875 16.147211
61.880 16.072981
61.885 16.07509
61.890 16.368084
61.895 16.20743
61.900 15.776195
61.905 15.713349
61.910 15.754442
61.915 15.486115
61.920 15.629068
61.925 15.334947
61.930 15.532188
61.935 16.318672
61.940 16.108498
61.945 15.771385
61.950 15.616797
61.955 15.798545
61.960 15.764031
61.965 15.652002
61.970 15.568226
61.975 15.559729
61.980 15.604929
61.985 15.363682
61.990 14.751372
61.995 14.499307
62.000 14.548779
62.005 14.841482
62.010 15.167871
62.015 15.547742
62.020 16.020905
62.025 16.234884
62.030 16.32337
62.035 16.331366
62.040 16.067818
62.045 16.168209
62.050 16.115576
62.055 16.23502
62.060 16.420813
62.065 16.643564
62.070 16.498344
62.075 16.908703
62.080 16.542021
62.085 16.059231
62.090 15.749721
62.095 15.631123
62.100 15.825456
62.105 15.792272
62.110 15.672696
62.115 15.379893
62.120 15.587086
62.125 16.234833
62.130 16.874739
62.135 17.040308
62.140 17.04995
62.145 16.873461
62.150 17.502289
62.155 17.375813
62.160 17.186823
62.165 17.224314
62.170 17.113655
62.175 17.119028
62.180 16.815744
62.185 16.540468
62.190 16.861933
62.195 16.811249
62.200 16.012234
62.205 15.369434
62.210 15.226989
62.215 15.70543
62.220 15.808186
62.225 15.962132
62.230 15.880047
62.235 16.012497
62.240 16.673426
62.245 16.760759
62.250 16.1929
62.255 15.587744
62.260 15.061965
62.265 15.634085
62.270 15.62257
62.275 15.618658
62.280 15.962844
62.285 16.124084
62.290 16.160006
62.295 15.621175
62.300 14.882205
62.305 15.148545
62.310 14.831469
62.315 14.268193
62.320 14.381688
62.325 14.518709
62.330 14.834991
62.335 15.187357
62.340 15.534562
62.345 15.878094
62.350 16.20229
62.355 16.130817
62.360 16.295631
62.365 16.319262
62.370 15.972558
62.375 15.442702
62.380 15.472846
62.385 15.718051
62.390 16.215023
62.395 16.098444
62.400 16.373383
62.405 16.452723
62.410 16.409035
62.415 16.185875
62.420 15.565959
62.425 15.400163
62.430 15.498435
62.435 15.825281
62.440 15.733718
62.445 15.185352
62.450 15.536712
62.455 16.404869
62.460 16.607347
62.465 16.689148
62.470 16.336355
62.475 16.521923
62.480 16.843634
62.485 16.19437
62.490 15.988975
62.495 16.041735
62.500 15.939667
62.505 15.663401
62.510 15.605412
62.515 15.213222
62.520 14.816646
62.525 14.718204
62.530 14.683035
62.535 14.412836
62.540 14.724402
62.545 14.921488
62.550 15.667188
62.555 16.106623
62.560 15.627295
62.565 15.213615
62.570 15.388002
62.575 15.372971
62.580 15.580306
62.585 15.358923
62.590 15.207471
62.595 15.456773
62.600 15.53206
62.605 15.550245
62.610 15.429627
62.615 15.112585
62.620 15.340366
62.625 16.116589
62.630 16.426544
62.635 16.889292
62.640 17.030783
62.645 16.697264
62.650 16.785151
62.655 17.234816
62.660 16.47974
62.665 15.929523
62.670 15.976928
62.675 16.416588
62.680 16.796227
62.685 16.585882
62.690 16.186714
62.695 16.187708
62.700 16.237604
62.705 15.790174
62.710 15.703915
62.715 15.851189
62.720 16.045694
62.725 16.280554
62.730 16.920837
62.735 17.517017
62.740 17.582069
62.745 17.386633
62.750 17.454233
62.755 17.657211
62.760 17.392847
62.765 17.041145
62.770 16.796486
62.775 17.120014
62.780 16.827822
62.785 16.07926
62.790 15.959082
62.795 15.596644
62.800 15.306571
62.805 15.020675
62.810 14.257132
62.815 14.539842
62.820 15.056941
62.825 15.340141
62.830 15.822361
62.835 16.006266
62.840 16.522375
62.845 16.936867
62.850 16.876896
62.855 17.038807
62.860 16.956553
62.865 16.843355
62.870 17.111353
62.875 17.580503
62.880 17.777105
62.885 17.896149
62.890 17.017414
62.895 17.013199
62.900 17.392939
62.905 17.094574
62.910 15.760046
62.915 15.336452
62.920 15.29148
62.925 15.765963
62.930 15.165388
62.935 14.52223
62.940 14.810493
62.945 15.707876
62.950 15.802209
62.955 16.056475
62.960 16.199366
62.965 16.45998
62.970 16.696869
62.975 16.514328
62.980 16.527855
62.985 16.47403
62.990 15.870918
62.995 15.72049
63.000 15.708689
63.005 15.702005
63.010 15.796284
63.015 15.922702
63.020 16.009787
63.025 16.154047
63.030 16.196693
63.035 16.30743
63.040 16.101912
63.045 15.847109
63.050 15.788355
63.055 15.602595
63.060 15.857425
63.065 16.063368
63.070 16.311583
63.075 16.477245
63.080 16.498011
63.085 16.953831
63.090 17.452223
63.095 17.268414
63.100 17.077328
63.105 17.105799
63.110 17.45771
63.115 17.482227
63.120 17.192518
63.125 17.299866
63.130 17.269386
63.135 17.42523
63.140 17.256367
63.145 17.616417
63.150 17.425699
63.155 16.996433
63.160 16.839945
63.165 16.968828
63.170 16.991598
63.175 17.316971
63.180 17.187721
63.185 17.324091
63.190 17.35034
63.195 17.642447
63.200 17.688206
63.205 17.683662
63.210 17.673222
63.215 17.806488
63.220 18.039085
63.225 17.799294
63.230 17.631933
63.235 17.576132
63.240 17.469521
63.245 16.920918
63.250 16.335106
63.255 16.023886
63.260 15.774303
63.265 15.556056
63.270 15.331594
63.275 15.458439
63.280 15.819216
63.285 16.489332
63.290 16.796671
63.295 16.966236
63.300 17.25194
63.305 17.274242
63.310 17.497728
63.315 17.536537
63.320 17.271183
63.325 17.351427
63.330 17.401142
63.335 17.284418
63.340 17.158859
63.345 16.935776
63.350 16.774542
63.355 17.104555
63.360 16.847458
63.365 16.723528
63.370 16.96596
63.375 16.978834
63.380 16.896374
63.385 16.734409
63.390 15.907888
63.395 15.792849
63.400 15.534193
63.405 15.220252
63.410 15.139325
63.415 15.2525
63.420 15.306727
63.425 15.781014
63.430 16.457222
63.435 16.846327
63.440 16.969864
63.445 17.01948
63.450 17.016769
63.455 17.139856
63.460 17.381224
63.465 16.940615
63.470 17.188339
63.475 17.643339
63.480 17.9328
63.485 17.791771
63.490 17.295647
63.495 16.78516
63.500 17.201782
63.505 16.844107
63.510 16.545832
63.515 16.579395
63.520 16.322073
63.525 17.052019
63.530 17.617004
63.535 17.317747
63.540 17.1516
63.545 16.76844
63.550 16.665319
63.555 17.094723
63.560 16.941866
63.565 16.775984
63.570 16.687418
63.575 17.192352
63.580 17.497385
63.585 17.436953
63.590 17.210453
63.595 17.011225
63.600 16.614258
63.605 17.062527
63.610 17.164301
63.615 17.104458
63.620 17.01528
63.625 17.099237
63.630 17.243101
63.635 18.02206
63.640 17.740919
63.645 17.609293
63.650 17.819773
63.655 17.792503
63.660 18.239798
63.665 18.411671
63.670 18.273455
63.675 18.552784
63.680 18.83852
63.685 18.954336
63.690 19.508612
63.695 19.422476
63.700 18.969496
63.705 18.889965
63.710 18.983116
63.715 18.693512
63.720 18.476435
63.725 18.303688
63.730 18.491638
63.735 18.797586
63.740 18.822495
63.745 19.022793
63.750 19.141125
63.755 19.209698
63.760 18.57724
63.765 18.320717
63.770 18.223934
63.775 18.099112
63.780 17.876131
63.785 18.036562
63.790 18.116667
63.795 18.817057
63.800 18.572155
63.805 18.582848
63.810 18.811035
63.815 18.714422
63.820 18.122778
63.825 18.340494
63.830 18.540405
63.835 18.48634
63.840 18.239929
63.845 18.385326
63.850 18.292349
63.855 18.772207
63.860 17.927156
63.865 17.421089
63.870 17.62949
63.875 17.624208
63.880 17.553417
63.885 17.912106
63.890 18.080359
63.895 18.444502
63.900 18.549376
63.905 18.986542
63.910 19.725126
63.915 20.110048
63.920 20.275677
63.925 20.382637
63.930 20.703163
63.935 21.115408
63.940 20.843771
63.945 19.821955
63.950 19.055315
63.955 18.566528
63.960 18.881683
63.965 18.813416
63.970 17.983917
63.975 17.89439
63.980 18.574236
63.985 18.888929
63.990 19.26684
63.995 19.370295
64.000 19.833397
64.005 20.818066
64.010 21.258577
64.015 21.495575
64.020 22.027849
64.025 21.799974
64.030 22.058275
64.035 22.199238
64.040 22.499388
64.045 22.287224
64.050 22.063473
64.055 21.781754
64.060 21.700212
64.065 21.086414
64.070 20.664265
64.075 20.307503
64.080 21.536169
64.085 22.504219
64.090 22.854731
64.095 23.520653
64.100 24.500856
64.105 24.929943
64.110 24.881018
64.115 23.914555
64.120 22.974907
64.125 23.298975
64.130 23.531208
64.135 23.186445
64.140 23.087437
64.145 23.36598
64.150 23.776445
64.155 25.133818
64.160 25.47485
64.165 25.704145
64.170 25.948526
64.175 26.253876
64.180 27.075634
64.185 27.72216
64.190 27.31012
64.195 28.191622
64.200 28.525684
64.205 29.083969
64.210 29.452917
64.215 30.23815
64.220 31.16683
64.225 32.43993
64.230 32.121983
64.235 32.36438
64.240 33.150833
64.245 34.112991
64.250 33.205894
64.255 33.731365
64.260 34.383732
64.265 34.982983
64.270 35.051277
64.275 34.833714
64.280 34.751057
64.285 35.68412
64.290 36.202003
64.295 36.843971
64.300 38.50993
64.305 39.488514
64.310 40.207241
64.315 41.070808
64.320 41.547993
64.325 42.038769
64.330 41.984566
64.335 41.582375
64.340 42.177372
64.345 42.84214
64.350 43.013485
64.355 43.327919
64.360 43.837395
64.365 43.949284
64.370 44.230885
64.375 44.816017
64.380 45.180481
64.385 45.472065
64.390 45.744778
64.395 46.268726
64.400 47.032036
64.405 46.840153
64.410 47.068214
64.415 48.033211
64.420 48.789795
64.425 49.411407
64.430 48.912853
64.435 48.588684
64.440 48.727428
64.445 48.544781
64.450 48.067387
64.455 47.519135
64.460 47.089249
64.465 48.293091
64.470 48.676918
64.475 49.061916
64.480 49.761559
64.485 50.217484
64.490 50.954967
64.495 51.022205
64.500 50.605217
64.505 50.363949
64.510 50.658833
64.515 49.743538
64.520 48.700012
64.525 47.132488
64.530 45.728432
64.535 45.177082
64.540 45.0373
64.545 44.408524
64.550 43.643265
64.555 43.378933
64.560 43.828033
64.565 43.637802
64.570 42.539474
64.575 41.536011
64.580 41.16185
64.585 40.807911
64.590 40.366299
64.595 39.735889
64.600 39.542297
64.605 39.325085
64.610 39.238979
64.615 38.407459
64.620 38.190403
64.625 37.383186
64.630 36.433289
64.635 35.819801
64.640 35.161106
64.645 34.222878
64.650 33.991978
64.655 33.603306
64.660 33.428684
64.665 33.067642
64.670 32.877922
64.675 32.459026
64.680 31.886169
64.685 31.445463
64.690 31.199713
64.695 31.322296
64.700 31.764042
64.705 30.580025
64.710 30.07744
64.715 30.350903
64.720 29.520128
64.725 28.814297
64.730 27.920031
64.735 27.791504
64.740 27.908022
64.745 27.062056
64.750 26.370483
64.755 26.546232
64.760 26.197973
64.765 25.948603
64.770 25.525696
64.775 25.413395
64.780 25.74128
64.785 25.547367
64.790 24.66423
64.795 24.311609
64.800 24.308279
64.805 24.102081
64.810 23.836761
64.815 23.308414
64.820 22.81949
64.825 23.456587
64.830 24.308353
64.835 24.741234
64.840 24.678127
64.845 24.478636
64.850 24.213427
64.855 24.108931
64.860 24.160948
64.865 23.888319
64.870 23.316881
64.875 23.04987
64.880 23.069626
64.885 22.999647
64.890 23.144148
64.895 22.982174
64.900 22.311983
64.905 22.835855
64.910 23.267441
64.915 23.711201
64.920 24.068901
64.925 23.894934
64.930 24.129265
64.935 24.672319
64.940 24.92054
64.945 24.391119
64.950 24.924929
64.955 25.47253
64.960 25.915905
64.965 25.713732
64.970 26.201328
64.975 26.917524
64.980 28.152792
64.985 28.345592
64.990 28.641245
64.995 29.201815
65.000 30.053154
65.005 29.860495
65.010 29.368216
65.015 29.674391
65.020 30.864433
65.025 31.3284
65.030 31.485226
65.035 32.138504
65.040 32.596603
65.045 33.656406
65.050 34.089054
65.055 33.692692
65.060 34.336979
65.065 34.88538
65.070 35.393547
65.075 36.126305
65.080 36.62923
65.085 36.489845
65.090 36.982784
65.095 37.453632
65.100 37.45742
65.105 37.081593
65.110 37.586121
65.115 37.459354
65.120 37.283199
65.125 37.756104
65.130 37.69125
65.135 37.4627
65.140 37.166851
65.145 37.069344
65.150 36.983833
65.155 37.383675
65.160 36.096836
65.165 35.875233
65.170 36.299881
65.175 36.89254
65.180 36.350559
65.185 36.635471
65.190 36.695927
65.195 38.737999
65.200 39.713272
65.205 40.414478
65.210 40.342957
65.215 40.235748
65.220 40.283726
65.225 40.266468
65.230 38.776512
65.235 37.768719
65.240 36.909645
65.245 36.864456
65.250 37.229778
65.255 37.728832
65.260 37.981148
65.265 37.835514
65.270 38.268627
65.275 38.861275
65.280 38.942802
65.285 38.202129
65.290 37.605644
65.295 37.241199
65.300 37.820683
65.305 38.043949
65.310 37.869617
65.315 37.847488
65.320 38.550919
65.325 38.506302
65.330 38.648109
65.335 38.715839
65.340 37.919327
65.345 38.057339
65.350 37.611244
65.355 36.926147
65.360 37.484772
65.365 37.712383
65.370 37.625645
65.375 37.930603
65.380 37.715916
65.385 37.666759
65.390 37.24789
65.395 36.351994
65.400 36.190281
65.405 37.129841
65.410 37.428486
65.415 37.496956
65.420 37.360989
65.425 37.607529
65.430 37.846451
65.435 37.881908
65.440 36.742504
65.445 36.105736
65.450 35.291412
65.455 35.264378
65.460 35.079491
65.465 35.002094
65.470 33.695999
65.475 33.579453
65.480 33.866383
65.485 34.514626
65.490 34.729885
65.495 34.992779
65.500 35.677631
65.505 36.524113
65.510 36.665939
65.515 36.825283
65.520 36.57695
65.525 36.890232
65.530 37.056278
65.535 37.120926
65.540 36.628464
65.545 36.39949
65.550 36.390839
65.555 36.658062
65.560 36.415443
65.565 35.70668
65.570 34.939213
65.575 35.437683
65.580 36.238583
65.585 36.194778
65.590 35.445
65.595 35.310089
65.600 35.498402
65.605 35.453381
65.610 34.783871
65.615 33.666023
65.620 32.93766
65.625 33.380714
65.630 32.817955
65.635 32.07523
65.640 32.310436
65.645 32.147549
65.650 31.919207
65.655 32.045685
65.660 32.515995
65.665 33.314377
65.670 33.29546
65.675 33.156528
65.680 34.074448
65.685 33.717617
65.690 33.654186
65.695 33.302433
65.700 33.607265
65.705 34.351757
65.710 33.701103
65.715 32.72179
65.720 32.728432
65.725 32.059364
65.730 31.741051
65.735 31.513874
65.740 30.261326
65.745 29.735035
65.750 29.971033
65.755 29.526928
65.760 29.706673
65.765 28.449781
65.770 27.088953
65.775 27.336966
65.780 27.955206
65.785 27.596813
65.790 27.778137
65.795 27.528847
65.800 28.475876
65.805 29.439064
65.810 29.471672
65.815 28.923033
65.820 28.914835
65.825 28.976601
65.830 29.022385
65.835 28.267492
65.840 27.711531
65.845 28.065079
65.850 28.410883
65.855 28.122183
65.860 27.559475
65.865 27.217636
65.870 27.339582
65.875 27.092323
65.880 26.816404
65.885 25.903839
65.890 25.302563
65.895 24.604103
65.900 23.717873
65.905 23.32342
65.910 23.182165
65.915 22.958904
65.920 23.250927
65.925 23.209126
65.930 23.393335
65.935 23.522028
65.940 23.573837
65.945 23.566662
65.950 23.210047
65.955 22.282915
65.960 21.259714
65.965 21.441412
65.970 21.569742
65.975 21.571743
65.980 20.767305
65.985 20.827583
65.990 21.424801
65.995 22.103945
66.000 21.989618
66.005 21.581907
66.010 21.203632
66.015 21.311117
66.020 20.785631
66.025 20.164141
66.030 19.866497
66.035 19.971085
66.040 19.850765
66.045 20.295626
66.050 20.621315
66.055 20.75367
66.060 21.249825
66.065 21.252298
66.070 21.246965
66.075 21.433193
66.080 21.060051
66.085 20.829199
66.090 20.635725
66.095 20.408184
66.100 20.085413
66.105 19.916027
66.110 20.350554
66.115 20.591133
66.120 20.942648
66.125 21.442019
66.130 20.822336
66.135 20.483204
66.140 19.48807
66.145 18.093355
66.150 17.743719
66.155 17.575184
66.160 17.269445
66.165 18.323633
66.170 19.438501
66.175 20.661631
66.180 21.366972
66.185 21.256447
66.190 21.035749
66.195 20.64255
66.200 19.103437
66.205 17.630175
66.210 16.641426
66.215 16.889387
66.220 16.971401
66.225 16.732382
66.230 16.80303
66.235 17.46909
66.240 17.719376
66.245 18.075132
66.250 17.997299
66.255 17.825443
66.260 18.377478
66.265 18.710686
66.270 19.197639
66.275 19.847546
66.280 20.328449
66.285 19.882645
66.290 19.283098
66.295 18.803154
66.300 18.263691
66.305 17.320124
66.310 16.582525
66.315 15.908016
66.320 16.05809
66.325 16.798672
66.330 16.980944
66.335 17.606781
66.340 18.024313
66.345 18.752377
66.350 18.626177
66.355 18.497368
66.360 18.466572
66.365 18.261364
66.370 17.800501
66.375 17.807365
66.380 17.49238
66.385 17.783619
66.390 17.756519
66.395 17.441204
66.400 17.932026
66.405 18.541878
66.410 19.126545
66.415 20.087315
66.420 20.744358
66.425 21.206512
66.430 21.108898
66.435 20.480871
66.440 20.024174
66.445 19.640625
66.450 19.372093
66.455 18.93284
66.460 18.44347
66.465 18.426167
66.470 19.071661
66.475 19.242617
66.480 18.607695
66.485 17.821333
66.490 17.759605
66.495 18.042336
66.500 17.90291
66.505 18.202225
66.510 18.038742
66.515 18.481783
66.520 18.715248
66.525 18.720804
66.530 17.979685
66.535 18.025265
66.540 17.456297
66.545 17.315918
66.550 17.810608
66.555 17.647579
66.560 17.879286
66.565 18.784498
66.570 18.987932
66.575 18.936558
66.580 18.888332
66.585 18.130146
66.590 17.866629
66.595 18.35354
66.600 18.580626
66.605 18.630754
66.610 18.389803
66.615 18.777466
66.620 19.126701
66.625 19.680162
66.630 19.154566
66.635 18.777172
66.640 19.184477
66.645 19.341337
66.650 19.230019
66.655 18.743042
66.660 18.222427
66.665 18.154831
66.670 17.81041
66.675 17.297428
66.680 17.269522
66.685 17.166523
66.690 17.550196
66.695 17.940361
66.700 18.140326
66.705 18.341316
66.710 18.391356
66.715 18.314558
66.720 18.390278
66.725 18.350561
66.730 18.097103
66.735 18.02878
66.740 17.810921
66.745 17.746431
66.750 17.59239
66.755 17.502445
66.760 17.680784
66.765 17.545877
66.770 17.205395
66.775 17.010427
66.780 17.278387
66.785 17.719839
66.790 17.63711
66.795 17.37945
66.800 17.356651
66.805 17.115593
66.810 17.484171
66.815 17.776802
66.820 17.38348
66.825 16.844839
66.830 16.500839
66.835 16.785196
66.840 17.583954
66.845 17.129789
66.850 16.867058
66.855 17.157066
66.860 17.615599
66.865 18.058933
66.870 17.775604
66.875 17.844017
66.880 18.223297
66.885 18.200077
66.890 18.052816
66.895 18.531719
66.900 18.132147
66.905 18.542135
66.910 18.545996
66.915 18.921862
66.920 19.055929
66.925 19.097082
66.930 19.356613
66.935 19.947741
66.940 20.063585
66.945 19.400034
66.950 19.213531
66.955 19.07826
66.960 18.558928
66.965 18.489841
66.970 18.416788
66.975 18.716759
66.980 19.000412
66.985 18.934452
66.990 18.911846
66.995 19.295115
67.000 19.119919
67.005 19.037737
67.010 18.559387
67.015 18.049644
67.020 17.469814
67.025 17.288759
67.030 17.205172
67.035 17.649672
67.040 17.69628
67.045 17.644043
67.050 18.147694
67.055 18.921207
67.060 19.32328
67.065 18.701982
67.070 17.796225
67.075 17.936813
67.080 18.058203
67.085 17.934488
67.090 17.303562
67.095 17.069153
67.100 18.186466
67.105 18.33544
67.110 18.027594
67.115 18.437309
67.120 18.736286
67.125 18.851536
67.130 18.9506
67.135 17.847893
67.140 17.33153
67.145 17.354584
67.150 16.948111
67.155 16.461212
67.160 16.419554
67.165 16.50346
67.170 17.106956
67.175 17.721352
67.180 18.110352
67.185 18.238218
67.190 18.3487
67.195 18.376198
67.200 18.686169
67.205 18.404528
67.210 18.10223
67.215 17.884556
67.220 18.306372
67.225 18.334827
67.230 17.756319
67.235 17.633238
67.240 17.875734
67.245 17.672026
67.250 17.093449
67.255 16.682533
67.260 17.263214
67.265 17.703388
67.270 17.411837
67.275 17.521528
67.280 17.64859
67.285 17.945164
67.290 18.116749
67.295 17.835167
67.300 18.012945
67.305 18.07407
67.310 17.737003
67.315 17.728262
67.320 17.522354
67.325 18.000383
67.330 18.135757
67.335 18.031992
67.340 18.264551
67.345 18.02434
67.350 18.565498
67.355 18.169809
67.360 17.498526
67.365 17.930792
67.370 17.755316
67.375 17.426846
67.380 16.762627
67.385 16.298176
67.390 16.472092
67.395 15.971036
67.400 15.579053
67.405 15.925522
67.410 16.441229
67.415 17.258818
67.420 17.57058
67.425 17.83717
67.430 18.002514
67.435 18.033115
67.440 17.47167
67.445 17.537157
67.450 17.697004
67.455 17.624069
67.460 17.487185
67.465 17.422115
67.470 17.554068
67.475 17.834846
67.480 17.951384
67.485 17.690529
67.490 18.115362
67.495 18.467634
67.500 18.389898
67.505 18.121752
67.510 18.498428
67.515 18.178511
67.520 18.186495
67.525 17.628929
67.530 17.496813
67.535 17.640009
67.540 17.937973
67.545 17.987818
67.550 18.501616
67.555 19.347069
67.560 19.698877
67.565 19.852177
67.570 20.177856
67.575 19.888308
67.580 19.992228
67.585 20.21446
67.590 19.446831
67.595 19.22851
67.600 19.592882
67.605 19.385668
67.610 18.839798
67.615 18.618734
67.620 18.720461
67.625 18.843216
67.630 18.794661
67.635 18.533243
67.640 18.62266
67.645 18.624254
67.650 18.219805
67.655 18.081678
67.660 18.594095
67.665 19.051241
67.670 18.879223
67.675 18.657827
67.680 19.576324
67.685 19.888783
67.690 19.320946
67.695 19.112259
67.700 18.956251
67.705 18.950367
67.710 18.830475
67.715 17.973772
67.720 17.864161
67.725 18.014879
67.730 18.233332
67.735 18.417654
67.740 18.340368
67.745 18.682034
67.750 18.715918
67.755 18.407724
67.760 17.823349
67.765 17.082325
67.770 16.228281
67.775 16.784374
67.780 17.419857
67.785 17.901037
67.790 17.959484
67.795 18.103182
67.800 17.978512
67.805 18.676023
67.810 18.82921
67.815 18.81354
67.820 18.185497
67.825 18.31212
67.830 17.779953
67.835 17.934761
67.840 17.367134
67.845 17.019594
67.850 16.615728
67.855 16.943682
67.860 16.918978
67.865 17.172987
67.870 17.265007
67.875 17.027706
67.880 16.399426
67.885 16.395184
67.890 16.456993
67.895 16.686388
67.900 17.021601
67.905 17.53429
67.910 18.02224
67.915 17.919548
67.920 17.869276
67.925 18.029114
67.930 17.822424
67.935 18.493162
67.940 18.511816
67.945 18.906261
67.950 19.564484
67.955 19.859852
67.960 19.802071
67.965 20.040255
67.970 19.808111
67.975 19.259581
67.980 18.735233
67.985 18.692745
67.990 18.508671
67.995 18.665953
68.000 18.74424
68.005 18.861694
68.010 19.494177
68.015 20.24016
68.020 20.156782
68.025 19.918535
68.030 19.549501
68.035 19.313463
68.040 19.343378
68.045 19.37056
68.050 19.045979
68.055 19.31035
68.060 19.0697
68.065 19.605177
68.070 19.962469
68.075 19.600853
68.080 19.823792
68.085 19.380882
68.090 19.30937
68.095 19.87788
68.100 19.913261
68.105 19.765028
68.110 20.132122
68.115 20.017876
68.120 20.431538
68.125 20.902958
68.130 20.902206
68.135 20.948309
68.140 21.414331
68.145 21.161812
68.150 20.788536
68.155 20.553869
68.160 20.185987
68.165 20.324492
68.170 20.438705
68.175 20.484785
68.180 20.610703
68.185 21.047827
68.190 21.37731
68.195 21.365215
68.200 21.337074
68.205 21.171923
68.210 20.628786
68.215 20.985975
68.220 21.785286
68.225 21.635822
68.230 21.390617
68.235 20.993221
68.240 21.654663
68.245 21.971901
68.250 21.808479
68.255 21.442238
68.260 22.303991
68.265 23.401945
68.270 24.078094
68.275 23.869389
68.280 24.400091
68.285 24.657137
68.290 24.937824
68.295 25.43264
68.300 25.348156
68.305 25.733725
68.310 26.199232
68.315 26.907566
68.320 27.460495
68.325 27.993979
68.330 27.929216
68.335 27.91128
68.340 28.134577
68.345 28.643263
68.350 28.926525
68.355 29.00033
68.360 28.943977
68.365 29.008062
68.370 29.28797
68.375 29.542654
68.380 29.69647
68.385 29.756332
68.390 29.545259
68.395 29.584206
68.400 29.751875
68.405 29.625237
68.410 29.549953
68.415 30.437906
68.420 31.258425
68.425 32.23064
68.430 32.677292
68.435 32.611275
68.440 32.556446
68.445 33.060001
68.450 33.55056
68.455 33.52367
68.460 33.396385
68.465 33.047112
68.470 33.316986
68.475 33.246937
68.480 32.38398
68.485 32.04084
68.490 32.199791
68.495 32.415607
68.500 32.742584
68.505 33.788551
68.510 35.060562
68.515 35.616287
68.520 35.586807
68.525 35.530842
68.530 36.362484
68.535 36.656429
68.540 35.762047
68.545 35.180763
68.550 35.514114
68.555 36.274994
68.560 36.486511
68.565 35.519318
68.570 35.497635
68.575 35.720753
68.580 35.202782
68.585 34.856148
68.590 33.771526
68.595 33.162975
68.600 33.275951
68.605 33.525787
68.610 33.972431
68.615 34.522709
68.620 34.672096
68.625 34.794765
68.630 35.072647
68.635 34.762642
68.640 34.081764
68.645 33.962814
68.650 34.346661
68.655 34.397125
68.660 34.334747
68.665 34.707951
68.670 35.4389
68.675 36.560112
68.680 36.397671
68.685 35.296005
68.690 35.840847
68.695 36.037094
68.700 36.230064
68.705 36.302979
68.710 35.841316
68.715 35.956032
68.720 36.21669
68.725 36.447639
68.730 36.485371
68.735 36.329239
68.740 35.713505
68.745 35.16304
68.750 35.037991
68.755 34.99102
68.760 33.632145
68.765 32.842896
68.770 33.164997
68.775 33.112514
68.780 33.317635
68.785 33.068977
68.790 33.119221
68.795 32.720047
68.800 32.328194
68.805 31.212337
68.810 31.026571
68.815 30.602783
68.820 30.508448
68.825 30.147633
68.830 31.34469
68.835 32.117859
68.840 32.464859
68.845 32.345486
68.850 32.326145
68.855 32.552536
68.860 32.520828
68.865 32.16391
68.870 31.999605
68.875 32.256203
68.880 32.424362
68.885 31.970186
68.890 31.83993
68.895 32.403507
68.900 32.356907
68.905 31.797785
68.910 31.138828
68.915 31.138416
68.920 30.696676
68.925 30.780876
68.930 30.080824
68.935 29.601116
68.940 30.000999
68.945 30.06448
68.950 30.559343
68.955 30.139341
68.960 29.840427
68.965 29.32761
68.970 28.849537
68.975 28.136692
68.980 28.106903
68.985 28.59269
68.990 29.466766
68.995 29.412823
69.000 29.527706
69.005 29.310621
69.010 29.169605
69.015 28.284748
69.020 27.652132
69.025 27.522015
69.030 27.28618
69.035 26.772993
69.040 26.956245
69.045 27.315811
69.050 27.152954
69.055 26.543163
69.060 26.449636
69.065 26.394054
69.070 26.880327
69.075 27.142883
69.080 26.940918
69.085 27.654562
69.090 27.958361
69.095 27.490162
69.100 28.086039
69.105 27.104374
69.110 26.681623
69.115 26.337234
69.120 25.360107
69.125 25.091064
69.130 24.909184
69.135 24.213963
69.140 23.7777
69.145 22.900055
69.150 23.226311
69.155 23.549631
69.160 23.286026
69.165 22.874178
69.170 22.815975
69.175 23.054022
69.180 23.21685
69.185 23.260706
69.190 22.717566
69.195 22.768085
69.200 22.69223
69.205 22.526175
69.210 22.469866
69.215 21.737751
69.220 20.603678
69.225 20.089691
69.230 20.695314
69.235 21.339176
69.240 21.156128
69.245 20.634632
69.250 20.804119
69.255 21.076971
69.260 21.29702
69.265 20.68
69.270 20.466881
69.275 20.700827
69.280 21.480833
69.285 21.162918
69.290 21.580809
69.295 21.463951
69.300 21.272039
69.305 21.256845
69.310 21.264132
69.315 20.533558
69.320 20.664486
69.325 20.367979
69.330 20.27306
69.335 19.89085
69.340 19.408295
69.345 19.002563
69.350 19.025667
69.355 18.824221
69.360 18.465132
69.365 18.413937
69.370 18.540457
69.375 18.44775
69.380 18.366871
69.385 18.548891
69.390 18.913374
69.395 19.324602
69.400 19.779974
69.405 19.227896
69.410 19.086355
69.415 19.49456
69.420 19.007576
69.425 18.853123
69.430 18.559385
69.435 18.176405
69.440 18.720112
69.445 19.295357
69.450 19.531612
69.455 19.910791
69.460 19.600098
69.465 18.909578
69.470 18.73624
69.475 18.495752
69.480 18.474804
69.485 18.301804
69.490 18.193146
69.495 18.792036
69.500 19.34572
69.505 19.39341
69.510 19.417505
69.515 18.93074
69.520 18.357344
69.525 17.848227
69.530 17.632774
69.535 17.569044
69.540 17.856867
69.545 17.679554
69.550 18.230692
69.555 17.991608
69.560 18.094574
69.565 18.068705
69.570 18.105413
69.575 17.69269
69.580 17.184559
69.585 17.69911
69.590 18.705982
69.595 18.932961
69.600 18.834864
69.605 18.682739
69.610 19.078526
69.615 19.518299
69.620 19.045971
69.625 18.497732
69.630 18.442425
69.635 18.370884
69.640 18.33338
69.645 18.522181
69.650 18.287348
69.655 18.637457
69.660 18.788351
69.665 18.775909
69.670 18.716631
69.675 18.978304
69.680 19.090683
69.685 18.945124
69.690 18.623587
69.695 18.722435
69.700 18.351213
69.705 18.310637
69.710 18.058716
69.715 17.479591
69.720 18.047783
69.725 17.714512
69.730 17.630882
69.735 17.983049
69.740 17.981594
69.745 18.417147
69.750 18.941273
69.755 18.605316
69.760 18.812553
69.765 18.785585
69.770 19.115057
69.775 18.732296
69.780 18.321018
69.785 18.091766
69.790 18.153063
69.795 18.661644
69.800 18.748114
69.805 18.680454
69.810 19.000751
69.815 18.529394
69.820 18.635946
69.825 18.926146
69.830 18.501671
69.835 18.540178
69.840 18.520552
69.845 18.375647
69.850 18.308466
69.855 17.480738
69.860 16.701729
69.865 16.446339
69.870 16.066839
69.875 15.835185
69.880 16.005968
69.885 16.377384
69.890 16.355482
69.895 16.221056
69.900 16.134348
69.905 16.452652
69.910 17.113478
69.915 17.226622
69.920 17.306067
69.925 18.044607
69.930 17.797222
69.935 17.932339
69.940 17.586058
69.945 17.012016
69.950 17.161873
69.955 17.119148
69.960 16.826565
69.965 17.346201
69.970 17.250299
69.975 17.453735
69.980 17.221441
69.985 16.930609
69.990 17.550797
69.995 17.480473
70.000 17.601273
70.005 17.363443
70.010 17.254721
70.015 17.597567
70.020 17.474535
70.025 17.473932
70.030 17.64731
70.035 17.877129
70.040 18.142517
70.045 18.435808
70.050 18.556704
70.055 18.346504
70.060 17.991022
70.065 17.756607
70.070 17.566956
70.075 17.500277
70.080 17.249327
70.085 17.329351
70.090 17.193703
70.095 17.406633
70.100 18.165411
70.105 17.542261
70.110 17.349989
70.115 17.552805
70.120 17.892164
70.125 18.292374
70.130 18.236452
70.135 17.74161
70.140 17.840588
70.145 18.156887
70.150 18.135391
70.155 17.90205
70.160 17.555889
70.165 17.289478
70.170 17.498528
70.175 17.851139
70.180 17.708931
70.185 17.120226
70.190 17.090988
70.195 17.425219
70.200 17.7134
70.205 17.889919
70.210 17.904491
70.215 18.346178
70.220 18.313606
70.225 17.760065
70.230 17.098766
70.235 16.85783
70.240 16.775442
70.245 17.365332
70.250 17.28854
70.255 17.618607
70.260 17.790981
70.265 17.57996
70.270 17.871073
70.275 18.035254
70.280 17.240387
70.285 17.455187
70.290 17.927269
70.295 18.434217
70.300 18.798054
70.305 18.595833
70.310 18.402054
70.315 18.458483
70.320 17.982494
70.325 17.566393
70.330 17.426987
70.335 17.354082
70.340 17.873293
70.345 17.88431
70.350 18.080553
70.355 18.117813
70.360 18.054081
70.365 18.247921
70.370 18.435976
70.375 18.033943
70.380 18.245743
70.385 18.784672
70.390 18.936394
70.395 19.249857
70.400 19.483212
70.405 19.492323
70.410 19.247618
70.415 19.374334
70.420 18.973085
70.425 19.138021
70.430 18.211988
70.435 17.921764
70.440 18.403667
70.445 18.508675
70.450 17.865974
70.455 17.663069
70.460 17.60331
70.465 18.154961
70.470 18.265463
70.475 17.463921
70.480 16.995071
70.485 17.330404
70.490 17.453941
70.495 17.479706
70.500 17.179754
70.505 17.167261
70.510 17.370726
70.515 17.743362
70.520 18.234453
70.525 18.469784
70.530 18.067123
70.535 18.067528
70.540 17.785608
70.545 17.963667
70.550 17.87641
70.555 17.509298
70.560 17.303478
70.565 17.538845
70.570 17.628096
70.575 17.807091
70.580 17.723642
70.585 17.450205
70.590 17.295784
70.595 16.981398
70.600 17.059048
70.605 17.72979
70.610 17.635447
70.615 17.546965
70.620 17.808861
70.625 18.142086
70.630 18.457859
70.635 17.855501
70.640 17.356754
70.645 17.429558
70.650 17.459894
70.655 17.734667
70.660 17.249857
70.665 17.238277
70.670 17.550411
70.675 17.734697
70.680 17.851082
70.685 17.9709
70.690 17.376461
70.695 17.814489
70.700 17.914072
70.705 17.906782
70.710 17.769398
70.715 17.948172
70.720 18.156071
70.725 18.580931
70.730 18.342464
70.735 18.082945
70.740 18.424911
70.745 18.357555
70.750 18.337637
70.755 18.077597
70.760 18.079552
70.765 18.480785
70.770 18.424702
70.775 17.96876
70.780 18.219131
70.785 17.576725
70.790 17.667025
70.795 17.513443
70.800 17.668066
70.805 17.83671
70.810 17.638369
70.815 18.251152
70.820 19.174755
70.825 19.338369
70.830 19.693357
70.835 19.601885
70.840 19.426233
70.845 19.135431
70.850 18.436806
70.855 17.689369
70.860 17.451616
70.865 17.559809
70.870 17.815643
70.875 18.019543
70.880 18.582861
70.885 18.833902
70.890 18.878723
70.895 19.045567
70.900 18.523533
70.905 18.730045
70.910 18.469995
70.915 18.018848
70.920 17.509132
70.925 17.557615
70.930 17.257786
70.935 16.874582
70.940 16.886999
70.945 17.318859
70.950 17.596998
70.955 17.39773
70.960 17.065712
70.965 17.07733
70.970 17.502296
70.975 17.672152
70.980 17.661249
70.985 17.901365
70.990 18.070158
70.995 17.768076
71.000 17.735041
71.005 17.608278
71.010 17.578703
71.015 17.280483
71.020 17.842228
71.025 18.033922
71.030 18.460497
71.035 18.083757
71.040 17.688847
71.045 17.630781
71.050 17.683916
71.055 17.477808
71.060 17.253325
71.065 17.031483
71.070 17.305403
71.075 18.111326
71.080 17.849211
71.085 17.797012
71.090 18.170088
71.095 18.550898
71.100 18.886871
71.105 18.602869
71.110 17.463272
71.115 17.598475
71.120 17.237576
71.125 17.376984
71.130 18.066584
71.135 18.293827
71.140 18.503338
71.145 18.868908
71.150 18.774469
71.155 18.80304
71.160 18.257027
71.165 18.112278
71.170 18.680815
71.175 18.366529
71.180 18.327126
71.185 18.386765
71.190 18.627844
71.195 18.746645
71.200 18.292025
71.205 18.362234
71.210 18.40283
71.215 18.608044
71.220 18.705978
71.225 18.380579
71.230 18.488501
71.235 18.316769
71.240 18.245993
71.245 18.765656
71.250 18.855911
71.255 18.719503
71.260 18.449551
71.265 18.921963
71.270 18.746181
71.275 18.036934
71.280 17.385269
71.285 17.688166
71.290 17.875175
71.295 17.857786
71.300 17.380434
71.305 17.201124
71.310 17.593679
71.315 17.790333
71.320 17.951569
71.325 17.602543
71.330 17.924124
71.335 18.830793
71.340 19.381214
71.345 19.489832
71.350 19.412159
71.355 19.323425
71.360 20.159781
71.365 19.35343
71.370 18.414055
71.375 18.428865
71.380 18.696896
71.385 18.4454
71.390 18.055248
71.395 17.324118
71.400 17.748446
71.405 17.637165
71.410 17.911274
71.415 17.916637
71.420 18.281488
71.425 18.034382
71.430 18.2838
71.435 18.375086
71.440 18.045055
71.445 17.333998
71.450 16.638288
71.455 16.215309
71.460 16.874212
71.465 16.89612
71.470 16.955456
71.475 17.005894
71.480 17.5891
71.485 18.33182
71.490 18.415745
71.495 18.148985
71.500 18.219975
71.505 18.278978
71.510 18.19875
71.515 17.727631
71.520 17.573065
71.525 17.745037
71.530 17.9175
71.535 17.59584
71.540 17.618099
71.545 17.108839
71.550 17.031116
71.555 16.857191
71.560 16.646326
71.565 16.959177
71.570 16.455383
71.575 16.46875
71.580 17.166706
71.585 17.020086
71.590 17.346172
71.595 17.756063
71.600 17.554737
71.605 18.876837
71.610 19.314674
71.615 18.986792
71.620 19.228792
71.625 18.914894
71.630 18.417549
71.635 17.591148
71.640 16.574259
71.645 16.689125
71.650 16.898348
71.655 16.726715
71.660 16.965816
71.665 17.482927
71.670 18.09487
71.675 18.439066
71.680 18.560556
71.685 18.76025
71.690 18.881592
71.695 18.768436
71.700 18.979786
71.705 18.789497
71.710 18.431223
71.715 18.138107
71.720 17.957575
71.725 17.790527
71.730 18.22831
71.735 18.210564
71.740 17.617786
71.745 17.90308
71.750 18.105515
71.755 18.648907
71.760 18.623053
71.765 18.187429
71.770 18.076023
71.775 18.20472
71.780 17.756218
71.785 17.63007
71.790 17.325392
71.795 17.79487
71.800 17.317787
71.805 17.756939
71.810 18.311928
71.815 17.910702
71.820 17.810125
71.825 16.909351
71.830 16.505697
71.835 16.88356
71.840 16.626305
71.845 16.564062
71.850 17.157703
71.855 17.158733
71.860 17.512568
71.865 17.953821
71.870 17.211906
71.875 17.697498
71.880 17.943523
71.885 18.261335
71.890 18.647625
71.895 18.536409
71.900 18.651628
71.905 19.286057
71.910 18.996977
71.915 19.09128
71.920 19.181328
71.925 19.043716
71.930 18.987772
71.935 18.795149
71.940 18.535011
71.945 18.034027
71.950 17.323326
71.955 16.931837
71.960 17.607887
71.965 17.66654
71.970 17.806002
71.975 18.016882
71.980 18.831709
71.985 19.365633
71.990 19.493872
71.995 19.047747
72.000 19.055651
72.005 18.788918
72.010 18.869555
72.015 18.788206
72.020 18.532303
72.025 18.371017
72.030 17.342525
72.035 17.581808
72.040 17.599688
72.045 16.924477
72.050 16.41651
72.055 15.716125
72.060 15.987438
72.065 16.119204
72.070 15.557571
72.075 15.051515
72.080 14.750679
72.085 14.865158
72.090 15.166316
72.095 15.508173
72.100 15.933441
72.105 16.066372
72.110 16.428497
72.115 17.044489
72.120 17.138264
72.125 17.266829
72.130 16.86064
72.135 17.167824
72.140 17.909296
72.145 17.840647
72.150 17.692682
72.155 17.657299
72.160 17.521214
72.165 17.65921
72.170 17.627331
72.175 17.261732
72.180 17.19121
72.185 17.350178
72.190 17.545809
72.195 17.964087
72.200 17.4459
72.205 17.638954
72.210 17.535151
72.215 17.787754
72.220 17.322927
72.225 17.113495
72.230 16.997595
72.235 16.796467
72.240 17.004333
72.245 17.258181
72.250 17.270576
72.255 17.390989
72.260 16.970245
72.265 17.2593
72.270 17.382061
72.275 17.255623
72.280 17.290358
72.285 17.177059
72.290 17.964247
72.295 18.201742
72.300 18.27589
72.305 17.988007
72.310 17.892788
72.315 17.877567
72.320 17.782171
72.325 17.006632
72.330 17.432529
72.335 17.431824
72.340 17.726175
72.345 17.708559
72.350 18.220224
72.355 18.213594
72.360 17.80986
72.365 17.584301
72.370 17.17952
72.375 17.083551
72.380 16.790787
72.385 16.139116
72.390 16.236609
72.395 16.759945
72.400 16.861706
72.405 17.072451
72.410 16.939701
72.415 17.517803
72.420 17.840776
72.425 17.537889
72.430 17.4856
72.435 17.395527
72.440 17.546137
72.445 17.682322
72.450 17.292908
72.455 17.866726
72.460 18.145351
72.465 18.327459
72.470 18.326422
72.475 18.347454
72.480 18.599228
72.485 18.236034
72.490 18.02453
72.495 17.98962
72.500 17.718191
72.505 17.801807
72.510 17.497051
72.515 17.184723
72.520 17.919998
72.525 17.548817
72.530 17.767481
72.535 18.317162
72.540 18.342041
72.545 17.924765
72.550 17.488476
72.555 17.359535
72.560 17.717663
72.565 17.235271
72.570 16.944666
72.575 17.441256
72.580 18.301645
72.585 18.392508
72.590 18.040026
72.595 17.489563
72.600 17.915688
72.605 17.627764
72.610 16.709623
72.615 16.433819
72.620 17.317442
72.625 17.815121
72.630 17.947086
72.635 17.42701
72.640 17.442751
72.645 17.455437
72.650 17.565292
72.655 16.86845
72.660 16.74299
72.665 17.336424
72.670 17.241112
72.675 17.287594
72.680 16.866823
72.685 16.516794
72.690 16.76897
72.695 16.537493
72.700 16.405607
72.705 16.379429
72.710 16.856873
72.715 17.211813
72.720 16.975204
72.725 16.883593
72.730 16.81744
72.735 16.638258
72.740 16.674435
72.745 16.508097
72.750 16.859055
72.755 17.203518
72.760 17.192959
72.765 17.528261
72.770 17.36739
72.775 17.193752
72.780 17.120031
72.785 16.871943
72.790 16.600304
72.795 16.139643
72.800 16.553936
72.805 16.872992
72.810 16.818111
72.815 16.834984
72.820 16.511951
72.825 16.104208
72.830 15.457201
72.835 15.159769
72.840 15.068223
72.845 15.269978
72.850 15.27817
72.855 16.177229
72.860 17.28548
72.865 17.779911
72.870 17.805967
72.875 17.747786
72.880 17.293255
72.885 16.729069
72.890 16.009098
72.895 16.0299
72.900 15.90717
72.905 15.529743
72.910 16.019953
72.915 16.540083
72.920 17.47945
72.925 17.39686
72.930 17.42494
72.935 17.367168
72.940 17.454319
72.945 17.153385
72.950 17.010429
72.955 16.874979
72.960 16.29665
72.965 16.508854
72.970 17.116077
72.975 17.175549
72.980 17.27186
72.985 16.918688
72.990 17.072056
72.995 17.036036
73.000 16.661068
