!@!!GADDS PLOTSO FILE: Chi integration type
!@!!Title/SampleName: map-d4
!@!!Comment: ?
!@!!User: Bruker Instrument Administrator
!@!!Site: University of Illinois Chicago
!@!!Frame: map-d4_01_000.gfrm
!@!!Wavelengths    1.54184   1.54056   1.54439
!@!!Frame angles: 2Theta: 63.000 Omega: 50.000 Phi: 0.000 Chi: 90.000
!@!!Integration range: 2Theta: 53.000 to 73.000  Gamma: -105.000 to -75.000
!@!!Integration method: bin normalized
!@!N
!@!SS
!@!M
!@!L 0.0 0.0 0.0 0.0
!@!XDegrees
!@!YCounts
53.000 7.456741
53.005 7.412664
53.010 7.630003
53.015 7.702267
53.020 7.729001
53.025 8.157198
53.030 8.202601
53.035 7.983276
53.040 7.946741
53.045 8.224529
53.050 8.164952
53.055 7.704247
53.060 7.445105
53.065 7.310027
53.070 7.03021
53.075 6.880379
53.080 6.463462
53.085 6.265528
53.090 6.252958
53.095 6.386986
53.100 6.876681
53.105 7.001434
53.110 7.047873
53.115 6.797339
53.120 6.841467
53.125 6.615718
53.130 6.377904
53.135 6.318575
53.140 7.154712
53.145 7.253741
53.150 7.762673
53.155 8.366156
53.160 8.399656
53.165 8.292283
53.170 8.188143
53.175 7.752808
53.180 7.455421
53.185 7.301055
53.190 7.064482
53.195 7.28218
53.200 7.529061
53.205 7.520307
53.210 7.284521
53.215 7.178465
53.220 7.173096
53.225 7.516298
53.230 7.550196
53.235 7.612038
53.240 7.786954
53.245 8.275391
53.250 8.744159
53.255 8.463607
53.260 8.178617
53.265 8.241694
53.270 8.015199
53.275 8.060968
53.280 7.86522
53.285 7.539834
53.290 7.214627
53.295 7.022293
53.300 7.061167
53.305 7.301745
53.310 7.03372
53.315 7.209829
53.320 7.395459
53.325 7.590584
53.330 7.930153
53.335 8.085975
53.340 8.122448
53.345 7.997398
53.350 8.049306
53.355 8.570515
53.360 9.03419
53.365 8.723549
53.370 8.586105
53.375 8.578554
53.380 8.29173
53.385 8.427413
53.390 7.99332
53.395 7.718895
53.400 7.735803
53.405 7.617028
53.410 7.781257
53.415 8.341985
53.420 7.86095
53.425 7.808344
53.430 7.736394
53.435 8.02776
53.440 8.176667
53.445 7.899868
53.450 7.713601
53.455 7.910417
53.460 8.104752
53.465 7.903422
53.470 7.576272
53.475 7.49363
53.480 7.746987
53.485 7.912443
53.490 8.16653
53.495 8.104813
53.500 8.36982
53.505 8.466172
53.510 8.648967
53.515 8.793934
53.520 8.616875
53.525 8.482825
53.530 8.486511
53.535 8.880538
53.540 8.993563
53.545 8.803322
53.550 9.057365
53.555 9.107292
53.560 9.687313
53.565 9.777336
53.570 9.772127
53.575 9.914259
53.580 10.04309
53.585 9.56047
53.590 9.200294
53.595 8.700295
53.600 8.464509
53.605 8.157148
53.610 8.000825
53.615 7.553453
53.620 7.576119
53.625 8.545825
53.630 8.96308
53.635 9.469305
53.640 9.993831
53.645 10.265532
53.650 10.622674
53.655 10.381476
53.660 9.518251
53.665 9.184256
53.670 8.766135
53.675 8.205537
53.680 7.902002
53.685 7.807353
53.690 7.891467
53.695 7.90624
53.700 8.042378
53.705 8.01765
53.710 7.997932
53.715 8.226552
53.720 8.11093
53.725 8.170033
53.730 8.15934
53.735 8.148848
53.740 8.192387
53.745 8.194503
53.750 8.202469
53.755 8.283262
53.760 8.158553
53.765 8.263361
53.770 8.703215
53.775 9.056164
53.780 9.380409
53.785 9.672285
53.790 9.816012
53.795 10.112279
53.800 10.193343
53.805 10.114236
53.810 10.23912
53.815 10.220199
53.820 10.320038
53.825 10.238522
53.830 10.025282
53.835 9.499818
53.840 9.069905
53.845 9.000854
53.850 8.926851
53.855 8.677302
53.860 8.714271
53.865 8.693803
53.870 9.019973
53.875 9.210225
53.880 8.870394
53.885 8.560249
53.890 8.449605
53.895 8.237307
53.900 8.003853
53.905 8.027073
53.910 7.826606
53.915 7.938536
53.920 8.409964
53.925 8.484749
53.930 8.817992
53.935 8.8415
53.940 8.711082
53.945 9.274146
53.950 9.377833
53.955 9.262333
53.960 9.424932
53.965 9.381095
53.970 9.435291
53.975 9.158313
53.980 8.74717
53.985 9.032016
53.990 8.599871
53.995 8.436139
54.000 8.615005
54.005 8.488919
54.010 9.30311
54.015 9.2612
54.020 9.249726
54.025 9.880552
54.030 10.609555
54.035 11.350712
54.040 11.343213
54.045 10.804736
54.050 10.454819
54.055 10.171934
54.060 9.804599
54.065 8.930386
54.070 8.412723
54.075 8.668637
54.080 9.051407
54.085 9.047209
54.090 9.296066
54.095 9.50375
54.100 9.592069
54.105 9.243171
54.110 8.856746
54.115 8.719979
54.120 8.891836
54.125 8.830254
54.130 8.496405
54.135 9.297962
54.140 9.87813
54.145 10.27734
54.150 10.352231
54.155 10.317985
54.160 9.898713
54.165 10.085014
54.170 9.590751
54.175 9.705441
54.180 9.638872
54.185 9.846187
54.190 10.141682
54.195 10.465537
54.200 10.509604
54.205 10.348236
54.210 9.676274
54.215 9.667357
54.220 9.515152
54.225 9.524471
54.230 9.476768
54.235 9.355302
54.240 9.563524
54.245 9.259789
54.250 9.656634
54.255 9.558483
54.260 9.758158
54.265 9.754456
54.270 9.762794
54.275 10.021257
54.280 10.490114
54.285 10.361026
54.290 10.30091
54.295 9.879519
54.300 9.923479
54.305 10.093883
54.310 9.631789
54.315 9.629931
54.320 9.71975
54.325 10.151027
54.330 10.470281
54.335 10.331534
54.340 10.239871
54.345 10.816992
54.350 10.499123
54.355 10.21013
54.360 9.583076
54.365 9.346951
54.370 9.085259
54.375 9.157556
54.380 8.637007
54.385 8.417157
54.390 8.704685
54.395 9.164915
54.400 9.143614
54.405 9.316993
54.410 9.148122
54.415 9.490963
54.420 9.853587
54.425 9.654277
54.430 9.2786
54.435 9.182248
54.440 9.361421
54.445 9.510985
54.450 9.19855
54.455 9.333103
54.460 9.694822
54.465 10.286455
54.470 10.527935
54.475 10.627006
54.480 10.550179
54.485 10.390822
54.490 9.558048
54.495 9.281684
54.500 9.179508
54.505 9.201144
54.510 9.215117
54.515 9.027767
54.520 9.20507
54.525 9.868477
54.530 9.92974
54.535 9.875946
54.540 9.850837
54.545 9.865534
54.550 10.178404
54.555 10.101974
54.560 9.886309
54.565 9.598903
54.570 9.129869
54.575 9.378996
54.580 9.364783
54.585 9.498201
54.590 9.259613
54.595 9.016887
54.600 9.564351
54.605 9.580644
54.610 9.170575
54.615 9.333477
54.620 9.264009
54.625 9.548556
54.630 9.999525
54.635 9.834401
54.640 9.564253
54.645 9.855714
54.650 9.699063
54.655 9.563327
54.660 9.63553
54.665 9.312935
54.670 9.353095
54.675 9.877818
54.680 9.433838
54.685 9.252235
54.690 9.013641
54.695 8.716754
54.700 8.737246
54.705 8.876792
54.710 8.582076
54.715 8.996697
54.720 9.284568
54.725 9.425832
54.730 9.331994
54.735 9.290099
54.740 9.413659
54.745 9.28201
54.750 9.122872
54.755 9.272851
54.760 9.840174
54.765 10.143128
54.770 9.974278
54.775 10.073256
54.780 10.452316
54.785 10.457007
54.790 10.077599
54.795 9.770477
54.800 9.41529
54.805 9.173531
54.810 9.31216
54.815 9.247128
54.820 9.407244
54.825 9.704395
54.830 9.866503
54.835 10.138436
54.840 10.401406
54.845 10.398787
54.850 10.166203
54.855 9.877433
54.860 9.623339
54.865 9.360831
54.870 9.382298
54.875 9.497995
54.880 9.675339
54.885 9.930655
54.890 10.281656
54.895 10.421019
54.900 10.787913
54.905 10.807192
54.910 9.988893
54.915 9.747525
54.920 10.13767
54.925 10.197317
54.930 10.215933
54.935 10.528466
54.940 11.149118
54.945 11.474303
54.950 11.542574
54.955 11.17377
54.960 11.356754
54.965 11.43715
54.970 10.896514
54.975 10.985755
54.980 10.934054
54.985 11.067823
54.990 11.231215
54.995 10.732526
55.000 10.498043
55.005 10.468363
55.010 10.301462
55.015 10.258514
55.020 9.960454
55.025 9.739098
55.030 10.064178
55.035 10.055476
55.040 9.890438
55.045 9.719839
55.050 9.774916
55.055 10.012748
55.060 10.793118
55.065 11.096373
55.070 11.349089
55.075 11.958693
55.080 12.452904
55.085 12.862038
55.090 12.669608
55.095 12.050967
55.100 11.992433
55.105 12.035336
55.110 11.834238
55.115 11.247184
55.120 10.961729
55.125 10.737531
55.130 10.765439
55.135 10.922406
55.140 10.859798
55.145 10.955297
55.150 10.982111
55.155 11.123559
55.160 11.649529
55.165 11.491243
55.170 11.019674
55.175 10.891262
55.180 10.941227
55.185 10.936008
55.190 10.32687
55.195 9.631629
55.200 9.490826
55.205 9.351655
55.210 9.116458
55.215 9.054942
55.220 9.150157
55.225 9.074244
55.230 9.200921
55.235 9.245221
55.240 9.32194
55.245 9.006386
55.250 8.76462
55.255 8.34881
55.260 8.599854
55.265 9.209085
55.270 9.101641
55.275 9.26071
55.280 9.84391
55.285 10.004266
55.290 10.013072
55.295 10.135317
55.300 9.57073
55.305 9.585392
55.310 9.550678
55.315 9.023069
55.320 9.113671
55.325 9.619871
55.330 9.561943
55.335 9.957032
55.340 9.887514
55.345 9.794913
55.350 10.15168
55.355 10.398642
55.360 10.112599
55.365 10.079234
55.370 10.078108
55.375 10.570491
55.380 10.712173
55.385 10.899809
55.390 11.18646
55.395 11.606288
55.400 12.121542
55.405 11.84137
55.410 11.501643
55.415 10.957147
55.420 10.374806
55.425 10.100988
55.430 9.377312
55.435 8.945246
55.440 9.596061
55.445 10.02456
55.450 10.354517
55.455 10.616008
55.460 10.489999
55.465 10.576722
55.470 10.653257
55.475 10.495932
55.480 10.376186
55.485 10.537575
55.490 10.547977
55.495 10.372005
55.500 10.784377
55.505 10.555767
55.510 10.390708
55.515 11.049002
55.520 11.412545
55.525 11.255304
55.530 11.427032
55.535 11.382734
55.540 11.62715
55.545 11.781668
55.550 11.492414
55.555 11.509297
55.560 11.834157
55.565 11.689061
55.570 11.237815
55.575 10.922319
55.580 10.742208
55.585 10.250157
55.590 10.090517
55.595 9.967864
55.600 10.025489
55.605 10.093876
55.610 10.208036
55.615 9.874027
55.620 9.876754
55.625 9.689887
55.630 10.285327
55.635 10.555335
55.640 10.813295
55.645 10.255186
55.650 10.166456
55.655 10.295277
55.660 9.969439
55.665 9.961226
55.670 9.450523
55.675 9.189848
55.680 9.54961
55.685 10.406028
55.690 10.884424
55.695 11.03245
55.700 10.952971
55.705 11.710094
55.710 12.175318
55.715 12.19909
55.720 11.637041
55.725 11.149117
55.730 11.151703
55.735 10.84255
55.740 10.15626
55.745 10.262241
55.750 10.809715
55.755 10.91304
55.760 11.049734
55.765 11.184128
55.770 11.282916
55.775 11.625507
55.780 11.284576
55.785 11.182009
55.790 11.158466
55.795 11.039681
55.800 11.02969
55.805 10.811454
55.810 10.574354
55.815 10.79682
55.820 10.844274
55.825 10.810008
55.830 10.421231
55.835 10.580401
55.840 10.846622
55.845 11.184196
55.850 11.036689
55.855 10.925399
55.860 11.506596
55.865 11.960471
55.870 11.528006
55.875 11.651178
55.880 11.335713
55.885 11.755671
55.890 11.658476
55.895 11.250855
55.900 10.92243
55.905 11.060807
55.910 11.404254
55.915 11.360785
55.920 11.42775
55.925 11.297462
55.930 11.953465
55.935 12.018423
55.940 12.021502
55.945 12.234356
55.950 12.514972
55.955 12.197501
55.960 12.397586
55.965 11.870636
55.970 12.010909
55.975 12.192312
55.980 11.828054
55.985 11.841093
55.990 11.537164
55.995 11.298968
56.000 11.566253
56.005 11.518032
56.010 10.918004
56.015 10.551702
56.020 10.374099
56.025 10.180676
56.030 9.967114
56.035 9.859104
56.040 9.885991
56.045 9.831718
56.050 10.206723
56.055 10.438853
56.060 10.539389
56.065 10.898427
56.070 10.830684
56.075 11.102069
56.080 11.934662
56.085 11.883843
56.090 12.128718
56.095 12.273116
56.100 12.365637
56.105 12.596301
56.110 12.355721
56.115 11.699136
56.120 11.691257
56.125 11.774846
56.130 11.517263
56.135 11.383433
56.140 11.56017
56.145 11.866135
56.150 11.867689
56.155 11.867621
56.160 12.137718
56.165 12.249454
56.170 12.337658
56.175 12.19316
56.180 12.117504
56.185 11.914357
56.190 11.808132
56.195 11.562548
56.200 11.505033
56.205 11.416157
56.210 11.296862
56.215 11.06154
56.220 11.072256
56.225 11.232824
56.230 11.352204
56.235 11.898226
56.240 11.968801
56.245 11.944259
56.250 12.506515
56.255 12.757722
56.260 12.556137
56.265 12.782459
56.270 12.673807
56.275 13.082946
56.280 13.224238
56.285 12.825979
56.290 12.396114
56.295 12.582754
56.300 12.039541
56.305 11.949608
56.310 11.656736
56.315 11.40717
56.320 11.489299
56.325 11.187871
56.330 11.205124
56.335 11.435081
56.340 11.00857
56.345 10.628569
56.350 10.619587
56.355 10.2635
56.360 10.157408
56.365 9.86119
56.370 9.539944
56.375 9.037577
56.380 8.999796
56.385 9.319974
56.390 9.948884
56.395 10.098606
56.400 10.489203
56.405 10.365452
56.410 10.707071
56.415 10.692984
56.420 10.715925
56.425 10.865603
56.430 11.16685
56.435 10.921899
56.440 11.029582
56.445 11.14924
56.450 11.140397
56.455 10.767034
56.460 10.835723
56.465 10.550389
56.470 11.023789
56.475 11.643789
56.480 11.645809
56.485 11.989316
56.490 11.871992
56.495 11.779211
56.500 11.845205
56.505 11.420628
56.510 11.182735
56.515 11.053652
56.520 11.176202
56.525 11.591468
56.530 11.675035
56.535 11.565466
56.540 11.555821
56.545 11.617531
56.550 11.749713
56.555 11.898877
56.560 11.912283
56.565 11.387711
56.570 11.19295
56.575 11.5578
56.580 11.784301
56.585 11.691445
56.590 11.410067
56.595 11.423677
56.600 11.514387
56.605 11.659857
56.610 11.24622
56.615 10.850946
56.620 10.41862
56.625 10.02781
56.630 10.326937
56.635 10.581414
56.640 10.638789
56.645 11.060447
56.650 11.490206
56.655 11.902989
56.660 12.160848
56.665 12.30883
56.670 12.759211
56.675 13.029397
56.680 12.548573
56.685 12.467352
56.690 12.796493
56.695 12.949494
56.700 12.704781
56.705 12.26385
56.710 12.186782
56.715 12.370167
56.720 12.437448
56.725 12.301699
56.730 11.989379
56.735 11.597458
56.740 11.846649
56.745 11.857608
56.750 12.122575
56.755 12.032014
56.760 12.080379
56.765 12.493808
56.770 12.969919
56.775 13.026167
56.780 12.971168
56.785 12.923784
56.790 12.975239
56.795 13.000615
56.800 13.012516
56.805 12.744346
56.810 12.334265
56.815 11.817122
56.820 11.756576
56.825 11.779626
56.830 11.655328
56.835 11.62377
56.840 11.269579
56.845 11.179848
56.850 11.673637
56.855 11.889034
56.860 11.975567
56.865 11.58393
56.870 11.152774
56.875 11.06102
56.880 11.427399
56.885 11.51432
56.890 11.205062
56.895 11.015088
56.900 11.740734
56.905 12.434278
56.910 12.777913
56.915 12.650348
56.920 12.127516
56.925 12.225031
56.930 12.072231
56.935 11.738153
56.940 11.368924
56.945 11.481021
56.950 11.333911
56.955 11.695208
56.960 11.958006
56.965 12.379216
56.970 12.675403
56.975 12.953259
56.980 12.707217
56.985 12.925108
56.990 12.358149
56.995 11.790998
57.000 11.528454
57.005 11.82144
57.010 12.214869
57.015 12.403874
57.020 12.272101
57.025 12.58153
57.030 12.474561
57.035 11.814383
57.040 10.51832
57.045 10.115325
57.050 10.175184
57.055 10.20274
57.060 10.548352
57.065 11.302708
57.070 12.167589
57.075 12.393955
57.080 12.68934
57.085 12.733105
57.090 12.99349
57.095 13.217447
57.100 13.070924
57.105 13.10789
57.110 13.326118
57.115 13.026718
57.120 12.949878
57.125 13.019895
57.130 12.627272
57.135 12.539514
57.140 12.144479
57.145 12.270431
57.150 12.849194
57.155 12.638152
57.160 12.090741
57.165 12.415397
57.170 12.600006
57.175 12.923246
57.180 12.389109
57.185 12.155118
57.190 12.517607
57.195 12.691379
57.200 12.288593
57.205 11.7025
57.210 11.858117
57.215 12.00835
57.220 11.949883
57.225 11.970801
57.230 12.023827
57.235 12.182415
57.240 12.575745
57.245 13.017124
57.250 13.041262
57.255 12.96564
57.260 12.837229
57.265 12.90903
57.270 12.74342
57.275 12.824801
57.280 11.755186
57.285 11.857055
57.290 11.847612
57.295 11.840692
57.300 11.785997
57.305 12.004479
57.310 11.733492
57.315 12.300049
57.320 12.677067
57.325 12.688411
57.330 13.149706
57.335 13.400654
57.340 13.246173
57.345 13.288375
57.350 13.256057
57.355 13.030093
57.360 12.929152
57.365 13.026527
57.370 13.201005
57.375 13.410892
57.380 13.967415
57.385 14.451949
57.390 14.864131
57.395 15.267274
57.400 15.192803
57.405 15.183775
57.410 15.192982
57.415 15.241074
57.420 14.867655
57.425 13.977988
57.430 13.345256
57.435 12.934086
57.440 13.14902
57.445 12.980609
57.450 12.474959
57.455 12.44693
57.460 12.795741
57.465 13.074703
57.470 12.998824
57.475 12.957992
57.480 12.942905
57.485 13.010756
57.490 13.282723
57.495 13.318954
57.500 13.130112
57.505 13.191588
57.510 12.897968
57.515 12.861963
57.520 12.725715
57.525 12.498491
57.530 12.578937
57.535 12.090222
57.540 11.639328
57.545 12.065389
57.550 12.261527
57.555 12.475227
57.560 12.310545
57.565 12.207952
57.570 12.503494
57.575 12.751171
57.580 12.564939
57.585 12.526194
57.590 12.873466
57.595 13.323582
57.600 13.492625
57.605 13.685972
57.610 13.072638
57.615 12.609847
57.620 12.649696
57.625 12.568488
57.630 12.048197
57.635 12.097803
57.640 12.583343
57.645 13.015189
57.650 13.486638
57.655 13.786
57.660 13.65909
57.665 13.858166
57.670 13.868982
57.675 13.546824
57.680 13.318569
57.685 12.892653
57.690 13.129306
57.695 13.983773
57.700 14.528288
57.705 14.534564
57.710 14.691203
57.715 15.220881
57.720 15.167688
57.725 14.45683
57.730 13.769587
57.735 13.547462
57.740 13.954081
57.745 14.125899
57.750 14.324625
57.755 14.298375
57.760 14.282487
57.765 14.332514
57.770 13.898705
57.775 13.788634
57.780 13.317847
57.785 12.926162
57.790 13.112276
57.795 13.485792
57.800 13.464365
57.805 13.505161
57.810 13.242478
57.815 13.444508
57.820 13.31358
57.825 12.787934
57.830 12.200172
57.835 12.472852
57.840 12.583222
57.845 12.707681
57.850 12.970798
57.855 12.96355
57.860 12.981617
57.865 13.034552
57.870 13.264768
57.875 13.54778
57.880 13.144265
57.885 12.804168
57.890 13.102426
57.895 13.577237
57.900 13.434257
57.905 13.096556
57.910 13.000314
57.915 13.475764
57.920 13.85375
57.925 13.637829
57.930 13.140038
57.935 13.443305
57.940 13.086581
57.945 13.435316
57.950 13.995367
57.955 14.065749
57.960 14.552181
57.965 14.672455
57.970 14.469481
57.975 14.792756
57.980 14.604375
57.985 13.361073
57.990 13.207186
57.995 13.009734
58.000 13.07283
58.005 12.434947
58.010 11.849086
58.015 11.676085
58.020 11.98865
58.025 12.116287
58.030 12.504951
58.035 12.857667
58.040 13.849037
58.045 14.571269
58.050 14.807169
58.055 14.781554
58.060 14.532449
58.065 14.264135
58.070 13.982925
58.075 13.61905
58.080 13.16715
58.085 13.007753
58.090 13.037394
58.095 12.792176
58.100 12.59128
58.105 12.479964
58.110 12.697675
58.115 12.965083
58.120 13.128243
58.125 13.06518
58.130 13.268476
58.135 13.348097
58.140 13.707256
58.145 14.016303
58.150 13.86894
58.155 14.127938
58.160 14.217988
58.165 14.00077
58.170 14.396504
58.175 14.263606
58.180 13.42526
58.185 13.444535
58.190 13.016317
58.195 13.148517
58.200 13.056999
58.205 12.562786
58.210 12.39301
58.215 12.683686
58.220 12.801849
58.225 12.86825
58.230 12.75915
58.235 12.921228
58.240 12.905331
58.245 12.576633
58.250 12.315112
58.255 12.179085
58.260 12.612714
58.265 13.221698
58.270 13.186094
58.275 13.200232
58.280 13.271065
58.285 13.774568
58.290 13.549436
58.295 12.69835
58.300 12.458551
58.305 13.158151
58.310 13.448392
58.315 13.661747
58.320 13.198108
58.325 13.427686
58.330 13.490999
58.335 13.317741
58.340 13.363175
58.345 13.181305
58.350 13.46982
58.355 13.895023
58.360 14.19153
58.365 14.846066
58.370 15.035313
58.375 14.761505
58.380 15.221752
58.385 15.246907
58.390 15.593971
58.395 15.502193
58.400 15.01988
58.405 14.752501
58.410 14.50956
58.415 14.103018
58.420 13.46968
58.425 13.010491
58.430 13.38084
58.435 14.092145
58.440 14.536603
58.445 14.658227
58.450 15.20533
58.455 15.833935
58.460 15.89389
58.465 15.464163
58.470 15.01856
58.475 14.623948
58.480 14.766307
58.485 14.312932
58.490 14.14538
58.495 14.541479
58.500 14.483019
58.505 14.527564
58.510 14.62807
58.515 14.686447
58.520 14.615992
58.525 14.69667
58.530 14.72664
58.535 14.857376
58.540 14.783396
58.545 14.771521
58.550 14.54828
58.555 14.880651
58.560 14.724895
58.565 14.052772
58.570 14.210017
58.575 14.019479
58.580 13.743943
58.585 13.749298
58.590 13.597645
58.595 13.845029
58.600 14.216686
58.605 14.063087
58.610 14.230311
58.615 14.65553
58.620 14.504368
58.625 14.833498
58.630 14.992751
58.635 14.901405
58.640 14.498807
58.645 14.73184
58.650 14.642542
58.655 14.767048
58.660 14.234328
58.665 14.324906
58.670 14.399321
58.675 14.571679
58.680 14.307681
58.685 14.455782
58.690 14.819023
58.695 15.055861
58.700 14.699075
58.705 15.134151
58.710 15.106432
58.715 15.580113
58.720 15.275858
58.725 15.21704
58.730 15.001321
58.735 14.43746
58.740 13.99582
58.745 14.553669
58.750 14.427899
58.755 14.389361
58.760 14.57
58.765 15.773016
58.770 16.858519
58.775 17.078585
58.780 16.752573
58.785 16.66201
58.790 16.870342
58.795 15.970833
58.800 14.652209
58.805 14.204126
58.810 14.377625
58.815 14.61942
58.820 15.079029
58.825 15.054522
58.830 15.278465
58.835 15.095566
58.840 15.070398
58.845 15.110206
58.850 14.602859
58.855 13.651821
58.860 13.513371
58.865 13.431319
58.870 13.374504
58.875 13.237061
58.880 13.10408
58.885 13.282954
58.890 13.624024
58.895 13.681108
58.900 14.250791
58.905 14.603456
58.910 14.521708
58.915 14.176393
58.920 14.547183
58.925 14.93945
58.930 14.524806
58.935 14.255084
58.940 14.615752
58.945 14.410773
58.950 14.476043
58.955 14.12574
58.960 14.358105
58.965 14.991055
58.970 14.974509
58.975 14.717807
58.980 15.250718
58.985 15.559519
58.990 15.368895
58.995 15.042875
59.000 14.929834
59.005 14.882665
59.010 15.111767
59.015 15.037104
59.020 14.617094
59.025 14.750213
59.030 14.598463
59.035 14.315602
59.040 14.357285
59.045 14.219621
59.050 14.54853
59.055 14.754332
59.060 14.623442
59.065 15.064425
59.070 14.983776
59.075 15.053825
59.080 15.039952
59.085 14.761381
59.090 14.835987
59.095 14.998078
59.100 14.855653
59.105 15.020946
59.110 14.853241
59.115 14.994883
59.120 15.548184
59.125 15.564495
59.130 15.57393
59.135 15.646643
59.140 15.978191
59.145 15.91415
59.150 15.512783
59.155 14.812886
59.160 15.030349
59.165 15.142394
59.170 15.742703
59.175 15.642898
59.180 15.80508
59.185 15.635443
59.190 15.708689
59.195 15.169258
59.200 14.60111
59.205 14.054236
59.210 14.189179
59.215 14.081929
59.220 14.328734
59.225 14.748084
59.230 15.48278
59.235 15.64729
59.240 15.711311
59.245 15.901855
59.250 16.058643
59.255 15.837142
59.260 15.19134
59.265 15.00712
59.270 15.383478
59.275 15.152717
59.280 14.751088
59.285 14.815556
59.290 14.97412
59.295 15.488753
59.300 15.091662
59.305 14.95523
59.310 14.706771
59.315 15.023779
59.320 14.984863
59.325 14.568054
59.330 14.847946
59.335 15.262486
59.340 15.30633
59.345 15.808595
59.350 15.437392
59.355 15.549041
59.360 16.111551
59.365 16.000898
59.370 16.169292
59.375 16.326069
59.380 15.856522
59.385 15.666878
59.390 16.289049
59.395 16.236458
59.400 16.71454
59.405 17.019566
59.410 17.542835
59.415 18.358944
59.420 18.741186
59.425 18.594746
59.430 18.422766
59.435 17.123596
59.440 16.60677
59.445 15.893952
59.450 15.988757
59.455 15.887728
59.460 16.062862
59.465 16.150282
59.470 16.529287
59.475 16.495081
59.480 16.413733
59.485 15.925521
59.490 16.138399
59.495 15.736325
59.500 15.654919
59.505 16.084961
59.510 16.167507
59.515 16.409178
59.520 16.419769
59.525 16.464849
59.530 16.476755
59.535 16.533623
59.540 16.560635
59.545 17.050419
59.550 17.216246
59.555 17.735826
59.560 17.599371
59.565 17.551407
59.570 17.175407
59.575 16.46487
59.580 15.968217
59.585 15.742024
59.590 15.174717
59.595 15.082842
59.600 15.495343
59.605 15.966552
59.610 16.659964
59.615 16.761623
59.620 17.10701
59.625 17.322933
59.630 17.3456
59.635 17.053125
59.640 17.081379
59.645 16.825367
59.650 16.619017
59.655 16.333433
59.660 16.551327
59.665 16.771803
59.670 16.288492
59.675 15.778132
59.680 15.471848
59.685 15.814816
59.690 16.11414
59.695 16.38422
59.700 16.883623
59.705 17.507746
59.710 17.82259
59.715 18.394032
59.720 18.159904
59.725 18.015875
59.730 17.222372
59.735 16.364607
59.740 16.547192
59.745 16.928097
59.750 16.993773
59.755 17.264923
59.760 17.500944
59.765 17.849842
59.770 18.259129
59.775 18.932848
59.780 18.993795
59.785 19.101851
59.790 18.972095
59.795 18.91511
59.800 19.233105
59.805 19.020458
59.810 18.539566
59.815 18.081488
59.820 17.730778
59.825 17.8822
59.830 17.836292
59.835 17.655991
59.840 18.086157
59.845 18.233242
59.850 18.203024
59.855 17.881889
59.860 17.989021
59.865 18.078953
59.870 18.155085
59.875 17.793539
59.880 17.513969
59.885 17.848549
59.890 18.491631
59.895 18.157419
59.900 17.905285
59.905 18.188501
59.910 18.012911
59.915 18.259121
59.920 18.270378
59.925 17.766628
59.930 17.997343
59.935 18.334776
59.940 18.175976
59.945 18.115862
59.950 17.495724
59.955 17.475945
59.960 17.38887
59.965 17.245136
59.970 16.791695
59.975 16.911657
59.980 17.03043
59.985 17.398073
59.990 17.590811
59.995 17.946859
60.000 18.58766
60.005 18.93861
60.010 19.138937
60.015 19.930258
60.020 20.061609
60.025 19.741108
60.030 20.087572
60.035 19.757185
60.040 19.903706
60.045 20.314493
60.050 20.391365
60.055 20.568054
60.060 20.300924
60.065 19.546648
60.070 19.319122
60.075 19.17532
60.080 18.976206
60.085 18.34877
60.090 18.529646
60.095 19.068638
60.100 19.271528
60.105 19.61636
60.110 19.569149
60.115 19.425337
60.120 20.352362
60.125 20.295242
60.130 20.083744
60.135 20.046452
60.140 19.667994
60.145 19.566416
60.150 19.400167
60.155 19.040386
60.160 19.073992
60.165 19.352962
60.170 19.437382
60.175 19.544672
60.180 19.848066
60.185 20.343224
60.190 20.009792
60.195 19.687582
60.200 19.278364
60.205 18.97316
60.210 18.590742
60.215 18.680695
60.220 17.81539
60.225 18.299292
60.230 18.335371
60.235 18.536068
60.240 19.21759
60.245 19.784048
60.250 19.240458
60.255 19.596546
60.260 19.035166
60.265 19.676945
60.270 20.345034
60.275 20.037071
60.280 19.878021
60.285 19.854738
60.290 19.957201
60.295 20.155005
60.300 19.70413
60.305 19.087322
60.310 18.935349
60.315 19.577036
60.320 19.666502
60.325 19.861416
60.330 20.175749
60.335 20.319942
60.340 20.90378
60.345 21.240101
60.350 20.423742
60.355 20.764648
60.360 20.696924
60.365 20.705563
60.370 20.398046
60.375 19.93491
60.380 19.852972
60.385 19.995949
60.390 19.78229
60.395 20.140438
60.400 20.413879
60.405 20.829006
60.410 21.248892
60.415 21.23469
60.420 20.816277
60.425 20.801136
60.430 19.814911
60.435 19.530352
60.440 19.704262
60.445 19.686142
60.450 19.818256
60.455 20.024857
60.460 19.645947
60.465 19.428999
60.470 18.543476
60.475 17.896288
60.480 17.655876
60.485 17.544477
60.490 17.574932
60.495 18.254164
60.500 19.307379
60.505 19.766567
60.510 19.301729
60.515 18.477449
60.520 18.430437
60.525 18.960464
60.530 18.470421
60.535 17.640907
60.540 17.450758
60.545 17.64712
60.550 17.936832
60.555 17.594507
60.560 16.540625
60.565 16.607746
60.570 17.103762
60.575 17.537058
60.580 17.803909
60.585 18.098684
60.590 18.637049
60.595 18.873024
60.600 18.89049
60.605 19.473906
60.610 18.920931
60.615 18.514313
60.620 19.029387
60.625 18.983603
60.630 19.328579
60.635 18.671785
60.640 18.195988
60.645 19.10173
60.650 19.602377
60.655 18.78978
60.660 18.367762
60.665 18.469273
60.670 18.909748
60.675 18.611868
60.680 18.100859
60.685 17.682381
60.690 18.212181
60.695 18.667381
60.700 18.056828
60.705 17.988802
60.710 18.265081
60.715 17.999086
60.720 17.970694
60.725 17.539818
60.730 17.644085
60.735 18.069723
60.740 18.047014
60.745 17.505617
60.750 17.433371
60.755 18.129133
60.760 18.883831
60.765 19.206425
60.770 19.057671
60.775 18.279678
60.780 18.116457
60.785 18.264042
60.790 17.776234
60.795 17.233091
60.800 16.46751
60.805 16.3552
60.810 16.9037
60.815 17.605745
60.820 17.927935
60.825 18.203691
60.830 18.150869
60.835 18.193922
60.840 18.345224
60.845 18.065804
60.850 17.827747
60.855 17.856218
60.860 17.129827
60.865 16.389635
60.870 16.513149
60.875 16.273172
60.880 16.555899
60.885 16.097439
60.890 15.637578
60.895 15.635341
60.900 15.96677
60.905 15.868718
60.910 15.904624
60.915 16.147453
60.920 16.585037
60.925 16.483374
60.930 16.916115
60.935 17.235229
60.940 17.662596
60.945 17.989038
60.950 17.424847
60.955 17.795427
60.960 17.788639
60.965 18.015184
60.970 17.943226
60.975 17.679373
60.980 17.378838
60.985 17.34968
60.990 16.557917
60.995 16.357744
61.000 16.210989
61.005 16.230656
61.010 16.48842
61.015 16.489212
61.020 17.275965
61.025 17.612144
61.030 17.483141
61.035 17.374235
61.040 17.245247
61.045 17.275892
61.050 17.470728
61.055 16.048807
61.060 16.283688
61.065 16.592682
61.070 16.008141
61.075 15.74863
61.080 15.891779
61.085 16.171658
61.090 17.510731
61.095 17.682901
61.100 17.864162
61.105 18.428526
61.110 18.819036
61.115 18.450178
61.120 17.805716
61.125 16.759237
61.130 16.59207
61.135 16.511335
61.140 16.292736
61.145 16.174355
61.150 15.775401
61.155 16.05579
61.160 16.285126
61.165 15.258972
61.170 14.54383
61.175 14.225869
61.180 14.228628
61.185 14.56267
61.190 14.456695
61.195 14.711554
61.200 15.536345
61.205 16.455482
61.210 17.067802
61.215 17.344843
61.220 17.504843
61.225 17.392939
61.230 17.486887
61.235 17.428823
61.240 16.849478
61.245 16.385378
61.250 16.164354
61.255 15.889521
61.260 16.145691
61.265 16.210316
61.270 16.154655
61.275 16.416035
61.280 16.653931
61.285 16.879332
61.290 17.267803
61.295 17.624243
61.300 17.661139
61.305 17.558956
61.310 17.538586
61.315 17.646652
61.320 17.768503
61.325 17.865046
61.330 17.465712
61.335 17.382687
61.340 17.777666
61.345 17.484375
61.350 17.380743
61.355 16.733337
61.360 16.388037
61.365 16.548216
61.370 16.04521
61.375 15.51867
61.380 15.599968
61.385 15.996865
61.390 16.118071
61.395 15.757992
61.400 15.130026
61.405 15.360929
61.410 15.951609
61.415 16.003513
61.420 15.543298
61.425 15.498579
61.430 15.79794
61.435 15.799224
61.440 16.010275
61.445 16.367069
61.450 16.960058
61.455 17.289518
61.460 17.420601
61.465 17.638657
61.470 17.461792
61.475 16.921074
61.480 16.359161
61.485 15.762168
61.490 15.702156
61.495 15.955814
61.500 15.994006
61.505 16.345205
61.510 16.344368
61.515 16.535492
61.520 16.633347
61.525 16.757355
61.530 16.95257
61.535 16.725187
61.540 16.763346
61.545 17.173422
61.550 16.628403
61.555 16.367607
61.560 16.826212
61.565 16.687637
61.570 16.794369
61.575 16.907728
61.580 16.82402
61.585 17.305061
61.590 17.493082
61.595 16.998108
61.600 16.973972
61.605 17.302902
61.610 17.510836
61.615 17.734896
61.620 18.297293
61.625 18.084972
61.630 18.04195
61.635 17.459667
61.640 16.589642
61.645 16.319044
61.650 16.213446
61.655 15.188384
61.660 15.203041
61.665 14.915666
61.670 15.680907
61.675 15.822734
61.680 15.840234
61.685 15.944788
61.690 16.179598
61.695 16.077932
61.700 15.866834
61.705 15.14363
61.710 15.157183
61.715 15.052239
61.720 14.774554
61.725 14.883795
61.730 15.576892
61.735 16.440216
61.740 17.388321
61.745 17.635056
61.750 17.94071
61.755 17.83765
61.760 18.035192
61.765 17.635765
61.770 16.905991
61.775 16.794968
61.780 16.965626
61.785 16.811102
61.790 16.885141
61.795 16.985119
61.800 16.831459
61.805 16.871988
61.810 16.907036
61.815 16.495886
61.820 16.506342
61.825 16.107414
61.830 15.725728
61.835 15.570634
61.840 15.467034
61.845 15.065212
61.850 15.134388
61.855 15.063389
61.860 15.583616
61.865 15.589536
61.870 15.62524
61.875 15.459268
61.880 15.740763
61.885 15.793237
61.890 15.79693
61.895 15.946278
61.900 17.04121
61.905 17.200432
61.910 17.35026
61.915 17.035368
61.920 16.99143
61.925 16.996807
61.930 16.719528
61.935 15.741204
61.940 15.535394
61.945 15.90953
61.950 16.690351
61.955 16.543947
61.960 16.534681
61.965 16.152493
61.970 16.396944
61.975 17.07939
61.980 16.633892
61.985 16.272202
61.990 16.467531
61.995 16.264214
62.000 16.5278
62.005 16.762625
62.010 16.703886
62.015 16.633213
62.020 16.337473
62.025 16.303305
62.030 16.078182
62.035 16.111021
62.040 15.346689
62.045 14.775408
62.050 15.116456
62.055 15.380074
62.060 15.139318
62.065 16.04212
62.070 16.038576
62.075 16.361277
62.080 16.423777
62.085 16.231504
62.090 16.252523
62.095 16.378269
62.100 15.360007
62.105 14.893722
62.110 15.002279
62.115 14.83754
62.120 15.120724
62.125 15.301963
62.130 15.85646
62.135 16.734653
62.140 16.762638
62.145 16.631655
62.150 17.034346
62.155 16.564516
62.160 16.69434
62.165 16.678741
62.170 16.57584
62.175 16.981106
62.180 17.456928
62.185 17.411522
62.190 17.237339
62.195 17.058056
62.200 16.721458
62.205 16.262207
62.210 16.325987
62.215 16.141535
62.220 15.926695
62.225 16.331614
62.230 16.117678
62.235 16.081663
62.240 16.616798
62.245 16.639217
62.250 16.29125
62.255 16.695456
62.260 16.469265
62.265 16.748537
62.270 16.25411
62.275 15.296118
62.280 14.832427
62.285 14.676286
62.290 13.926331
62.295 13.713788
62.300 13.607383
62.305 14.030174
62.310 14.520134
62.315 14.892931
62.320 15.191532
62.325 15.701068
62.330 15.638897
62.335 14.918962
62.340 14.372339
62.345 14.346548
62.350 14.396052
62.355 14.066738
62.360 13.810229
62.365 14.384881
62.370 15.363627
62.375 16.12406
62.380 16.024761
62.385 16.192434
62.390 16.554409
62.395 16.989185
62.400 17.253922
62.405 17.076284
62.410 17.084593
62.415 16.903698
62.420 16.57856
62.425 16.71958
62.430 16.610022
62.435 16.638203
62.440 16.253202
62.445 16.020029
62.450 16.471121
62.455 16.973932
62.460 16.780581
62.465 16.572037
62.470 16.210327
62.475 16.583094
62.480 16.793926
62.485 17.208038
62.490 17.095961
62.495 17.142382
62.500 16.85536
62.505 16.497231
62.510 16.323154
62.515 16.034363
62.520 15.172588
62.525 15.102064
62.530 14.456742
62.535 14.566638
62.540 14.76731
62.545 15.43212
62.550 15.167683
62.555 14.825551
62.560 14.403959
62.565 14.275505
62.570 14.525227
62.575 14.569304
62.580 14.076235
62.585 14.057591
62.590 14.329457
62.595 15.293435
62.600 15.562486
62.605 15.67771
62.610 15.628126
62.615 15.829499
62.620 16.20175
62.625 15.82028
62.630 15.533754
62.635 15.902268
62.640 16.170891
62.645 16.664097
62.650 16.899595
62.655 17.20599
62.660 17.519165
62.665 17.617924
62.670 17.71907
62.675 17.716351
62.680 17.430077
62.685 17.394783
62.690 17.364334
62.695 17.676912
62.700 17.618904
62.705 17.716072
62.710 17.506208
62.715 17.237595
62.720 17.109575
62.725 17.290146
62.730 17.256435
62.735 16.981249
62.740 16.699684
62.745 16.636154
62.750 16.969076
62.755 16.287025
62.760 15.624238
62.765 15.216975
62.770 15.357185
62.775 15.7363
62.780 15.603973
62.785 15.818231
62.790 16.343822
62.795 16.88159
62.800 17.569139
62.805 17.769091
62.810 17.839783
62.815 17.801359
62.820 17.832195
62.825 17.888451
62.830 17.668043
62.835 17.073479
62.840 16.547417
62.845 16.309294
62.850 16.410248
62.855 16.026783
62.860 16.307127
62.865 16.477947
62.870 16.280729
62.875 16.142618
62.880 15.994279
62.885 15.871646
62.890 15.481142
62.895 15.406844
62.900 15.701691
62.905 16.007568
62.910 16.847792
62.915 17.0839
62.920 16.872139
62.925 16.898069
62.930 16.432907
62.935 16.083139
62.940 15.509976
62.945 15.390017
62.950 15.981349
62.955 16.684851
62.960 16.989729
62.965 17.622631
62.970 17.851973
62.975 17.8629
62.980 17.280169
62.985 16.345583
62.990 15.998186
62.995 16.419987
63.000 15.631352
63.005 14.873487
63.010 15.341366
63.015 15.358375
63.020 15.641012
63.025 15.936924
63.030 15.516966
63.035 16.027893
63.040 16.510151
63.045 16.968288
63.050 17.261332
63.055 17.643833
63.060 17.704535
63.065 17.344128
63.070 17.703714
63.075 17.572765
63.080 17.121128
63.085 16.87141
63.090 16.69002
63.095 16.365566
63.100 16.637396
63.105 16.290714
63.110 15.792106
63.115 15.955281
63.120 15.786551
63.125 15.142283
63.130 15.468568
63.135 15.347608
63.140 15.453629
63.145 15.704071
63.150 15.439119
63.155 15.574021
63.160 16.058458
63.165 16.230373
63.170 16.059557
63.175 16.213923
63.180 15.80847
63.185 15.52227
63.190 15.550879
63.195 15.686726
63.200 15.687864
63.205 15.794645
63.210 15.89715
63.215 16.388788
63.220 16.493141
63.225 15.917681
63.230 15.66483
63.235 15.768629
63.240 15.384158
63.245 15.322128
63.250 15.7145
63.255 15.898895
63.260 16.220619
63.265 15.883586
63.270 15.668751
63.275 16.399591
63.280 17.005423
63.285 16.81497
63.290 16.800121
63.295 16.807293
63.300 16.903709
63.305 16.642506
63.310 16.358509
63.315 15.589037
63.320 15.787179
63.325 16.136166
63.330 16.265377
63.335 16.522581
63.340 16.672869
63.345 16.345858
63.350 16.714178
63.355 16.556507
63.360 16.052189
63.365 15.846013
63.370 15.549723
63.375 15.997653
63.380 16.426788
63.385 16.243561
63.390 16.58684
63.395 17.687456
63.400 18.082611
63.405 18.257553
63.410 17.959435
63.415 17.631895
63.420 18.362345
63.425 18.621044
63.430 17.883972
63.435 18.350594
63.440 18.89208
63.445 19.253248
63.450 19.589111
63.455 18.941387
63.460 18.309877
63.465 17.844931
63.470 17.764219
63.475 18.187433
63.480 18.272539
63.485 17.980247
63.490 17.836153
63.495 17.891544
63.500 18.258326
63.505 17.505587
63.510 17.125978
63.515 16.795279
63.520 16.422625
63.525 16.473871
63.530 16.348585
63.535 16.42865
63.540 16.418293
63.545 15.839994
63.550 15.739949
63.555 16.012205
63.560 16.241501
63.565 15.987172
63.570 15.673088
63.575 16.450176
63.580 16.231527
63.585 16.337637
63.590 16.250645
63.595 16.75602
63.600 17.606153
63.605 17.380352
63.610 16.651972
63.615 17.256449
63.620 17.552858
63.625 17.85807
63.630 16.859123
63.635 16.817247
63.640 17.042225
63.645 17.323027
63.650 16.70792
63.655 16.073193
63.660 16.157532
63.665 16.641548
63.670 17.049774
63.675 17.201786
63.680 16.988142
63.685 17.315214
63.690 17.768585
63.695 17.635506
63.700 17.457748
63.705 17.325953
63.710 17.474344
63.715 17.832518
63.720 18.257063
63.725 18.372236
63.730 18.320408
63.735 18.715307
63.740 18.932201
63.745 18.552319
63.750 18.440897
63.755 18.122959
63.760 18.089766
63.765 18.357847
63.770 17.864197
63.775 17.322609
63.780 17.371157
63.785 17.739384
63.790 18.13497
63.795 17.981979
63.800 17.090395
63.805 17.212723
63.810 17.281391
63.815 17.427555
63.820 16.876982
63.825 16.244614
63.830 16.02256
63.835 15.980776
63.840 15.972548
63.845 16.012718
63.850 15.815608
63.855 15.436491
63.860 15.555271
63.865 15.819448
63.870 16.431202
63.875 16.115013
63.880 15.525658
63.885 15.694885
63.890 16.184826
63.895 16.186396
63.900 16.144272
63.905 15.519633
63.910 15.902946
63.915 16.723017
63.920 17.088978
63.925 16.97534
63.930 17.215181
63.935 17.593006
63.940 18.177797
63.945 18.48786
63.950 18.16791
63.955 18.33802
63.960 18.906208
63.965 19.440975
63.970 19.452597
63.975 19.764948
63.980 18.984386
63.985 18.810579
63.990 18.513796
63.995 17.912169
64.000 17.928011
64.005 18.281271
64.010 18.273216
64.015 18.631065
64.020 18.675934
64.025 18.484251
64.030 19.094727
64.035 18.91547
64.040 18.603233
64.045 18.543062
64.050 18.478325
64.055 17.917755
64.060 17.96764
64.065 17.529306
64.070 17.396473
64.075 17.502995
64.080 17.347052
64.085 18.189764
64.090 18.740753
64.095 19.006767
64.100 18.604652
64.105 18.340414
64.110 17.920668
64.115 17.815596
64.120 17.220884
64.125 17.084927
64.130 16.95295
64.135 17.296095
64.140 17.129816
64.145 17.447605
64.150 17.778362
64.155 18.095905
64.160 18.108198
64.165 18.176657
64.170 17.692375
64.175 17.942123
64.180 17.365925
64.185 17.88372
64.190 17.815969
64.195 17.700596
64.200 17.748713
64.205 18.404968
64.210 18.380873
64.215 18.660086
64.220 17.285425
64.225 16.783161
64.230 16.621479
64.235 16.192892
64.240 15.972893
64.245 16.054613
64.250 16.218044
64.255 17.278578
64.260 17.466051
64.265 17.665833
64.270 17.70978
64.275 17.614594
64.280 17.687567
64.285 17.5375
64.290 17.310217
64.295 17.825872
64.300 17.723761
64.305 17.741282
64.310 17.965933
64.315 17.878086
64.320 17.822865
64.325 17.554356
64.330 17.159758
64.335 17.631193
64.340 17.899603
64.345 17.104788
64.350 16.977781
64.355 17.127682
64.360 17.166229
64.365 16.906111
64.370 16.779909
64.375 16.69989
64.380 17.735912
64.385 18.24675
64.390 18.364017
64.395 18.523611
64.400 18.559303
64.405 18.577183
64.410 19.308277
64.415 19.039604
64.420 18.743708
64.425 18.320164
64.430 18.230547
64.435 18.115252
64.440 18.611023
64.445 18.482298
64.450 18.304243
64.455 18.320211
64.460 18.557331
64.465 18.440886
64.470 18.085041
64.475 17.850861
64.480 17.312328
64.485 17.060608
64.490 17.042202
64.495 17.145998
64.500 17.924698
64.505 18.259165
64.510 17.982832
64.515 18.362988
64.520 19.262384
64.525 19.32612
64.530 19.139956
64.535 18.578613
64.540 18.9112
64.545 19.11059
64.550 18.803951
64.555 18.380951
64.560 18.987835
64.565 19.429735
64.570 19.697561
64.575 19.226013
64.580 18.830582
64.585 18.868713
64.590 18.48246
64.595 18.039301
64.600 18.155945
64.605 17.966269
64.610 18.114025
64.615 18.247662
64.620 18.244221
64.625 18.396374
64.630 18.145008
64.635 17.892311
64.640 17.838205
64.645 18.161228
64.650 18.183069
64.655 18.162876
64.660 17.995518
64.665 18.484285
64.670 18.624338
64.675 19.026339
64.680 18.754356
64.685 18.437611
64.690 18.459476
64.695 18.980997
64.700 18.545416
64.705 18.573687
64.710 18.848009
64.715 19.406233
64.720 19.761101
64.725 19.639883
64.730 19.567377
64.735 19.647833
64.740 19.543114
64.745 19.885658
64.750 19.554272
64.755 19.56119
64.760 19.781984
64.765 19.763445
64.770 19.472364
64.775 19.614986
64.780 18.885052
64.785 18.595842
64.790 18.611408
64.795 18.141209
64.800 17.919935
64.805 18.722675
64.810 19.343126
64.815 20.06093
64.820 20.028345
64.825 20.020519
64.830 20.475979
64.835 21.219423
64.840 21.092436
64.845 20.177649
64.850 19.109102
64.855 19.548567
64.860 20.349768
64.865 20.698339
64.870 20.015924
64.875 20.133932
64.880 21.031698
64.885 21.262266
64.890 21.346552
64.895 20.999043
64.900 21.214809
64.905 21.522572
64.910 21.193924
64.915 20.156685
64.920 19.953201
64.925 19.924454
64.930 19.844513
64.935 19.736588
64.940 19.955244
64.945 20.18483
64.950 21.317596
64.955 21.734636
64.960 21.556608
64.965 21.194794
64.970 20.87079
64.975 20.311476
64.980 19.780209
64.985 19.209925
64.990 19.051817
64.995 19.091106
65.000 19.500187
65.005 19.648481
65.010 19.956903
65.015 20.640362
65.020 22.286762
65.025 22.675854
65.030 22.63422
65.035 22.274817
65.040 22.586321
65.045 22.421906
65.050 22.272743
65.055 20.967106
65.060 20.690487
65.065 20.8428
65.070 21.565088
65.075 21.700907
65.080 21.608425
65.085 21.413092
65.090 21.434111
65.095 21.348759
65.100 20.660646
65.105 19.966927
65.110 19.706812
65.115 19.909061
65.120 20.284063
65.125 20.203121
65.130 20.527058
65.135 21.359047
65.140 21.437605
65.145 21.417196
65.150 21.245998
65.155 21.245417
65.160 21.595324
65.165 21.923712
65.170 21.827814
65.175 22.136734
65.180 22.521912
65.185 22.706175
65.190 22.887526
65.195 22.658066
65.200 22.352837
65.205 21.946115
65.210 21.619307
65.215 20.933407
65.220 20.832754
65.225 20.848646
65.230 21.393167
65.235 21.10778
65.240 21.583185
65.245 21.91165
65.250 22.274279
65.255 22.279247
65.260 22.478689
65.265 22.160477
65.270 22.436581
65.275 22.522566
65.280 23.114035
65.285 23.244709
65.290 23.056559
65.295 22.492653
65.300 22.204718
65.305 22.380304
65.310 22.019859
65.315 21.776728
65.320 22.0207
65.325 22.43609
65.330 22.444702
65.335 22.420219
65.340 22.457773
65.345 23.126928
65.350 23.194838
65.355 22.441061
65.360 22.18203
65.365 22.488798
65.370 22.627159
65.375 22.661154
65.380 22.512617
65.385 22.116695
65.390 22.257959
65.395 21.758448
65.400 21.864809
65.405 22.652433
65.410 22.758739
65.415 22.79258
65.420 23.591122
65.425 24.208776
65.430 24.694901
65.435 25.136631
65.440 25.40604
65.445 25.395098
65.450 25.173409
65.455 24.990276
65.460 25.075008
65.465 25.109392
65.470 24.933262
65.475 23.907473
65.480 24.133514
65.485 24.282784
65.490 24.172291
65.495 24.064564
65.500 24.113243
65.505 24.375307
65.510 25.304161
65.515 25.276659
65.520 25.359566
65.525 25.88727
65.530 26.537169
65.535 26.919916
65.540 26.59223
65.545 26.42454
65.550 26.490904
65.555 26.575466
65.560 25.98455
65.565 25.369959
65.570 25.277618
65.575 25.891781
65.580 26.186539
65.585 26.086353
65.590 26.652704
65.595 27.531898
65.600 27.920074
65.605 28.076361
65.610 27.879448
65.615 28.735796
65.620 29.280819
65.625 29.798269
65.630 30.178202
65.635 30.540728
65.640 30.541159
65.645 30.537445
65.650 30.31204
65.655 29.731253
65.660 29.331129
65.665 29.433071
65.670 29.872034
65.675 30.527893
65.680 31.351936
65.685 31.41053
65.690 31.964737
65.695 32.452351
65.700 32.825203
65.705 32.576469
65.710 32.536282
65.715 32.735352
65.720 33.340534
65.725 33.933979
65.730 33.761898
65.735 33.547985
65.740 33.375576
65.745 33.118233
65.750 33.400867
65.755 32.790604
65.760 32.706417
65.765 33.040993
65.770 33.335251
65.775 34.034843
65.780 34.72345
65.785 34.570606
65.790 34.784245
65.795 34.610756
65.800 34.865841
65.805 35.114269
65.810 35.702744
65.815 35.86919
65.820 36.270329
65.825 36.773563
65.830 37.571373
65.835 37.232334
65.840 37.080708
65.845 37.341957
65.850 36.923309
65.855 36.420826
65.860 36.550415
65.865 36.36134
65.870 36.922466
65.875 37.269096
65.880 36.495686
65.885 36.396214
65.890 37.088573
65.895 37.617874
65.900 38.038097
65.905 37.64555
65.910 37.49926
65.915 37.662258
65.920 37.612118
65.925 37.422894
65.930 36.725555
65.935 36.072872
65.940 36.933857
65.945 37.050106
65.950 37.478558
65.955 37.778564
65.960 38.219479
65.965 38.602558
65.970 38.712635
65.975 37.514816
65.980 36.755459
65.985 36.811363
65.990 36.472038
65.995 35.611256
66.000 35.37706
66.005 35.016872
66.010 35.43095
66.015 35.120735
66.020 35.044159
66.025 35.507465
66.030 35.070412
66.035 34.295818
66.040 34.185986
66.045 34.108521
66.050 33.850758
66.055 33.5695
66.060 32.862659
66.065 33.249538
66.070 33.0933
66.075 33.076859
66.080 32.539921
66.085 31.751755
66.090 31.072317
66.095 30.998178
66.100 31.089485
66.105 31.144239
66.110 30.384285
66.115 31.288202
66.120 32.921589
66.125 34.401802
66.130 35.637093
66.135 36.697952
66.140 37.217724
66.145 37.956455
66.150 37.321007
66.155 37.398689
66.160 37.291882
66.165 36.808258
66.170 35.187233
66.175 34.877853
66.180 34.856262
66.185 34.843582
66.190 34.441765
66.195 33.579052
66.200 32.951614
66.205 33.300304
66.210 34.207478
66.215 34.378895
66.220 34.052643
66.225 33.677483
66.230 34.459881
66.235 34.465034
66.240 33.757534
66.245 32.467861
66.250 32.325336
66.255 32.00666
66.260 31.37524
66.265 30.497164
66.270 30.209909
66.275 30.648987
66.280 30.696835
66.285 30.244799
66.290 29.985096
66.295 30.270596
66.300 30.359356
66.305 30.183102
66.310 30.213762
66.315 30.084841
66.320 30.129892
66.325 30.601185
66.330 30.340498
66.335 30.64712
66.340 30.350315
66.345 30.729231
66.350 30.81678
66.355 30.783142
66.360 30.430328
66.365 29.455839
66.370 29.551062
66.375 29.863646
66.380 29.609299
66.385 29.390882
66.390 29.489628
66.395 29.36104
66.400 29.206329
66.405 28.494707
66.410 27.696091
66.415 26.981869
66.420 27.645025
66.425 27.316353
66.430 27.707651
66.435 27.926344
66.440 27.723675
66.445 27.361544
66.450 26.794359
66.455 26.219681
66.460 25.87401
66.465 25.888744
66.470 26.157703
66.475 26.851662
66.480 27.671738
66.485 27.852779
66.490 28.045309
66.495 27.847847
66.500 27.440844
66.505 27.456329
66.510 27.351212
66.515 27.08625
66.520 27.654604
66.525 27.526882
66.530 27.418974
66.535 27.655991
66.540 27.144356
66.545 26.334747
66.550 26.133812
66.555 25.898211
66.560 25.794123
66.565 25.827383
66.570 25.855341
66.575 25.521807
66.580 25.309784
66.585 25.333378
66.590 25.225054
66.595 25.139765
66.600 24.966375
66.605 24.334448
66.610 25.002014
66.615 25.5634
66.620 25.452065
66.625 25.154867
66.630 24.887466
66.635 24.323076
66.640 25.033947
66.645 24.738266
66.650 24.30759
66.655 24.319002
66.660 24.110325
66.665 24.005642
66.670 24.208599
66.675 24.166924
66.680 24.010775
66.685 24.392138
66.690 24.142553
66.695 24.091879
66.700 24.306923
66.705 24.415159
66.710 23.816954
66.715 23.470715
66.720 23.116772
66.725 22.642218
66.730 22.49119
66.735 22.148926
66.740 21.946569
66.745 22.479504
66.750 23.052879
66.755 22.714046
66.760 23.122885
66.765 23.827766
66.770 23.821892
66.775 23.697468
66.780 23.505224
66.785 23.197208
66.790 23.857548
66.795 23.401428
66.800 23.418577
66.805 23.795586
66.810 23.600182
66.815 23.379126
66.820 23.737923
66.825 23.817383
66.830 24.572371
66.835 24.170219
66.840 25.302298
66.845 25.552954
66.850 25.240479
66.855 24.644159
66.860 23.60713
66.865 23.050993
66.870 23.148287
66.875 22.548058
66.880 22.244217
66.885 22.257431
66.890 22.349255
66.895 22.758673
66.900 22.606186
66.905 22.47332
66.910 21.755512
66.915 21.865026
66.920 21.796103
66.925 21.270489
66.930 21.495367
66.935 21.685101
66.940 21.557322
66.945 22.339201
66.950 22.571953
66.955 22.854307
66.960 23.657669
66.965 24.130772
66.970 24.090912
66.975 24.175089
66.980 23.839899
66.985 23.816385
66.990 23.551373
66.995 23.028845
67.000 23.265909
67.005 23.467381
67.010 23.233027
67.015 22.608135
67.020 22.628752
67.025 23.171137
67.030 22.542484
67.035 22.005451
67.040 22.939903
67.045 23.579878
67.050 23.666391
67.055 23.573067
67.060 23.475668
67.065 23.862574
67.070 23.540907
67.075 22.584219
67.080 21.883387
67.085 22.272392
67.090 22.007162
67.095 21.570862
67.100 21.97982
67.105 21.910595
67.110 22.23847
67.115 22.150059
67.120 21.921961
67.125 22.590038
67.130 22.709288
67.135 22.275229
67.140 21.83317
67.145 21.502649
67.150 21.351236
67.155 21.261349
67.160 20.940504
67.165 21.541277
67.170 21.867601
67.175 22.279488
67.180 22.570412
67.185 22.693743
67.190 23.169136
67.195 23.774454
67.200 23.450827
67.205 22.644863
67.210 21.997883
67.215 21.976583
67.220 22.027384
67.225 21.420357
67.230 20.940033
67.235 21.125608
67.240 21.822132
67.245 22.302626
67.250 22.524893
67.255 22.653181
67.260 22.646923
67.265 22.379797
67.270 22.158384
67.275 21.272564
67.280 21.787077
67.285 22.116053
67.290 22.012167
67.295 21.732773
67.300 21.606743
67.305 21.63982
67.310 22.005222
67.315 21.027962
67.320 20.255875
67.325 20.292362
67.330 20.772278
67.335 21.177177
67.340 21.320017
67.345 21.298912
67.350 21.656162
67.355 21.568531
67.360 21.913967
67.365 21.910431
67.370 21.563101
67.375 21.170547
67.380 21.265356
67.385 21.226797
67.390 21.566288
67.395 21.104082
67.400 20.26907
67.405 20.415192
67.410 20.481039
67.415 20.250561
67.420 19.571358
67.425 19.223642
67.430 19.367945
67.435 20.425146
67.440 20.151569
67.445 20.230541
67.450 21.36253
67.455 22.384699
67.460 22.638565
67.465 22.49778
67.470 22.227867
67.475 22.136082
67.480 22.084473
67.485 21.615435
67.490 21.108721
67.495 21.665173
67.500 22.042194
67.505 21.945126
67.510 22.224869
67.515 22.486902
67.520 22.403654
67.525 22.519361
67.530 21.821051
67.535 21.798395
67.540 21.441378
67.545 21.879753
67.550 21.790174
67.555 21.307337
67.560 20.776575
67.565 21.474916
67.570 21.269648
67.575 21.554283
67.580 20.99827
67.585 21.021683
67.590 21.763756
67.595 22.364351
67.600 21.914892
67.605 22.464701
67.610 22.842127
67.615 22.809649
67.620 22.712816
67.625 22.777769
67.630 23.266068
67.635 23.313219
67.640 23.099661
67.645 23.463596
67.650 23.507378
67.655 22.995728
67.660 22.329912
67.665 21.480337
67.670 21.733526
67.675 21.170378
67.680 20.428892
67.685 20.294847
67.690 20.960695
67.695 21.338303
67.700 21.298941
67.705 20.94451
67.710 20.763622
67.715 21.069937
67.720 21.254002
67.725 21.254082
67.730 20.889519
67.735 20.968782
67.740 21.262991
67.745 21.578279
67.750 21.507799
67.755 21.036402
67.760 21.061094
67.765 21.740234
67.770 21.616652
67.775 21.905418
67.780 21.738503
67.785 21.37335
67.790 21.337557
67.795 20.779013
67.800 20.06889
67.805 20.067921
67.810 19.502445
67.815 19.482853
67.820 19.599127
67.825 19.714617
67.830 19.422661
67.835 19.999929
67.840 20.126608
67.845 20.452894
67.850 20.633423
67.855 20.746309
67.860 20.375986
67.865 20.456871
67.870 20.002943
67.875 20.364702
67.880 20.275999
67.885 20.036913
67.890 20.564604
67.895 20.965679
67.900 21.088787
67.905 21.285229
67.910 21.706545
67.915 22.230768
67.920 22.895918
67.925 22.646439
67.930 23.023525
67.935 22.842649
67.940 22.341183
67.945 21.516228
67.950 21.35848
67.955 20.76947
67.960 20.806274
67.965 20.600643
67.970 20.38875
67.975 20.272097
67.980 20.112024
67.985 19.468464
67.990 19.652624
67.995 19.811165
68.000 19.967289
68.005 20.23513
68.010 20.670393
68.015 20.549612
68.020 20.758196
68.025 20.144363
68.030 19.275023
68.035 18.906914
68.040 18.580641
68.045 18.040394
68.050 18.788832
68.055 19.385929
68.060 19.956844
68.065 20.447475
68.070 20.80015
68.075 21.217068
68.080 21.694635
68.085 22.029427
68.090 22.056448
68.095 22.416571
68.100 22.478357
68.105 23.094469
68.110 23.247297
68.115 22.806463
68.120 22.179829
68.125 21.829357
68.130 21.181192
68.135 20.864347
68.140 20.255249
68.145 20.03471
68.150 20.099964
68.155 19.794102
68.160 19.989246
68.165 20.247641
68.170 20.568491
68.175 20.620596
68.180 20.787504
68.185 21.259586
68.190 21.834816
68.195 22.0504
68.200 22.126835
68.205 22.237974
68.210 22.874836
68.215 22.940437
68.220 22.569056
68.225 22.455532
68.230 22.267889
68.235 21.709011
68.240 21.214294
68.245 20.852303
68.250 20.282204
68.255 19.925928
68.260 19.7087
68.265 19.37483
68.270 19.898119
68.275 20.119997
68.280 19.990366
68.285 20.366674
68.290 20.327257
68.295 19.837868
68.300 20.132471
68.305 20.356068
68.310 19.994751
68.315 19.581017
68.320 19.08527
68.325 18.933622
68.330 18.807598
68.335 18.772474
68.340 18.233576
68.345 18.72613
68.350 19.050529
68.355 19.545017
68.360 20.097246
68.365 21.106045
68.370 21.254877
68.375 21.582546
68.380 21.259941
68.385 21.094854
68.390 21.181055
68.395 21.11661
68.400 20.533405
68.405 20.298206
68.410 20.746143
68.415 21.183718
68.420 21.229982
68.425 20.900248
68.430 20.762018
68.435 21.310959
68.440 21.075851
68.445 20.749191
68.450 20.784037
68.455 21.276197
68.460 21.691296
68.465 22.06934
68.470 21.621452
68.475 21.501265
68.480 21.693813
68.485 21.732313
68.490 22.050323
68.495 22.651045
68.500 22.564709
68.505 22.787176
68.510 23.256731
68.515 23.285559
68.520 23.344433
68.525 23.134039
68.530 22.753765
68.535 22.491165
68.540 22.649599
68.545 22.757473
68.550 22.802521
68.555 23.064533
68.560 22.972013
68.565 22.924351
68.570 22.739403
68.575 22.368183
68.580 22.128519
68.585 22.383717
68.590 22.47781
68.595 22.11182
68.600 21.681013
68.605 22.118607
68.610 22.124733
68.615 21.876963
68.620 21.279591
68.625 21.318026
68.630 21.579357
68.635 21.264505
68.640 20.970081
68.645 20.159813
68.650 20.451263
68.655 19.573622
68.660 18.939798
68.665 19.030174
68.670 19.229216
68.675 19.474508
68.680 20.352678
68.685 20.576279
68.690 21.391813
68.695 21.365667
68.700 21.772017
68.705 21.800568
68.710 21.67024
68.715 21.596146
68.720 20.968325
68.725 21.012012
68.730 20.706169
68.735 20.845528
68.740 21.287228
68.745 21.827396
68.750 21.732004
68.755 21.38389
68.760 22.185375
68.765 22.459328
68.770 21.635418
68.775 21.233543
68.780 20.766621
68.785 21.176153
68.790 21.59671
68.795 21.218191
68.800 21.279205
68.805 21.416182
68.810 22.091553
68.815 22.491371
68.820 22.572647
68.825 22.978453
68.830 22.81679
68.835 22.76223
68.840 22.863058
68.845 22.014599
68.850 22.111616
68.855 22.273344
68.860 21.840637
68.865 21.33646
68.870 21.533283
68.875 21.848577
68.880 21.77874
68.885 20.803465
68.890 20.273941
68.895 20.967274
68.900 21.849844
68.905 22.557747
68.910 22.780796
68.915 23.184212
68.920 23.686525
68.925 23.357988
68.930 22.470474
68.935 21.93112
68.940 20.93284
68.945 20.628513
68.950 20.500746
68.955 20.844812
68.960 21.68795
68.965 22.239609
68.970 22.642447
68.975 22.980497
68.980 23.483929
68.985 24.087847
68.990 24.636938
68.995 24.719616
69.000 24.688293
69.005 24.782938
69.010 24.769024
69.015 24.422443
69.020 23.954466
69.025 23.575089
69.030 23.240255
69.035 23.236109
69.040 23.190401
69.045 23.849451
69.050 23.607201
69.055 23.358599
69.060 22.830845
69.065 22.676107
69.070 22.715326
69.075 23.016394
69.080 22.131613
69.085 22.227304
69.090 22.795713
69.095 23.845907
69.100 24.963032
69.105 25.487638
69.110 25.956657
69.115 26.956858
69.120 26.951633
69.125 26.813553
69.130 26.4741
69.135 25.966953
69.140 25.567457
69.145 25.671003
69.150 25.719719
69.155 25.900501
69.160 25.38732
69.165 25.041483
69.170 24.470198
69.175 24.109568
69.180 24.023361
69.185 24.285727
69.190 24.377981
69.195 24.132679
69.200 24.638653
69.205 25.605827
69.210 25.933449
69.215 25.556456
69.220 25.436987
69.225 26.35899
69.230 26.97196
69.235 26.906267
69.240 27.026636
69.245 27.03964
69.250 27.110821
69.255 26.709307
69.260 25.786867
69.265 25.678553
69.270 25.194221
69.275 24.577837
69.280 24.603544
69.285 24.572126
69.290 25.167612
69.295 24.870708
69.300 24.687473
69.305 25.200689
69.310 25.824354
69.315 25.592527
69.320 25.375673
69.325 25.569202
69.330 25.901501
69.335 26.162806
69.340 25.921555
69.345 25.854465
69.350 26.740103
69.355 26.997511
69.360 26.889605
69.365 27.803572
69.370 28.31649
69.375 28.395399
69.380 27.859215
69.385 27.815016
69.390 27.75176
69.395 27.381361
69.400 27.13143
69.405 26.647276
69.410 26.965137
69.415 28.22048
69.420 28.097307
69.425 27.807531
69.430 27.621485
69.435 27.46837
69.440 27.714081
69.445 27.441053
69.450 27.263813
69.455 27.293503
69.460 27.631926
69.465 27.606083
69.470 27.626989
69.475 27.514277
69.480 27.630299
69.485 27.223684
69.490 27.428989
69.495 27.560305
69.500 28.263409
69.505 28.943718
69.510 29.614769
69.515 29.384382
69.520 29.978045
69.525 29.487856
69.530 29.113895
69.535 28.75769
69.540 28.393538
69.545 28.019829
69.550 28.168381
69.555 28.138075
69.560 28.18679
69.565 28.403507
69.570 28.838251
69.575 28.855104
69.580 28.154736
69.585 27.235088
69.590 27.149033
69.595 27.814949
69.600 27.020048
69.605 25.725449
69.610 26.138256
69.615 26.505274
69.620 26.500633
69.625 26.409027
69.630 25.356348
69.635 25.748821
69.640 26.017776
69.645 24.611052
69.650 24.484989
69.655 24.47801
69.660 24.24729
69.665 25.40167
69.670 25.527718
69.675 25.848249
69.680 26.800497
69.685 27.423164
69.690 27.792652
69.695 27.943295
69.700 27.613682
69.705 27.317125
69.710 26.836735
69.715 26.762899
69.720 25.861027
69.725 25.78162
69.730 26.354057
69.735 26.426216
69.740 26.533907
69.745 27.303244
69.750 27.32683
69.755 27.320301
69.760 26.403906
69.765 25.263401
69.770 24.919626
69.775 24.959316
69.780 24.27869
69.785 23.942333
69.790 23.966558
69.795 23.769342
69.800 23.710764
69.805 23.911396
69.810 23.551912
69.815 23.76017
69.820 23.983641
69.825 24.461273
69.830 24.555605
69.835 24.963924
69.840 24.884287
69.845 24.686491
69.850 24.034313
69.855 23.698101
69.860 24.309528
69.865 23.819496
69.870 23.661287
69.875 24.123438
69.880 24.129576
69.885 24.19256
69.890 24.211992
69.895 23.943995
69.900 24.457701
69.905 24.108532
69.910 24.051384
69.915 24.323471
69.920 24.51236
69.925 24.771566
69.930 24.448526
69.935 24.163797
69.940 23.784595
69.945 23.644642
69.950 23.682487
69.955 22.952368
69.960 22.40785
69.965 22.392504
69.970 22.638247
69.975 22.331795
69.980 21.732443
69.985 21.638702
69.990 22.035204
69.995 22.185917
70.000 22.199026
70.005 21.702703
70.010 21.54771
70.015 21.353971
70.020 21.661554
70.025 21.907797
70.030 20.748415
70.035 20.299974
70.040 21.00717
70.045 21.510014
70.050 21.414984
70.055 20.519844
70.060 20.454817
70.065 20.858368
70.070 20.914221
70.075 20.713017
70.080 20.482094
70.085 20.738598
70.090 20.931589
70.095 20.964727
70.100 21.03735
70.105 21.369284
70.110 21.035961
70.115 21.099112
70.120 20.497459
70.125 20.25271
70.130 20.857243
70.135 21.125614
70.140 20.690306
70.145 20.425917
70.150 20.513084
70.155 20.874189
70.160 21.179516
70.165 20.121506
70.170 19.929873
70.175 19.697123
70.180 19.734653
70.185 19.874092
70.190 19.872345
70.195 19.982569
70.200 20.80831
70.205 21.027523
70.210 21.17061
70.215 21.524706
70.220 21.394867
70.225 20.485147
70.230 19.56184
70.235 19.053871
70.240 19.355694
70.245 19.909592
70.250 19.560509
70.255 19.498308
70.260 20.387281
70.265 21.080828
70.270 21.107422
70.275 20.521351
70.280 20.060944
70.285 19.724367
70.290 19.127077
70.295 18.467464
70.300 17.961029
70.305 17.468571
70.310 17.424795
70.315 17.634727
70.320 18.454414
70.325 19.372257
70.330 19.898638
70.335 20.179461
70.340 20.545664
70.345 20.66893
70.350 20.297264
70.355 19.568541
70.360 19.19606
70.365 19.020529
70.370 19.219053
70.375 19.279009
70.380 19.613314
70.385 19.751652
70.390 20.01239
70.395 19.471201
70.400 19.275776
70.405 18.717428
70.410 18.508305
70.415 18.050066
70.420 17.866943
70.425 18.246361
70.430 18.534073
70.435 18.809675
70.440 18.813797
70.445 18.619572
70.450 18.844435
70.455 18.782316
70.460 18.604372
70.465 18.600807
70.470 18.48774
70.475 18.771935
70.480 18.631195
70.485 18.221569
70.490 18.624826
70.495 18.503092
70.500 18.56102
70.505 19.054861
70.510 19.09104
70.515 19.510466
70.520 19.653559
70.525 19.756453
70.530 20.061665
70.535 19.856293
70.540 19.201674
70.545 19.502243
70.550 20.21225
70.555 20.35696
70.560 20.450462
70.565 20.708893
70.570 20.577475
70.575 20.782839
70.580 20.591639
70.585 20.50498
70.590 19.862595
70.595 19.134886
70.600 18.805588
70.605 18.40204
70.610 18.575846
70.615 17.620398
70.620 17.248741
70.625 17.928957
70.630 17.883804
70.635 17.965706
70.640 18.426239
70.645 18.37277
70.650 19.38205
70.655 19.871687
70.660 19.76713
70.665 19.968657
70.670 19.853537
70.675 19.475227
70.680 19.508995
70.685 19.072077
70.690 19.263275
70.695 20.307051
70.700 20.276323
70.705 20.83654
70.710 21.109097
70.715 20.537498
70.720 20.062643
70.725 19.516359
70.730 19.210102
70.735 19.214615
70.740 18.549498
70.745 18.517757
70.750 19.005791
70.755 19.364061
70.760 18.396885
70.765 18.106138
70.770 18.337023
70.775 18.542881
70.780 18.745022
70.785 18.770386
70.790 19.454111
70.795 20.152967
70.800 20.463453
70.805 20.069227
70.810 20.017883
70.815 19.789049
70.820 20.192219
70.825 19.098766
70.830 18.789558
70.835 18.793497
70.840 18.972843
70.845 18.78454
70.850 18.595642
70.855 18.215832
70.860 19.071733
70.865 19.30331
70.870 19.366318
70.875 19.703007
70.880 20.065145
70.885 20.302732
70.890 20.220541
70.895 19.467667
70.900 19.364958
70.905 19.122412
70.910 19.132143
70.915 19.169291
70.920 18.359459
70.925 17.820215
70.930 18.439594
70.935 18.774658
70.940 19.073006
70.945 19.445435
70.950 19.690676
70.955 20.575102
70.960 20.788265
70.965 20.616688
70.970 20.455526
70.975 20.339308
70.980 20.637655
70.985 20.297766
70.990 20.312387
70.995 20.695627
71.000 20.746719
71.005 20.440794
71.010 20.023319
71.015 19.126211
71.020 19.347075
71.025 18.667866
71.030 18.116076
71.035 18.344357
71.040 18.670532
71.045 18.807434
71.050 18.887749
71.055 18.768141
71.060 19.098948
71.065 18.904188
71.070 18.468525
71.075 17.850153
71.080 18.232315
71.085 18.220877
71.090 18.322342
71.095 18.845242
71.100 19.282621
71.105 19.564407
71.110 20.206694
71.115 20.070108
71.120 20.340708
71.125 20.223383
71.130 19.562538
71.135 19.593025
71.140 19.094639
71.145 18.481689
71.150 18.299629
71.155 18.345253
71.160 18.573814
71.165 18.840805
71.170 18.805796
71.175 19.393303
71.180 19.288437
71.185 18.803209
71.190 19.141697
71.195 19.31905
71.200 18.814409
71.205 18.35055
71.210 18.509886
71.215 18.523102
71.220 18.559223
71.225 17.533285
71.230 16.694958
71.235 16.669565
71.240 16.793795
71.245 16.946304
71.250 17.59482
71.255 17.84511
71.260 18.154137
71.265 19.168644
71.270 19.376566
71.275 19.091066
71.280 18.896698
71.285 18.85428
71.290 19.017054
71.295 19.018461
71.300 19.58399
71.305 19.787483
71.310 19.958315
71.315 19.790184
71.320 19.445368
71.325 19.260361
71.330 19.095715
71.335 18.640953
71.340 18.639961
71.345 18.514545
71.350 18.539661
71.355 18.630505
71.360 18.729864
71.365 18.808701
71.370 19.021782
71.375 19.275309
71.380 19.06657
71.385 18.897327
71.390 19.282446
71.395 19.788849
71.400 19.329416
71.405 19.102543
71.410 19.422367
71.415 20.181471
71.420 20.646845
71.425 20.296846
71.430 20.119738
71.435 20.354788
71.440 20.272364
71.445 20.140324
71.450 19.902176
71.455 19.775747
71.460 19.959763
71.465 19.77405
71.470 19.759264
71.475 19.451962
71.480 18.938868
71.485 18.484243
71.490 18.242863
71.495 18.253798
71.500 18.231567
71.505 18.554541
71.510 18.307209
71.515 18.731581
71.520 18.447012
71.525 18.658113
71.530 18.39673
71.535 18.188721
71.540 17.801476
71.545 18.112646
71.550 18.267769
71.555 18.465857
71.560 18.000275
71.565 17.63516
71.570 17.48237
71.575 16.913105
71.580 16.574471
71.585 16.800062
71.590 17.313005
71.595 18.465494
71.600 18.417234
71.605 18.526901
71.610 19.133509
71.615 19.31979
71.620 19.414305
71.625 18.457489
71.630 18.032751
71.635 18.636162
71.640 18.87302
71.645 18.784298
71.650 18.258905
71.655 18.075207
71.660 18.554556
71.665 18.872564
71.670 18.765198
71.675 18.70001
71.680 18.969259
71.685 18.828407
71.690 18.508411
71.695 18.354454
71.700 18.466808
71.705 18.314001
71.710 18.29973
71.715 18.490158
71.720 18.647469
71.725 18.834372
71.730 18.624607
71.735 17.759604
71.740 17.301085
71.745 17.434492
71.750 18.010708
71.755 18.225952
71.760 18.539375
71.765 18.746807
71.770 19.189503
71.775 19.791689
71.780 19.437963
71.785 18.576832
71.790 18.129293
71.795 17.896378
71.800 18.015488
71.805 17.939245
71.810 17.694302
71.815 17.771774
71.820 18.162722
71.825 18.255053
71.830 17.992275
71.835 17.464085
71.840 17.475578
71.845 17.908432
71.850 18.009153
71.855 17.695406
71.860 17.327429
71.865 17.419659
71.870 17.563278
71.875 18.371994
71.880 17.916441
71.885 17.567965
71.890 17.712593
71.895 17.523602
71.900 17.520536
71.905 17.482203
71.910 16.673676
71.915 16.89744
71.920 17.071724
71.925 17.202116
71.930 17.290146
71.935 17.581966
71.940 17.441568
71.945 17.250637
71.950 17.038036
71.955 16.734734
71.960 17.26866
71.965 17.579779
71.970 17.404884
71.975 17.598505
71.980 18.146492
71.985 19.234739
71.990 20.118992
71.995 19.890293
72.000 20.099586
72.005 20.404406
72.010 20.365538
72.015 19.649557
72.020 18.871313
72.025 18.493042
72.030 18.855963
72.035 18.585873
72.040 18.294765
72.045 19.283325
72.050 19.391392
72.055 19.187525
72.060 18.983337
72.065 18.852436
72.070 18.897512
72.075 19.192436
72.080 19.338099
72.085 19.478458
72.090 19.628738
72.095 19.293682
72.100 19.521936
72.105 19.821314
72.110 19.189747
72.115 18.337845
72.120 18.666527
72.125 18.938269
72.130 19.489471
72.135 18.651464
72.140 18.56621
72.145 18.608101
72.150 18.695583
72.155 18.632967
72.160 18.315584
72.165 17.50239
72.170 18.1723
72.175 18.553862
72.180 18.531012
72.185 18.059492
72.190 17.619034
72.195 18.179241
72.200 18.588329
72.205 18.523108
72.210 18.225386
72.215 18.029085
72.220 18.624897
72.225 18.610426
72.230 18.239567
72.235 18.593187
72.240 18.600828
72.245 19.088726
72.250 19.256063
72.255 19.320463
72.260 19.05312
72.265 19.550846
72.270 19.278166
72.275 18.700878
72.280 18.434872
72.285 18.225096
72.290 17.799545
72.295 18.046547
72.300 17.805384
72.305 17.662386
72.310 17.742064
72.315 17.782097
72.320 18.12096
72.325 18.237738
72.330 18.001734
72.335 17.819904
72.340 18.173922
72.345 18.428413
72.350 18.464676
72.355 18.355778
72.360 18.123005
72.365 17.635763
72.370 17.518238
72.375 17.021875
72.380 16.707504
72.385 16.436178
72.390 15.782804
72.395 16.306244
72.400 16.643492
72.405 16.884628
72.410 17.046846
72.415 17.248569
72.420 17.500723
72.425 18.069614
72.430 18.152315
72.435 17.925488
72.440 18.206629
72.445 18.458651
72.450 18.708683
72.455 18.982712
72.460 19.041355
72.465 18.875345
72.470 18.969067
72.475 18.630522
72.480 18.264824
72.485 18.098738
72.490 17.873497
72.495 17.2833
72.500 17.312057
72.505 17.342186
72.510 17.128798
72.515 16.610903
72.520 16.532839
72.525 16.393164
72.530 16.867647
72.535 16.646235
72.540 17.080168
72.545 17.214226
72.550 18.249016
72.555 19.021784
72.560 19.44911
72.565 19.464384
72.570 19.48394
72.575 19.654726
72.580 19.846573
72.585 19.208763
72.590 18.572628
72.595 18.577267
72.600 18.800362
72.605 18.782095
72.610 18.150442
72.615 17.588129
72.620 17.258394
72.625 17.609962
72.630 17.386145
72.635 17.392782
72.640 17.300262
72.645 17.610556
72.650 17.54031
72.655 17.643223
72.660 17.372356
72.665 17.053888
72.670 17.512165
72.675 17.362202
72.680 17.021427
72.685 17.42732
72.690 17.432899
72.695 17.505003
72.700 17.809591
72.705 17.712135
72.710 17.904652
72.715 18.040838
72.720 18.283699
72.725 17.8899
72.730 18.074148
72.735 17.485722
72.740 17.171619
72.745 17.29682
72.750 16.92906
72.755 16.54011
72.760 16.592352
72.765 16.90881
72.770 17.284012
72.775 17.959211
72.780 17.945772
72.785 17.963428
72.790 17.136662
72.795 16.265795
72.800 16.068434
72.805 15.713595
72.810 15.338302
72.815 15.252015
72.820 15.710694
72.825 17.022154
72.830 17.410887
72.835 17.287273
72.840 17.520971
72.845 17.742052
72.850 18.363287
72.855 17.989864
72.860 16.99659
72.865 17.021263
72.870 17.309517
72.875 17.098728
72.880 16.344431
72.885 15.910829
72.890 15.825116
72.895 15.858893
72.900 15.312893
72.905 14.716986
72.910 14.786002
72.915 15.614056
72.920 16.327572
72.925 16.964413
72.930 17.481558
72.935 17.682028
72.940 17.403841
72.945 17.21312
72.950 16.448471
72.955 16.634007
72.960 16.517166
72.965 16.260618
72.970 16.517355
72.975 16.920216
72.980 17.054485
72.985 17.143593
72.990 16.820721
72.995 17.03186
73.000 16.92098
