!@!!GADDS PLOTSO FILE: Chi integration type
!@!!Title/SampleName: map-bc
!@!!Comment: ?
!@!!User: Bruker Instrument Administrator
!@!!Site: University of Illinois Chicago
!@!!Frame: map-bc_01_000.gfrm
!@!!Wavelengths    1.54184   1.54056   1.54439
!@!!Frame angles: 2Theta: 63.000 Omega: 50.000 Phi: 0.000 Chi: 90.000
!@!!Integration range: 2Theta: 53.000 to 73.000  Gamma: -105.000 to -75.000
!@!!Integration method: bin normalized
!@!N
!@!SS
!@!M
!@!L 0.0 0.0 0.0 0.0
!@!XDegrees
!@!YCounts
53.000 6.911215
53.005 7.22502
53.010 7.009987
53.015 6.853702
53.020 6.693368
53.025 6.966002
53.030 7.515415
53.035 7.497023
53.040 7.540398
53.045 8.286251
53.050 8.48047
53.055 8.421676
53.060 8.212226
53.065 7.993646
53.070 7.922269
53.075 7.634309
53.080 7.056115
53.085 7.350642
53.090 7.501967
53.095 7.3776
53.100 7.44564
53.105 7.667252
53.110 7.271446
53.115 7.519405
53.120 7.362399
53.125 7.156431
53.130 7.60813
53.135 7.423395
53.140 7.475008
53.145 7.875116
53.150 7.633646
53.155 7.776428
53.160 7.791539
53.165 7.773331
53.170 7.564927
53.175 7.237437
53.180 7.148957
53.185 7.140538
53.190 7.404645
53.195 7.424706
53.200 7.42025
53.205 7.745637
53.210 7.92436
53.215 7.980205
53.220 7.747952
53.225 7.701387
53.230 7.589312
53.235 7.526129
53.240 7.433016
53.245 7.18994
53.250 7.235056
53.255 7.382519
53.260 7.224307
53.265 7.183015
53.270 7.201301
53.275 7.383824
53.280 7.60023
53.285 7.12376
53.290 7.403468
53.295 7.278749
53.300 7.325912
53.305 7.610241
53.310 7.334883
53.315 7.560196
53.320 7.593982
53.325 7.12088
53.330 7.42149
53.335 7.486596
53.340 7.814906
53.345 8.192778
53.350 8.373676
53.355 8.540994
53.360 8.920274
53.365 8.993151
53.370 8.904946
53.375 8.602459
53.380 8.440839
53.385 8.079857
53.390 8.025302
53.395 7.905624
53.400 7.810669
53.405 7.852259
53.410 8.178111
53.415 8.362803
53.420 9.198553
53.425 9.153162
53.430 8.709857
53.435 8.810696
53.440 8.847851
53.445 8.353402
53.450 8.271929
53.455 7.805607
53.460 8.188569
53.465 8.309368
53.470 7.658335
53.475 7.785779
53.480 8.074021
53.485 8.053888
53.490 7.97872
53.495 7.548312
53.500 7.735367
53.505 8.075486
53.510 7.848901
53.515 7.699472
53.520 7.952743
53.525 8.292009
53.530 8.388807
53.535 8.851088
53.540 8.878714
53.545 9.004783
53.550 8.905324
53.555 8.173629
53.560 8.071923
53.565 7.965452
53.570 7.470714
53.575 7.538919
53.580 7.420573
53.585 7.419036
53.590 7.569396
53.595 7.263929
53.600 7.626986
53.605 7.816538
53.610 7.896869
53.615 8.072393
53.620 7.886463
53.625 7.703887
53.630 7.946338
53.635 7.770644
53.640 7.657038
53.645 7.526754
53.650 7.456249
53.655 8.000843
53.660 7.879701
53.665 7.583961
53.670 7.198897
53.675 7.010593
53.680 7.146177
53.685 7.363148
53.690 7.914794
53.695 8.405228
53.700 8.922413
53.705 9.551372
53.710 9.707647
53.715 9.981295
53.720 9.923288
53.725 9.808971
53.730 9.759387
53.735 9.361736
53.740 9.32218
53.745 8.776005
53.750 8.32586
53.755 8.033279
53.760 7.886127
53.765 7.795408
53.770 7.445409
53.775 7.102143
53.780 7.525349
53.785 7.852237
53.790 7.875712
53.795 7.68716
53.800 7.916849
53.805 8.303071
53.810 8.454221
53.815 7.745771
53.820 7.478854
53.825 7.496517
53.830 7.472757
53.835 7.346842
53.840 7.247102
53.845 7.454832
53.850 7.978414
53.855 8.094735
53.860 7.973229
53.865 7.939903
53.870 7.873365
53.875 8.543385
53.880 8.838541
53.885 8.76061
53.890 9.09815
53.895 9.423327
53.900 9.435607
53.905 10.153774
53.910 9.62651
53.915 9.1871
53.920 9.391691
53.925 9.310969
53.930 9.322653
53.935 9.446353
53.940 8.853202
53.945 9.123901
53.950 9.79401
53.955 9.640731
53.960 9.542982
53.965 9.441273
53.970 9.405963
53.975 9.536286
53.980 9.294086
53.985 8.816744
53.990 8.849834
53.995 9.15896
54.000 9.018327
54.005 8.734136
54.010 8.912213
54.015 8.776252
54.020 8.756035
54.025 8.566508
54.030 8.430424
54.035 8.768447
54.040 9.066977
54.045 8.919446
54.050 8.793014
54.055 8.506618
54.060 8.317997
54.065 7.959271
54.070 7.602333
54.075 7.446117
54.080 7.370438
54.085 7.337468
54.090 7.752164
54.095 7.770331
54.100 8.178456
54.105 8.102692
54.110 8.341148
54.115 8.627194
54.120 8.443675
54.125 8.168032
54.130 7.933021
54.135 8.133182
54.140 8.909104
54.145 8.721739
54.150 8.758391
54.155 8.974297
54.160 9.106306
54.165 9.472788
54.170 9.038988
54.175 8.465059
54.180 8.561678
54.185 8.483843
54.190 8.553992
54.195 8.75801
54.200 8.970691
54.205 8.957772
54.210 9.087527
54.215 8.865086
54.220 9.312576
54.225 9.527621
54.230 9.204622
54.235 9.309795
54.240 9.628989
54.245 9.407913
54.250 9.478899
54.255 9.139252
54.260 8.821021
54.265 8.941118
54.270 9.000172
54.275 9.029502
54.280 9.274689
54.285 9.754403
54.290 9.74337
54.295 9.684942
54.300 9.520028
54.305 9.30895
54.310 9.187994
54.315 8.963529
54.320 8.919221
54.325 9.150081
54.330 9.438484
54.335 9.6999
54.340 9.408833
54.345 9.252531
54.350 9.275413
54.355 8.947766
54.360 9.11534
54.365 9.303309
54.370 9.427168
54.375 9.874374
54.380 9.435858
54.385 9.447162
54.390 9.524505
54.395 9.085046
54.400 8.775392
54.405 8.459352
54.410 8.672807
54.415 8.707062
54.420 8.499912
54.425 8.381607
54.430 8.425837
54.435 8.623515
54.440 8.554131
54.445 8.619382
54.450 9.142856
54.455 9.292076
54.460 9.282196
54.465 9.29368
54.470 9.442338
54.475 9.646697
54.480 9.822355
54.485 9.497641
54.490 9.379509
54.495 9.189274
54.500 8.834556
54.505 8.552118
54.510 8.029258
54.515 8.207057
54.520 8.261886
54.525 8.806584
54.530 9.078826
54.535 9.113783
54.540 9.021123
54.545 9.313134
54.550 9.128267
54.555 9.289263
54.560 8.82025
54.565 8.695339
54.570 8.817163
54.575 8.926746
54.580 8.946699
54.585 9.014071
54.590 9.447363
54.595 9.873158
54.600 9.872937
54.605 10.166103
54.610 9.825825
54.615 9.720315
54.620 9.255501
54.625 8.836734
54.630 8.912586
54.635 9.088208
54.640 8.623896
54.645 8.678138
54.650 8.438449
54.655 8.720201
54.660 8.799141
54.665 9.074095
54.670 9.009319
54.675 9.438428
54.680 9.506296
54.685 9.374177
54.690 9.403727
54.695 9.200753
54.700 8.614705
54.705 8.261247
54.710 7.963056
54.715 8.306135
54.720 8.639372
54.725 8.537399
54.730 8.774856
54.735 9.045172
54.740 9.14454
54.745 9.455975
54.750 9.241012
54.755 8.93561
54.760 8.959877
54.765 8.882185
54.770 8.845337
54.775 8.867208
54.780 9.052181
54.785 9.083164
54.790 9.00798
54.795 9.161527
54.800 9.41839
54.805 9.975655
54.810 10.210013
54.815 10.379859
54.820 10.298067
54.825 10.734152
54.830 10.518989
54.835 10.097202
54.840 9.72069
54.845 9.405376
54.850 9.388158
54.855 9.205449
54.860 8.825473
54.865 8.848074
54.870 9.008095
54.875 9.271887
54.880 9.306486
54.885 9.31611
54.890 9.473782
54.895 9.455736
54.900 9.502471
54.905 9.388658
54.910 9.406165
54.915 9.861117
54.920 9.885501
54.925 10.227736
54.930 10.369892
54.935 10.237455
54.940 9.935722
54.945 9.976616
54.950 9.804575
54.955 9.758707
54.960 9.719652
54.965 9.751348
54.970 9.600574
54.975 9.792676
54.980 9.329062
54.985 9.439524
54.990 9.604742
54.995 9.330391
55.000 9.499823
55.005 9.943264
55.010 10.218942
55.015 10.036447
55.020 10.02073
55.025 9.574624
55.030 9.910034
55.035 9.9431
55.040 9.590183
55.045 9.077946
55.050 8.91514
55.055 8.375169
55.060 8.434138
55.065 8.219175
55.070 8.445237
55.075 8.623377
55.080 9.049134
55.085 9.212628
55.090 9.355964
55.095 9.522307
55.100 9.779626
55.105 9.519692
55.110 9.4849
55.115 9.450585
55.120 9.509208
55.125 9.554605
55.130 9.062301
55.135 8.961097
55.140 9.146844
55.145 9.321393
55.150 9.649738
55.155 9.562907
55.160 9.751675
55.165 9.954214
55.170 10.058116
55.175 9.965767
55.180 9.777637
55.185 9.693465
55.190 9.821471
55.195 10.144333
55.200 9.805465
55.205 9.650399
55.210 9.84706
55.215 9.90045
55.220 10.053902
55.225 9.797004
55.230 9.665473
55.235 9.655895
55.240 9.834378
55.245 9.92736
55.250 10.311779
55.255 10.522178
55.260 10.902561
55.265 10.733123
55.270 11.032844
55.275 10.905414
55.280 10.80176
55.285 10.355103
55.290 9.881753
55.295 9.696922
55.300 9.608082
55.305 9.646923
55.310 9.460019
55.315 9.369649
55.320 9.21419
55.325 9.494439
55.330 9.762183
55.335 10.463343
55.340 10.41233
55.345 10.655713
55.350 10.628591
55.355 11.122984
55.360 10.919407
55.365 10.298453
55.370 9.785368
55.375 9.83879
55.380 9.729648
55.385 9.61241
55.390 9.294837
55.395 9.411368
55.400 9.251522
55.405 9.198318
55.410 9.322902
55.415 9.293848
55.420 9.490969
55.425 9.358866
55.430 9.137799
55.435 9.355603
55.440 9.381133
55.445 8.935467
55.450 8.772129
55.455 8.796582
55.460 9.369605
55.465 9.591189
55.470 9.755756
55.475 10.100305
55.480 10.750078
55.485 10.774282
55.490 10.359342
55.495 10.489279
55.500 10.720625
55.505 11.033826
55.510 10.854474
55.515 10.610977
55.520 11.446655
55.525 12.009755
55.530 11.502158
55.535 10.958281
55.540 10.973783
55.545 11.18826
55.550 11.169701
55.555 10.641543
55.560 10.586928
55.565 11.002287
55.570 11.328906
55.575 11.318145
55.580 11.394547
55.585 11.41858
55.590 11.093086
55.595 10.994344
55.600 11.003583
55.605 11.059463
55.610 10.402297
55.615 10.140734
55.620 10.281824
55.625 10.252911
55.630 10.235371
55.635 9.856874
55.640 9.848397
55.645 10.013643
55.650 9.895308
55.655 9.626554
55.660 9.460499
55.665 9.701765
55.670 9.709269
55.675 9.416081
55.680 9.48159
55.685 9.685293
55.690 9.745119
55.695 9.826253
55.700 9.969869
55.705 10.425293
55.710 10.636058
55.715 10.987858
55.720 11.227127
55.725 11.552929
55.730 11.688825
55.735 11.678087
55.740 11.444116
55.745 11.465461
55.750 11.356901
55.755 11.058501
55.760 10.890202
55.765 10.873041
55.770 10.88531
55.775 10.929182
55.780 10.577313
55.785 10.434754
55.790 10.436458
55.795 10.535305
55.800 10.306027
55.805 9.8494
55.810 9.860286
55.815 10.340586
55.820 10.276934
55.825 10.327437
55.830 10.161812
55.835 10.887228
55.840 11.507122
55.845 11.477654
55.850 11.000358
55.855 10.78631
55.860 11.062743
55.865 11.080756
55.870 10.041479
55.875 9.624404
55.880 9.730779
55.885 10.259268
55.890 10.298591
55.895 9.950811
55.900 9.880381
55.905 10.289406
55.910 10.38592
55.915 9.92723
55.920 9.629237
55.925 9.718629
55.930 9.970858
55.935 10.162301
55.940 10.417171
55.945 10.91446
55.950 11.253236
55.955 11.36555
55.960 11.280749
55.965 10.980453
55.970 11.115371
55.975 11.229463
55.980 11.37688
55.985 11.217714
55.990 11.084688
55.995 11.72819
56.000 12.324863
56.005 12.010816
56.010 11.637284
56.015 11.660617
56.020 12.011079
56.025 12.140422
56.030 11.780794
56.035 11.41134
56.040 11.111023
56.045 11.115573
56.050 10.819347
56.055 10.261507
56.060 9.97447
56.065 9.882042
56.070 10.104486
56.075 10.476739
56.080 10.029864
56.085 10.24914
56.090 10.283653
56.095 10.105218
56.100 9.819926
56.105 9.780359
56.110 9.889366
56.115 10.059956
56.120 10.266741
56.125 10.411281
56.130 10.606457
56.135 10.787848
56.140 10.972751
56.145 11.127945
56.150 11.029156
56.155 10.592137
56.160 10.49493
56.165 10.591152
56.170 10.479723
56.175 10.188843
56.180 10.115176
56.185 10.379359
56.190 10.199428
56.195 10.192719
56.200 10.11173
56.205 10.029933
56.210 10.101378
56.215 9.845647
56.220 10.052747
56.225 10.297791
56.230 10.433869
56.235 10.746788
56.240 10.858334
56.245 10.97248
56.250 11.365202
56.255 11.320365
56.260 11.458143
56.265 11.59758
56.270 11.73389
56.275 11.665626
56.280 11.419619
56.285 11.13594
56.290 11.424351
56.295 11.50226
56.300 11.365482
56.305 11.275722
56.310 11.704808
56.315 11.640842
56.320 11.749803
56.325 11.578791
56.330 11.617318
56.335 11.654347
56.340 11.640948
56.345 11.197774
56.350 10.789386
56.355 10.223914
56.360 10.142224
56.365 10.567884
56.370 10.58296
56.375 10.453777
56.380 10.666385
56.385 11.280346
56.390 11.700768
56.395 11.684743
56.400 11.363225
56.405 11.176246
56.410 11.354473
56.415 10.934006
56.420 10.279435
56.425 9.978434
56.430 10.156469
56.435 10.492909
56.440 10.864484
56.445 10.922575
56.450 11.376536
56.455 11.578517
56.460 12.024191
56.465 11.68088
56.470 11.197392
56.475 10.675622
56.480 10.769821
56.485 10.957624
56.490 11.266149
56.495 10.956784
56.500 11.389485
56.505 11.503624
56.510 11.962587
56.515 11.851511
56.520 11.593665
56.525 11.128365
56.530 10.750757
56.535 10.552966
56.540 10.55899
56.545 10.471235
56.550 10.374508
56.555 10.934681
56.560 11.318827
56.565 11.479281
56.570 11.150867
56.575 11.141808
56.580 10.929218
56.585 10.84992
56.590 10.404319
56.595 10.33131
56.600 10.331266
56.605 9.910865
56.610 9.820331
56.615 9.657242
56.620 9.670562
56.625 9.723449
56.630 9.198886
56.635 9.002107
56.640 9.260625
56.645 9.430873
56.650 9.496816
56.655 9.72374
56.660 10.183976
56.665 10.759057
56.670 11.172055
56.675 11.333105
56.680 11.331476
56.685 11.619708
56.690 11.802002
56.695 11.846597
56.700 11.854418
56.705 12.309026
56.710 12.704511
56.715 12.858196
56.720 12.886652
56.725 12.967587
56.730 13.015439
56.735 12.453909
56.740 12.066185
56.745 11.716111
56.750 11.473115
56.755 11.483556
56.760 11.350756
56.765 11.502954
56.770 11.73144
56.775 11.655872
56.780 11.938734
56.785 12.003586
56.790 11.775635
56.795 11.536098
56.800 11.630901
56.805 12.200541
56.810 12.367971
56.815 12.129743
56.820 11.68518
56.825 11.779362
56.830 11.688918
56.835 11.207408
56.840 10.669025
56.845 10.602121
56.850 10.831979
56.855 10.626863
56.860 10.39207
56.865 10.563559
56.870 11.166327
56.875 11.428802
56.880 11.416206
56.885 11.324967
56.890 11.597085
56.895 11.575785
56.900 12.016398
56.905 11.842963
56.910 11.66739
56.915 12.098316
56.920 12.435673
56.925 12.57363
56.930 12.734016
56.935 12.241329
56.940 12.259685
56.945 12.497615
56.950 12.282002
56.955 12.514546
56.960 12.564752
56.965 12.657252
56.970 12.709909
56.975 13.118262
56.980 13.216833
56.985 13.367627
56.990 13.034914
56.995 13.120491
57.000 12.957751
57.005 12.966687
57.010 12.899729
57.015 12.522233
57.020 12.466222
57.025 12.530169
57.030 12.501134
57.035 12.716547
57.040 11.982845
57.045 11.391429
57.050 11.778103
57.055 11.39934
57.060 10.975698
57.065 11.071239
57.070 11.11278
57.075 12.334974
57.080 12.860141
57.085 12.425681
57.090 12.761213
57.095 13.37272
57.100 12.955091
57.105 12.440158
57.110 11.381838
57.115 11.320271
57.120 11.443494
57.125 10.883918
57.130 10.572812
57.135 11.255768
57.140 11.748093
57.145 11.808941
57.150 11.502683
57.155 11.581808
57.160 11.944391
57.165 11.90714
57.170 11.292114
57.175 11.132041
57.180 11.649222
57.185 11.639604
57.190 11.832644
57.195 12.267047
57.200 12.053188
57.205 12.509068
57.210 12.702942
57.215 12.284669
57.220 12.439432
57.225 12.224801
57.230 12.156258
57.235 12.344129
57.240 12.453124
57.245 12.312523
57.250 12.335266
57.255 12.307684
57.260 12.312591
57.265 12.296782
57.270 12.594047
57.275 12.462299
57.280 12.101933
57.285 11.843434
57.290 12.373217
57.295 12.61514
57.300 12.517966
57.305 12.440108
57.310 12.231936
57.315 12.419003
57.320 12.683022
57.325 12.517267
57.330 12.501524
57.335 12.410226
57.340 12.459963
57.345 12.084729
57.350 11.872787
57.355 11.85198
57.360 11.357194
57.365 11.176633
57.370 11.234417
57.375 10.963305
57.380 11.522244
57.385 11.834614
57.390 12.412361
57.395 12.707595
57.400 12.913389
57.405 12.96701
57.410 13.291821
57.415 13.465792
57.420 13.567282
57.425 13.132393
57.430 12.879261
57.435 12.558768
57.440 12.600434
57.445 12.169961
57.450 12.071652
57.455 11.490288
57.460 11.43528
57.465 11.264669
57.470 11.214022
57.475 11.093455
57.480 11.229515
57.485 11.641189
57.490 11.883724
57.495 11.639828
57.500 11.647066
57.505 11.930795
57.510 12.275702
57.515 11.817924
57.520 11.764525
57.525 11.496122
57.530 11.85706
57.535 11.759216
57.540 11.378149
57.545 10.789201
57.550 10.512319
57.555 10.389999
57.560 10.696184
57.565 10.59017
57.570 11.105315
57.575 11.717564
57.580 12.655581
57.585 13.199009
57.590 13.458394
57.595 13.698742
57.600 13.698842
57.605 13.672676
57.610 13.200114
57.615 12.958557
57.620 12.96243
57.625 13.135004
57.630 13.385218
57.635 13.183702
57.640 12.90703
57.645 13.187395
57.650 13.149313
57.655 12.888646
57.660 13.151253
57.665 13.216592
57.670 13.489493
57.675 13.832078
57.680 14.038451
57.685 14.16456
57.690 14.102405
57.695 13.264607
57.700 13.237819
57.705 12.930421
57.710 12.426939
57.715 12.692597
57.720 13.012441
57.725 13.359798
57.730 13.831902
57.735 13.908904
57.740 14.220793
57.745 14.446671
57.750 13.724373
57.755 13.17166
57.760 13.101246
57.765 12.997777
57.770 13.140023
57.775 13.360825
57.780 13.547106
57.785 13.691888
57.790 13.461708
57.795 12.938725
57.800 11.962109
57.805 11.412578
57.810 10.868359
57.815 10.869031
57.820 10.911373
57.825 11.308748
57.830 11.971125
57.835 12.658762
57.840 13.094219
57.845 13.187542
57.850 13.213238
57.855 13.321989
57.860 13.403679
57.865 13.962154
57.870 13.842927
57.875 13.932585
57.880 14.202638
57.885 14.543781
57.890 14.67529
57.895 14.886993
57.900 14.502871
57.905 13.94268
57.910 13.988119
57.915 13.693146
57.920 13.830594
57.925 14.350942
57.930 14.233317
57.935 15.09405
57.940 15.527555
57.945 15.150036
57.950 14.819395
57.955 14.730923
57.960 14.499438
57.965 14.230174
57.970 13.451278
57.975 14.094196
57.980 14.287135
57.985 14.637827
57.990 14.383815
57.995 13.859509
58.000 14.02736
58.005 14.446819
58.010 14.120806
58.015 14.956524
58.020 14.828675
58.025 14.978712
58.030 15.164641
58.035 14.80857
58.040 15.059639
58.045 14.761971
58.050 14.094321
58.055 14.208232
58.060 14.305391
58.065 14.326022
58.070 14.517706
58.075 14.6636
58.080 15.189183
58.085 15.096832
58.090 15.196874
58.095 14.886413
58.100 15.213155
58.105 15.14424
58.110 15.204386
58.115 14.915854
58.120 14.765526
58.125 14.707073
58.130 15.10371
58.135 15.071219
58.140 15.223535
58.145 14.835515
58.150 15.073123
58.155 15.464438
58.160 15.437467
58.165 15.21303
58.170 15.467373
58.175 15.742589
58.180 15.617628
58.185 15.346146
58.190 15.57659
58.195 15.59819
58.200 15.727217
58.205 14.678999
58.210 13.900596
58.215 13.760696
58.220 13.778433
58.225 13.723581
58.230 13.723572
58.235 13.72852
58.240 14.619305
58.245 15.140553
58.250 15.793266
58.255 15.992813
58.260 16.088409
58.265 16.239908
58.270 16.183451
58.275 15.368949
58.280 15.123887
58.285 14.539666
58.290 14.356009
58.295 14.03061
58.300 14.231363
58.305 14.851586
58.310 15.42312
58.315 16.100874
58.320 17.032091
58.325 17.595573
58.330 18.125338
58.335 18.994516
58.340 18.924437
58.345 18.82608
58.350 19.078564
58.355 19.208532
58.360 19.030096
58.365 18.860243
58.370 18.176317
58.375 18.424807
58.380 18.716667
58.385 18.107405
58.390 18.014473
58.395 18.620411
58.400 18.652157
58.405 18.843092
58.410 19.058315
58.415 19.145729
58.420 20.035892
58.425 20.573942
58.430 21.011873
58.435 21.337328
58.440 21.273336
58.445 21.159718
58.450 21.158564
58.455 21.780098
58.460 21.825588
58.465 21.824804
58.470 22.752054
58.475 22.804333
58.480 23.737534
58.485 24.479267
58.490 25.011616
58.495 25.67598
58.500 25.769831
58.505 25.71908
58.510 26.316843
58.515 26.417395
58.520 26.507235
58.525 26.438738
58.530 26.458265
58.535 26.786263
58.540 27.714762
58.545 28.236374
58.550 27.922426
58.555 28.28657
58.560 28.657063
58.565 28.943701
58.570 28.912142
58.575 28.356846
58.580 28.681904
58.585 29.14888
58.590 29.553417
58.595 30.328724
58.600 31.026159
58.605 31.601353
58.610 31.36323
58.615 31.627831
58.620 31.750454
58.625 31.543823
58.630 31.292736
58.635 31.456171
58.640 32.154549
58.645 33.002464
58.650 33.197155
58.655 33.531639
58.660 33.865829
58.665 33.487213
58.670 32.90379
58.675 32.571075
58.680 32.352936
58.685 32.466782
58.690 32.639648
58.695 33.050026
58.700 33.137421
58.705 33.070229
58.710 33.287067
58.715 33.940281
58.720 33.626389
58.725 33.50803
58.730 32.553146
58.735 32.50478
58.740 32.895889
58.745 31.856092
58.750 30.520607
58.755 30.47291
58.760 30.315128
58.765 29.664043
58.770 29.613726
58.775 29.649469
58.780 30.044889
58.785 30.205118
58.790 29.495499
58.795 29.313404
58.800 29.539831
58.805 28.983515
58.810 27.862022
58.815 27.154306
58.820 27.09572
58.825 26.702141
58.830 25.659672
58.835 25.266188
58.840 25.037165
58.845 24.753061
58.850 24.419489
58.855 24.44272
58.860 24.693041
58.865 25.19264
58.870 25.217422
58.875 25.033142
58.880 25.003939
58.885 24.668144
58.890 23.822905
58.895 23.871719
58.900 23.295435
58.905 22.682756
58.910 21.891848
58.915 21.127754
58.920 20.121059
58.925 19.312639
58.930 18.335661
58.935 17.983593
58.940 17.490343
58.945 17.189722
58.950 17.618179
58.955 18.178165
58.960 18.410366
58.965 18.258669
58.970 17.799082
58.975 17.768488
58.980 18.156038
58.985 18.296534
58.990 18.144241
58.995 18.200024
59.000 17.957081
59.005 18.201269
59.010 18.112425
59.015 17.921991
59.020 17.572411
59.025 17.21859
59.030 17.162073
59.035 17.863337
59.040 17.756088
59.045 17.673687
59.050 16.689247
59.055 15.684571
59.060 15.270632
59.065 14.85765
59.070 14.718553
59.075 14.321999
59.080 13.910644
59.085 13.815949
59.090 14.376475
59.095 14.980527
59.100 15.016471
59.105 14.238398
59.110 13.984691
59.115 14.796123
59.120 15.151361
59.125 15.078349
59.130 14.921691
59.135 15.01537
59.140 15.618015
59.145 15.90141
59.150 16.148407
59.155 16.450603
59.160 16.987694
59.165 16.955454
59.170 16.728542
59.175 16.91061
59.180 16.677872
59.185 15.645409
59.190 15.475083
59.195 15.430925
59.200 15.497258
59.205 15.471704
59.210 15.315694
59.215 14.961987
59.220 15.060515
59.225 14.912776
59.230 14.548664
59.235 14.448027
59.240 14.572121
59.245 14.2797
59.250 14.866267
59.255 15.176749
59.260 15.487098
59.265 15.386465
59.270 15.267464
59.275 14.81867
59.280 14.812908
59.285 14.924959
59.290 14.585823
59.295 13.970366
59.300 13.709089
59.305 13.515184
59.310 13.750494
59.315 13.959473
59.320 13.015309
59.325 13.766069
59.330 13.90678
59.335 14.0277
59.340 14.365718
59.345 14.033041
59.350 13.891841
59.355 14.206209
59.360 13.86914
59.365 14.159016
59.370 14.481942
59.375 14.647162
59.380 15.023445
59.385 15.536645
59.390 15.959131
59.395 15.84618
59.400 15.753618
59.405 15.47508
59.410 15.150846
59.415 14.556313
59.420 13.620329
59.425 12.748689
59.430 13.211661
59.435 13.164488
59.440 13.795169
59.445 14.057929
59.450 14.242988
59.455 14.250548
59.460 14.478543
59.465 14.372294
59.470 14.620404
59.475 14.218289
59.480 14.340656
59.485 14.656338
59.490 15.015303
59.495 14.994277
59.500 14.520537
59.505 14.19386
59.510 13.967299
59.515 13.668591
59.520 13.553707
59.525 13.722907
59.530 13.684266
59.535 13.680513
59.540 13.535313
59.545 13.841597
59.550 13.79427
59.555 13.38517
59.560 13.073217
59.565 13.038185
59.570 12.674541
59.575 12.788102
59.580 12.604876
59.585 13.285189
59.590 13.478917
59.595 13.643585
59.600 14.307105
59.605 14.946913
59.610 15.057453
59.615 15.441147
59.620 15.097672
59.625 15.394373
59.630 15.450851
59.635 15.043781
59.640 14.780059
59.645 14.647099
59.650 14.350263
59.655 14.426722
59.660 14.344804
59.665 13.656137
59.670 13.643847
59.675 14.030282
59.680 14.324055
59.685 14.397591
59.690 14.548277
59.695 14.96171
59.700 15.77557
59.705 15.442772
59.710 15.124144
59.715 15.026552
59.720 14.891582
59.725 14.897616
59.730 14.659277
59.735 14.116488
59.740 14.164553
59.745 13.763108
59.750 13.574523
59.755 13.44927
59.760 12.941448
59.765 13.194857
59.770 14.529629
59.775 15.287223
59.780 16.013407
59.785 16.224915
59.790 16.500689
59.795 16.923016
59.800 16.504929
59.805 15.091192
59.810 14.756067
59.815 14.379505
59.820 14.334332
59.825 13.970282
59.830 13.7527
59.835 13.726181
59.840 13.820249
59.845 14.003476
59.850 14.107844
59.855 14.257413
59.860 14.653842
59.865 14.451343
59.870 14.690317
59.875 15.034947
59.880 14.410218
59.885 13.86201
59.890 13.749203
59.895 13.973612
59.900 14.592034
59.905 14.399126
59.910 14.27075
59.915 15.02665
59.920 15.368958
59.925 15.41765
59.930 15.048889
59.935 14.440304
59.940 14.236573
59.945 14.103461
59.950 13.971443
59.955 14.697209
59.960 14.507496
59.965 14.151219
59.970 14.194627
59.975 14.440434
59.980 14.393747
59.985 13.678607
59.990 12.673531
59.995 12.645989
60.000 12.787713
60.005 12.337432
60.010 12.082554
60.015 12.483716
60.020 12.401373
60.025 12.911229
60.030 13.133469
60.035 13.115619
60.040 13.532254
60.045 14.293481
60.050 14.601172
60.055 14.823852
60.060 14.901243
60.065 14.944638
60.070 15.506186
60.075 15.543585
60.080 14.549646
60.085 14.617236
60.090 14.622812
60.095 14.449286
60.100 14.000873
60.105 13.523755
60.110 13.319832
60.115 12.826983
60.120 12.28724
60.125 12.288155
60.130 12.165773
60.135 12.835071
60.140 12.855243
60.145 13.00166
60.150 13.759163
60.155 13.955668
60.160 14.372793
60.165 14.605042
60.170 14.75439
60.175 14.887129
60.180 15.214411
60.185 14.823366
60.190 14.175762
60.195 13.92294
60.200 13.86822
60.205 14.087459
60.210 14.057821
60.215 13.871368
60.220 14.450349
60.225 14.675279
60.230 14.550248
60.235 14.624507
60.240 14.500461
60.245 14.308858
60.250 14.4065
60.255 14.166935
60.260 14.369905
60.265 14.296679
60.270 13.935344
60.275 13.664078
60.280 13.797602
60.285 13.64275
60.290 13.950793
60.295 13.63435
60.300 13.488429
60.305 13.925188
60.310 14.101134
60.315 14.037275
60.320 14.621148
60.325 15.236979
60.330 15.720331
60.335 15.626727
60.340 14.965565
60.345 14.762097
60.350 14.891497
60.355 14.665902
60.360 14.076341
60.365 14.305687
60.370 14.449825
60.375 14.469234
60.380 14.635511
60.385 14.731224
60.390 14.412143
60.395 14.976953
60.400 15.021821
60.405 15.370789
60.410 15.631501
60.415 16.023407
60.420 16.810514
60.425 16.874899
60.430 16.575689
60.435 16.507805
60.440 16.410454
60.445 16.532297
60.450 16.171778
60.455 15.996175
60.460 15.49178
60.465 15.221268
60.470 15.614796
60.475 15.442346
60.480 15.175754
60.485 15.192114
60.490 14.749334
60.495 14.930427
60.500 14.832985
60.505 14.496638
60.510 14.404324
60.515 14.367954
60.520 14.631585
60.525 14.81489
60.530 14.917731
60.535 14.638605
60.540 14.456166
60.545 14.299645
60.550 14.454526
60.555 13.938404
60.560 13.769996
60.565 13.769793
60.570 14.032623
60.575 14.835601
60.580 14.911192
60.585 14.399996
60.590 14.428075
60.595 14.497495
60.600 14.619038
60.605 14.886468
60.610 14.507034
60.615 14.524069
60.620 15.064681
60.625 15.341301
60.630 15.891976
60.635 16.012772
60.640 15.453335
60.645 15.497652
60.650 15.989831
60.655 15.71004
60.660 15.272157
60.665 14.903821
60.670 14.717999
60.675 14.679919
60.680 13.706874
60.685 13.754175
60.690 13.957946
60.695 14.244297
60.700 14.294384
60.705 14.629095
60.710 14.718554
60.715 15.266071
60.720 14.862206
60.725 14.460513
60.730 14.381984
60.735 14.491937
60.740 13.834614
60.745 13.820724
60.750 14.218533
60.755 14.206333
60.760 14.364659
60.765 14.332654
60.770 13.890462
60.775 14.252312
60.780 14.317368
60.785 14.215794
60.790 14.934353
60.795 15.588095
60.800 15.409406
60.805 15.778663
60.810 16.063826
60.815 16.887299
60.820 16.800211
60.825 16.172052
60.830 15.920979
60.835 15.964101
60.840 16.040251
60.845 16.08061
60.850 15.446074
60.855 14.995659
60.860 15.188867
60.865 15.171633
60.870 15.493645
60.875 15.296647
60.880 15.020037
60.885 15.171549
60.890 15.327108
60.895 15.065155
60.900 15.414912
60.905 15.450038
60.910 15.373205
60.915 15.297318
60.920 15.085566
60.925 15.719558
60.930 15.767555
60.935 15.103107
60.940 14.421038
60.945 14.239652
60.950 15.009953
60.955 15.46488
60.960 15.009952
60.965 15.001553
60.970 14.984344
60.975 15.069914
60.980 15.14908
60.985 14.445898
60.990 13.951755
60.995 13.835396
61.000 13.710305
61.005 13.6461
61.010 13.605873
61.015 13.501907
61.020 13.35217
61.025 13.861465
61.030 14.171796
61.035 14.392159
61.040 14.429561
61.045 14.724888
61.050 15.54171
61.055 15.711871
61.060 15.205394
61.065 15.197634
61.070 15.548933
61.075 15.988657
61.080 16.047842
61.085 15.307379
61.090 14.97311
61.095 14.851659
61.100 14.250903
61.105 13.569714
61.110 12.80478
61.115 12.802303
61.120 13.249835
61.125 13.75307
61.130 14.283463
61.135 15.209786
61.140 15.366095
61.145 15.643037
61.150 15.640817
61.155 15.606382
61.160 15.494599
61.165 15.546097
61.170 14.674142
61.175 14.499338
61.180 14.578252
61.185 14.656904
61.190 14.651321
61.195 14.863471
61.200 15.20926
61.205 16.273737
61.210 16.583359
61.215 16.394356
61.220 16.678139
61.225 16.896435
61.230 16.790493
61.235 16.369743
61.240 16.108854
61.245 16.226252
61.250 16.230816
61.255 15.797157
61.260 15.501014
61.265 15.599531
61.270 15.266777
61.275 14.685855
61.280 14.470493
61.285 14.679606
61.290 14.750937
61.295 14.5328
61.300 14.0015
61.305 14.346157
61.310 14.852929
61.315 15.246793
61.320 15.709713
61.325 16.095619
61.330 16.39146
61.335 16.462481
61.340 15.925036
61.345 15.815977
61.350 15.135437
61.355 13.996946
61.360 13.523513
61.365 13.204845
61.370 13.195666
61.375 13.954357
61.380 14.075575
61.385 14.765339
61.390 15.521287
61.395 15.706153
61.400 16.083265
61.405 15.868582
61.410 15.343879
61.415 15.539962
61.420 15.154804
61.425 14.992007
61.430 15.155192
61.435 15.51135
61.440 15.928113
61.445 16.235039
61.450 16.648113
61.455 16.980776
61.460 16.629147
61.465 15.949494
61.470 15.487114
61.475 15.343077
61.480 14.933126
61.485 14.464966
61.490 14.436248
61.495 14.422151
61.500 14.456691
61.505 13.967811
61.510 13.853683
61.515 13.693706
61.520 13.466443
61.525 13.402665
61.530 13.694939
61.535 14.00843
61.540 14.492818
61.545 15.055369
61.550 15.523715
61.555 15.968242
61.560 15.965387
61.565 15.564323
61.570 15.409696
61.575 15.312923
61.580 14.758265
61.585 14.806843
61.590 14.851434
61.595 15.059143
61.600 15.117185
61.605 14.888346
61.610 14.693199
61.615 14.291136
61.620 14.351009
61.625 13.800118
61.630 13.884932
61.635 14.214758
61.640 14.499404
61.645 14.569539
61.650 14.286989
61.655 14.369397
61.660 14.673277
61.665 14.535364
61.670 14.706881
61.675 14.919127
61.680 15.057987
61.685 15.229314
61.690 14.800908
61.695 14.706167
61.700 14.581629
61.705 14.498566
61.710 14.246422
61.715 14.465382
61.720 15.234086
61.725 15.521856
61.730 15.459582
61.735 15.386785
61.740 15.407761
61.745 15.881887
61.750 15.834645
61.755 15.716359
61.760 15.491912
61.765 15.53588
61.770 15.881551
61.775 15.869367
61.780 15.386464
61.785 15.553658
61.790 15.513515
61.795 15.50459
61.800 15.30178
61.805 14.802483
61.810 14.765852
61.815 14.795602
61.820 14.015767
61.825 14.086942
61.830 14.288445
61.835 14.403235
61.840 14.629213
61.845 14.67033
61.850 14.919667
61.855 15.797708
61.860 15.708721
61.865 15.99924
61.870 16.200027
61.875 16.05422
61.880 16.24209
61.885 16.167841
61.890 16.31271
61.895 16.277206
61.900 16.717701
61.905 16.876442
61.910 17.285517
61.915 17.388966
61.920 17.079659
61.925 16.732895
61.930 16.443398
61.935 16.010469
61.940 15.693648
61.945 15.977405
61.950 15.785872
61.955 15.754428
61.960 15.163077
61.965 14.973976
61.970 15.346479
61.975 15.420396
61.980 14.734789
61.985 14.206503
61.990 14.431506
61.995 14.825784
62.000 14.553618
62.005 14.274797
62.010 14.141448
62.015 14.025913
62.020 14.373219
62.025 14.524526
62.030 14.773012
62.035 15.128101
62.040 14.794219
62.045 15.055223
62.050 15.401387
62.055 15.770626
62.060 16.174971
62.065 16.032667
62.070 16.266834
62.075 16.411297
62.080 16.046206
62.085 16.25507
62.090 16.190855
62.095 15.618489
62.100 15.658421
62.105 15.127089
62.110 14.91744
62.115 15.237019
62.120 15.228962
62.125 15.26414
62.130 15.186082
62.135 15.547046
62.140 16.003042
62.145 16.421177
62.150 15.957881
62.155 15.86903
62.160 16.001245
62.165 16.702404
62.170 16.956179
62.175 17.205626
62.180 17.253792
62.185 17.365904
62.190 17.108749
62.195 16.494482
62.200 15.782894
62.205 15.018619
62.210 14.54535
62.215 14.635824
62.220 14.670963
62.225 14.551917
62.230 14.585355
62.235 14.296306
62.240 14.658784
62.245 15.107949
62.250 15.338964
62.255 15.265115
62.260 15.427448
62.265 15.855507
62.270 15.618723
62.275 15.143476
62.280 14.440141
62.285 14.083721
62.290 13.809781
62.295 13.657488
62.300 13.604168
62.305 14.131351
62.310 14.761561
62.315 15.044328
62.320 15.306288
62.325 16.248987
62.330 16.137371
62.335 16.252731
62.340 15.942295
62.345 15.397022
62.350 15.232053
62.355 14.577675
62.360 14.29303
62.365 14.575159
62.370 14.424813
62.375 14.513404
62.380 14.444934
62.385 14.771331
62.390 14.509558
62.395 14.031005
62.400 14.317677
62.405 14.501646
62.410 14.679775
62.415 15.355846
62.420 15.559175
62.425 16.165056
62.430 16.257622
62.435 15.72893
62.440 15.569498
62.445 15.807377
62.450 15.584315
62.455 15.653165
62.460 15.75115
62.465 15.962028
62.470 16.440926
62.475 16.98609
62.480 17.142885
62.485 16.802021
62.490 16.263184
62.495 16.173191
62.500 16.462891
62.505 16.311737
62.510 15.294394
62.515 14.637274
62.520 14.837376
62.525 15.529089
62.530 15.618155
62.535 15.507928
62.540 15.245031
62.545 15.634087
62.550 16.312099
62.555 16.348351
62.560 16.645617
62.565 16.766428
62.570 16.964636
62.575 16.845993
62.580 16.853971
62.585 16.523775
62.590 16.660055
62.595 15.735952
62.600 15.642541
62.605 15.16767
62.610 14.980758
62.615 14.419602
62.620 14.264899
62.625 14.288778
62.630 14.692983
62.635 14.762257
62.640 14.982414
62.645 15.449431
62.650 15.640801
62.655 15.552245
62.660 15.748162
62.665 15.648162
62.670 15.418453
62.675 15.360555
62.680 15.257289
62.685 15.483876
62.690 15.504386
62.695 15.041658
62.700 14.902405
62.705 15.253981
62.710 15.849138
62.715 16.147497
62.720 15.9622
62.725 15.816489
62.730 16.290432
62.735 16.639002
62.740 16.410572
62.745 16.039371
62.750 16.251488
62.755 16.793346
62.760 17.45225
62.765 17.337358
62.770 17.220779
62.775 16.922146
62.780 16.436947
62.785 15.81969
62.790 15.578655
62.795 14.615304
62.800 13.695249
62.805 13.951283
62.810 14.355337
62.815 15.09448
62.820 15.893275
62.825 15.684248
62.830 15.932713
62.835 16.434156
62.840 16.384789
62.845 16.14719
62.850 15.822089
62.855 15.730796
62.860 16.334797
62.865 16.946518
62.870 16.209755
62.875 15.903419
62.880 15.761768
62.885 15.94487
62.890 15.529338
62.895 14.860387
62.900 14.447268
62.905 14.632871
62.910 14.549997
62.915 14.644122
62.920 14.567111
62.925 14.679326
62.930 15.055271
62.935 14.989973
62.940 15.098151
62.945 15.115973
62.950 15.468863
62.955 15.444134
62.960 15.019821
62.965 15.575071
62.970 15.793074
62.975 15.753577
62.980 16.03508
62.985 16.40906
62.990 17.132313
62.995 17.482847
63.000 17.054617
63.005 17.490654
63.010 18.050529
63.015 17.769741
63.020 16.982296
63.025 16.420383
63.030 16.548439
63.035 16.884239
63.040 16.378201
63.045 15.821859
63.050 15.944802
63.055 15.724314
63.060 15.307428
63.065 14.976891
63.070 14.909544
63.075 15.382612
63.080 15.656556
63.085 15.648489
63.090 15.548774
63.095 15.915632
63.100 16.028173
63.105 16.065702
63.110 16.723976
63.115 17.102713
63.120 17.593292
63.125 18.046667
63.130 17.641283
63.135 17.437487
63.140 16.781334
63.145 15.936554
63.150 14.831849
63.155 14.621689
63.160 15.050607
63.165 15.206052
63.170 15.180171
63.175 15.009027
63.180 14.720117
63.185 14.867394
63.190 14.576299
63.195 14.30653
63.200 14.472769
63.205 14.72524
63.210 14.759178
63.215 15.075422
63.220 15.563799
63.225 15.37814
63.230 15.109136
63.235 14.837683
63.240 14.924489
63.245 15.638213
63.250 15.956464
63.255 16.178701
63.260 15.881001
63.265 15.936782
63.270 16.053566
63.275 16.196247
63.280 16.664328
63.285 16.545061
63.290 16.502197
63.295 17.102285
63.300 17.4466
63.305 17.780878
63.310 18.168472
63.315 17.648491
63.320 17.68469
63.325 17.220987
63.330 17.386112
63.335 16.985167
63.340 16.849558
63.345 16.777525
63.350 16.727133
63.355 16.56254
63.360 17.010303
63.365 16.992514
63.370 17.220282
63.375 17.033932
63.380 16.811247
63.385 16.659273
63.390 16.77347
63.395 16.201374
63.400 15.790281
63.405 15.468313
63.410 15.116906
63.415 14.610024
63.420 14.919447
63.425 15.138785
63.430 16.128397
63.435 17.128862
63.440 17.777847
63.445 18.535284
63.450 19.050161
63.455 18.69887
63.460 18.449194
63.465 17.731327
63.470 16.968151
63.475 16.694901
63.480 16.671154
63.485 16.541441
63.490 16.929945
63.495 16.737755
63.500 16.685448
63.505 16.873522
63.510 16.98464
63.515 16.989239
63.520 17.396887
63.525 17.353561
63.530 17.600315
63.535 17.295671
63.540 17.353497
63.545 17.346823
63.550 17.139801
63.555 16.684975
63.560 16.402245
63.565 16.670061
63.570 17.059189
63.575 16.701347
63.580 16.683233
63.585 16.730621
63.590 16.818802
63.595 16.978437
63.600 16.843729
63.605 16.4615
63.610 16.473425
63.615 16.342695
63.620 16.412384
63.625 16.91151
63.630 17.373407
63.635 17.764826
63.640 18.198235
63.645 18.243252
63.650 18.107437
63.655 17.802034
63.660 17.082634
63.665 16.365574
63.670 16.197115
63.675 16.295494
63.680 16.325146
63.685 16.337351
63.690 15.792089
63.695 15.43142
63.700 15.400914
63.705 15.563067
63.710 15.715322
63.715 15.735555
63.720 16.39674
63.725 17.053322
63.730 17.819809
63.735 18.346994
63.740 18.364666
63.745 17.834246
63.750 17.792179
63.755 17.606955
63.760 17.903885
63.765 18.050348
63.770 18.04188
63.775 17.499865
63.780 17.75235
63.785 17.815931
63.790 17.877153
63.795 17.771267
63.800 17.475134
63.805 17.692627
63.810 18.046816
63.815 18.212961
63.820 17.807404
63.825 17.487858
63.830 17.557133
63.835 17.968092
63.840 17.568895
63.845 17.512957
63.850 17.397026
63.855 17.275745
63.860 17.259895
63.865 17.544071
63.870 17.968315
63.875 18.417646
63.880 18.700842
63.885 19.155355
63.890 19.750078
63.895 20.204634
63.900 19.904562
63.905 19.575022
63.910 19.164021
63.915 19.038502
63.920 18.44162
63.925 18.117443
63.930 17.882236
63.935 17.614313
63.940 16.756325
63.945 17.218876
63.950 17.054928
63.955 17.239319
63.960 17.716269
63.965 18.219463
63.970 18.142414
63.975 19.039734
63.980 19.072905
63.985 19.25079
63.990 19.207024
63.995 19.13537
64.000 19.30554
64.005 19.803955
64.010 20.618561
64.015 21.163074
64.020 21.60742
64.025 22.043926
64.030 22.069628
64.035 22.197819
64.040 21.600327
64.045 21.222923
64.050 21.624527
64.055 21.368889
64.060 21.132139
64.065 21.591381
64.070 21.814722
64.075 22.726212
64.080 22.69743
64.085 22.793047
64.090 23.604166
64.095 23.704021
64.100 24.512644
64.105 24.516951
64.110 24.785395
64.115 24.641701
64.120 24.374735
64.125 25.185236
64.130 25.787788
64.135 25.05409
64.140 25.195595
64.145 25.662588
64.150 26.265158
64.155 26.673452
64.160 25.985126
64.165 26.084427
64.170 27.180958
64.175 27.140152
64.180 26.297092
64.185 26.853477
64.190 27.263248
64.195 27.860897
64.200 28.295687
64.205 28.536875
64.210 29.024529
64.215 29.687737
64.220 29.693035
64.225 31.157309
64.230 32.113159
64.235 32.560619
64.240 32.858471
64.245 34.248543
64.250 34.585766
64.255 35.933159
64.260 35.697395
64.265 35.468788
64.270 36.272961
64.275 36.296322
64.280 36.30085
64.285 36.932163
64.290 37.488064
64.295 38.810257
64.300 40.05183
64.305 40.172173
64.310 40.768723
64.315 40.900032
64.320 41.370998
64.325 41.627075
64.330 41.07238
64.335 40.894592
64.340 41.390858
64.345 42.40237
64.350 43.789989
64.355 44.68174
64.360 45.860825
64.365 46.697327
64.370 47.830261
64.375 49.019604
64.380 49.040295
64.385 48.373398
64.390 47.845024
64.395 46.935837
64.400 46.772694
64.405 46.229961
64.410 46.364666
64.415 46.305767
64.420 46.778206
64.425 47.107452
64.430 48.491425
64.435 49.322342
64.440 49.613434
64.445 48.967625
64.450 48.50346
64.455 48.629375
64.460 48.160538
64.465 47.607212
64.470 46.734528
64.475 46.114868
64.480 45.308189
64.485 45.42947
64.490 45.116352
64.495 45.441765
64.500 44.353291
64.505 43.8526
64.510 43.214893
64.515 43.236458
64.520 42.386448
64.525 41.709316
64.530 40.927372
64.535 40.908409
64.540 40.832569
64.545 41.160915
64.550 40.712978
64.555 40.442368
64.560 40.541271
64.565 40.578922
64.570 40.325432
64.575 39.775177
64.580 39.412426
64.585 39.245415
64.590 38.84763
64.595 38.411762
64.600 37.156403
64.605 36.344208
64.610 36.555729
64.615 35.853767
64.620 35.869804
64.625 36.201946
64.630 36.103161
64.635 35.587921
64.640 35.38327
64.645 35.04501
64.650 34.843567
64.655 34.580769
64.660 33.790565
64.665 32.720894
64.670 32.284924
64.675 30.841808
64.680 29.251709
64.685 28.814791
64.690 27.519794
64.695 27.452066
64.700 27.983519
64.705 28.536268
64.710 28.206709
64.715 28.032488
64.720 27.994074
64.725 28.176477
64.730 27.235126
64.735 26.330011
64.740 25.770302
64.745 25.656406
64.750 26.039871
64.755 25.328924
64.760 24.920538
64.765 25.105837
64.770 25.073238
64.775 24.499165
64.780 24.755192
64.785 24.032335
64.790 23.680559
64.795 23.69698
64.800 23.249178
64.805 22.618532
64.810 22.621326
64.815 22.11702
64.820 22.43153
64.825 22.805361
64.830 22.979521
64.835 23.009769
64.840 23.476097
64.845 23.479549
64.850 23.465256
64.855 23.409464
64.860 22.907997
64.865 22.769674
64.870 22.815825
64.875 22.659962
64.880 22.30418
64.885 22.464323
64.890 22.54306
64.895 22.53694
64.900 22.454517
64.905 22.38567
64.910 23.147215
64.915 23.583012
64.920 23.6129
64.925 23.868729
64.930 24.148119
64.935 24.631029
64.940 25.604666
64.945 25.281776
64.950 25.825453
64.955 25.210981
64.960 25.4596
64.965 26.332605
64.970 26.806555
64.975 26.938698
64.980 27.314392
64.985 28.010206
64.990 29.368784
64.995 29.182489
65.000 28.557615
65.005 28.557455
65.010 28.502762
65.015 28.62842
65.020 28.800896
65.025 28.87977
65.030 29.323975
65.035 30.23777
65.040 30.416327
65.045 30.607584
65.050 31.428947
65.055 31.426937
65.060 31.123672
65.065 31.200567
65.070 31.253023
65.075 31.775116
65.080 32.100933
65.085 31.751236
65.090 32.372871
65.095 32.710773
65.100 32.573463
65.105 32.293091
65.110 31.945993
65.115 31.500031
65.120 31.143894
65.125 30.415281
65.130 29.800894
65.135 30.298317
65.140 31.177059
65.145 31.906982
65.150 33.017681
65.155 33.849583
65.160 34.248173
65.165 34.994015
65.170 35.251251
65.175 35.112282
65.180 35.16251
65.185 34.923294
65.190 34.521339
65.195 34.812077
65.200 35.380569
65.205 36.052784
65.210 36.56163
65.215 35.963932
65.220 35.751789
65.225 35.924164
65.230 36.07465
65.235 36.129353
65.240 35.859276
65.245 35.648781
65.250 35.934464
65.255 35.945484
65.260 36.520454
65.265 36.885975
65.270 36.713238
65.275 36.054699
65.280 35.384808
65.285 35.341682
65.290 35.005917
65.295 34.51099
65.300 34.979588
65.305 35.220097
65.310 36.374416
65.315 36.192966
65.320 36.19836
65.325 36.495502
65.330 36.65987
65.335 36.552322
65.340 37.012287
65.345 36.64629
65.350 37.299427
65.355 37.489727
65.360 37.425262
65.365 36.861172
65.370 36.064377
65.375 35.25024
65.380 35.301067
65.385 35.980312
65.390 36.209991
65.395 36.578327
65.400 36.438202
65.405 36.711254
65.410 37.157864
65.415 37.152798
65.420 36.070198
65.425 36.077942
65.430 36.707954
65.435 37.605442
65.440 37.68647
65.445 37.414234
65.450 37.116833
65.455 38.242558
65.460 38.03743
65.465 37.66745
65.470 37.18045
65.475 37.305389
65.480 37.905437
65.485 38.405418
65.490 38.368462
65.495 39.062866
65.500 39.517872
65.505 40.10524
65.510 39.424599
65.515 38.805447
65.520 38.224297
65.525 37.529583
65.530 36.992794
65.535 37.000229
65.540 36.456711
65.545 36.203857
65.550 35.950954
65.555 35.999405
65.560 35.769852
65.565 35.614574
65.570 35.126659
65.575 35.270367
65.580 36.59988
65.585 36.92458
65.590 36.643333
65.595 36.919827
65.600 36.858131
65.605 36.433098
65.610 36.592125
65.615 36.866505
65.620 37.178982
65.625 37.75864
65.630 37.516994
65.635 37.827286
65.640 38.28257
65.645 38.594982
65.650 37.832424
65.655 37.103016
65.660 36.596802
65.665 36.347336
65.670 35.674362
65.675 35.199409
65.680 35.108227
65.685 35.071815
65.690 35.277512
65.695 34.527454
65.700 33.8671
65.705 33.32523
65.710 33.225525
65.715 32.299454
65.720 30.994747
65.725 29.916048
65.730 29.955269
65.735 30.051497
65.740 30.261885
65.745 29.881374
65.750 29.883516
65.755 30.321217
65.760 30.874372
65.765 31.20285
65.770 31.634768
65.775 31.434202
65.780 31.237347
65.785 30.185831
65.790 29.864483
65.795 28.943798
65.800 27.658089
65.805 26.838064
65.810 26.859278
65.815 26.766069
65.820 27.422655
65.825 26.708113
65.830 26.473516
65.835 26.469021
65.840 26.524334
65.845 26.539072
65.850 25.827576
65.855 25.66173
65.860 26.472849
65.865 26.287687
65.870 26.18359
65.875 26.008127
65.880 25.263426
65.885 24.968292
65.890 23.598864
65.895 23.285166
65.900 23.763624
65.905 23.60919
65.910 23.053661
65.915 23.124739
65.920 23.618465
65.925 23.714945
65.930 23.554195
65.935 22.977701
65.940 23.043972
65.945 23.255478
65.950 23.281153
65.955 22.87874
65.960 22.701317
65.965 22.32078
65.970 22.277145
65.975 21.910007
65.980 22.072523
65.985 21.730137
65.990 21.348001
65.995 21.345181
66.000 21.446575
66.005 21.29467
66.010 20.853056
66.015 20.407429
66.020 20.247839
66.025 20.053633
66.030 18.911167
66.035 18.517239
66.040 18.541092
66.045 18.560972
66.050 18.389393
66.055 18.667658
66.060 19.396149
66.065 20.131735
66.070 19.714525
66.075 19.199226
66.080 19.470303
66.085 19.275082
66.090 19.298487
66.095 19.437115
66.100 19.401588
66.105 19.765409
66.110 20.069092
66.115 20.304092
66.120 20.162746
66.125 19.576107
66.130 18.852575
66.135 18.943848
66.140 18.656744
66.145 18.458534
66.150 18.12195
66.155 18.298277
66.160 18.388132
66.165 18.268784
66.170 17.669544
66.175 17.432562
66.180 17.065046
66.185 16.781656
66.190 16.750322
66.195 16.87031
66.200 17.246609
66.205 17.753195
66.210 18.261667
66.215 18.346035
66.220 18.574305
66.225 18.641199
66.230 18.369417
66.235 18.170017
66.240 17.858444
66.245 17.49864
66.250 17.468958
66.255 17.125271
66.260 17.144768
66.265 17.974634
66.270 17.877405
66.275 17.572966
66.280 17.660677
66.285 18.118416
66.290 18.325872
66.295 17.782183
66.300 17.036238
66.305 17.249388
66.310 17.829008
66.315 17.587572
66.320 17.217087
66.325 17.280966
66.330 17.576874
66.335 17.48188
66.340 16.76701
66.345 16.44013
66.350 16.428625
66.355 16.840591
66.360 16.813955
66.365 16.880198
66.370 17.32798
66.375 17.664915
66.380 17.636623
66.385 18.172724
66.390 17.959604
66.395 17.45521
66.400 17.016262
66.405 16.630562
66.410 17.12211
66.415 17.375748
66.420 17.628662
66.425 18.130295
66.430 18.571596
66.435 18.349276
66.440 18.087852
66.445 17.063717
66.450 17.069021
66.455 16.384933
66.460 15.727784
66.465 15.839754
66.470 16.526209
66.475 16.703438
66.480 17.760712
66.485 17.314489
66.490 17.872578
66.495 18.302595
66.500 18.06757
66.505 18.224548
66.510 18.137854
66.515 17.283764
66.520 16.813761
66.525 16.565752
66.530 16.512541
66.535 16.744272
66.540 16.785158
66.545 17.015913
66.550 17.788431
66.555 18.177509
66.560 18.44174
66.565 18.559937
66.570 18.794037
66.575 18.692272
66.580 18.281485
66.585 18.025862
66.590 17.78335
66.595 17.311535
66.600 16.722498
66.605 16.985172
66.610 17.137367
66.615 17.352066
66.620 16.996595
66.625 16.64752
66.630 16.831081
66.635 17.43701
66.640 17.245564
66.645 17.30541
66.650 17.209009
66.655 17.751837
66.660 18.669859
66.665 18.619909
66.670 18.329857
66.675 18.076935
66.680 18.196003
66.685 18.541142
66.690 18.442869
66.695 18.310284
66.700 18.682323
66.705 18.865229
66.710 18.965982
66.715 18.84495
66.720 18.461102
66.725 18.250219
66.730 17.726807
66.735 16.869707
66.740 16.61437
66.745 16.292257
66.750 16.665125
66.755 17.04447
66.760 17.899216
66.765 18.319593
66.770 18.628946
66.775 18.945963
66.780 18.489929
66.785 17.978939
66.790 17.59494
66.795 16.89603
66.800 16.55365
66.805 16.316982
66.810 15.820251
66.815 16.547354
66.820 16.981094
66.825 17.136536
66.830 17.521624
66.835 17.764526
66.840 18.012531
66.845 18.212986
66.850 17.969767
66.855 17.597445
66.860 17.587893
66.865 16.978916
66.870 16.708395
66.875 16.526407
66.880 16.865898
66.885 16.681477
66.890 16.419201
66.895 16.44273
66.900 16.610733
66.905 16.835938
66.910 16.788195
66.915 16.710495
66.920 16.669666
66.925 16.833002
66.930 16.781803
66.935 17.11482
66.940 17.492601
66.945 17.372755
66.950 17.439194
66.955 17.970108
66.960 18.42787
66.965 18.594336
66.970 18.477318
66.975 18.254055
66.980 18.39982
66.985 18.398193
66.990 18.124294
66.995 17.847174
67.000 17.587465
67.005 17.79249
67.010 17.730156
67.015 17.74185
67.020 17.987816
67.025 17.753895
67.030 17.154305
67.035 17.202623
67.040 17.674486
67.045 17.883581
67.050 17.839369
67.055 17.523911
67.060 17.576105
67.065 17.867012
67.070 17.200241
67.075 16.398779
67.080 16.199762
67.085 16.093948
67.090 15.940992
67.095 16.030777
67.100 15.570107
67.105 16.190704
67.110 16.175749
67.115 16.506298
67.120 17.293171
67.125 17.652617
67.130 18.221294
67.135 18.712091
67.140 18.611799
67.145 18.870907
67.150 18.57201
67.155 18.45985
67.160 17.848417
67.165 17.294792
67.170 17.300648
67.175 17.325624
67.180 17.340477
67.185 17.580616
67.190 17.339117
67.195 17.801929
67.200 17.889797
67.205 17.794306
67.210 17.700199
67.215 17.736652
67.220 17.643284
67.225 17.687874
67.230 17.579805
67.235 17.356035
67.240 17.493979
67.245 17.670168
67.250 17.675753
67.255 17.506695
67.260 17.827265
67.265 17.547749
67.270 17.693737
67.275 18.049078
67.280 18.094025
67.285 18.160088
67.290 18.084154
67.295 17.986301
67.300 18.496288
67.305 18.905519
67.310 18.865225
67.315 18.696268
67.320 18.722563
67.325 18.999603
67.330 18.78722
67.335 18.627155
67.340 18.183722
67.345 18.071493
67.350 17.525732
67.355 17.090635
67.360 16.838652
67.365 16.922611
67.370 16.598505
67.375 16.846121
67.380 16.974501
67.385 17.242905
67.390 17.05146
67.395 17.211094
67.400 17.366642
67.405 17.572834
67.410 17.496914
67.415 17.302856
67.420 17.369125
67.425 17.593483
67.430 16.809534
67.435 16.705709
67.440 16.589607
67.445 16.241774
67.450 16.392103
67.455 16.362856
67.460 16.422529
67.465 16.94285
67.470 16.738358
67.475 16.689499
67.480 17.867147
67.485 18.443077
67.490 18.322857
67.495 18.602739
67.500 18.449469
67.505 18.892511
67.510 18.577589
67.515 17.231449
67.520 17.240061
67.525 17.78063
67.530 17.890354
67.535 17.863688
67.540 17.587002
67.545 17.826214
67.550 18.007059
67.555 17.624743
67.560 17.681623
67.565 17.693195
67.570 17.82711
67.575 18.017939
67.580 18.305113
67.585 18.895744
67.590 19.257547
67.595 19.41497
67.600 19.639847
67.605 19.268379
67.610 18.904793
67.615 18.421412
67.620 18.080791
67.625 17.572954
67.630 17.030666
67.635 16.369171
67.640 16.740776
67.645 17.034389
67.650 16.809063
67.655 16.285177
67.660 16.512085
67.665 16.685163
67.670 16.974863
67.675 16.696341
67.680 17.201633
67.685 17.714739
67.690 18.188337
67.695 17.870825
67.700 17.826677
67.705 18.342928
67.710 18.633934
67.715 18.55921
67.720 18.72979
67.725 18.784161
67.730 19.112265
67.735 19.139433
67.740 18.605871
67.745 18.518591
67.750 18.447962
67.755 17.87475
67.760 17.769224
67.765 17.655371
67.770 17.445423
67.775 17.184216
67.780 16.796434
67.785 16.354858
67.790 16.341772
67.795 16.628342
67.800 16.935781
67.805 17.105686
67.810 17.344471
67.815 17.703205
67.820 18.101913
67.825 18.577721
67.830 18.25536
67.835 17.734762
67.840 18.085396
67.845 18.364426
67.850 18.006746
67.855 17.807512
67.860 17.220812
67.865 17.220488
67.870 17.546217
67.875 17.101656
67.880 17.027966
67.885 17.510941
67.890 17.685749
67.895 18.033287
67.900 18.331003
67.905 18.491825
67.910 18.539852
67.915 18.968166
67.920 18.576416
67.925 18.548456
67.930 18.594017
67.935 18.53138
67.940 18.664991
67.945 19.00881
67.950 18.681002
67.955 19.111835
67.960 19.14357
67.965 19.102919
67.970 18.96883
67.975 19.03495
67.980 18.955879
67.985 19.250946
67.990 18.910484
67.995 18.401669
68.000 17.919844
68.005 17.623238
68.010 16.904385
68.015 16.507746
68.020 16.417448
68.025 16.54953
68.030 16.6889
68.035 17.016657
68.040 17.469713
68.045 17.750841
68.050 17.502342
68.055 16.89389
68.060 16.980221
68.065 17.699894
68.070 17.398035
68.075 16.989056
68.080 17.193832
68.085 17.654121
68.090 18.034805
68.095 18.183634
68.100 18.001474
68.105 18.442097
68.110 18.921581
68.115 19.296459
68.120 19.137728
68.125 19.449387
68.130 19.604725
68.135 19.611963
68.140 19.707947
68.145 19.841125
68.150 19.415937
68.155 19.835575
68.160 19.866358
68.165 19.771767
68.170 19.726662
68.175 19.99041
68.180 20.057322
68.185 20.697348
68.190 20.661243
68.195 20.56662
68.200 21.088106
68.205 20.915501
68.210 20.862614
68.215 21.707085
68.220 22.032835
68.225 22.128227
68.230 22.474493
68.235 22.527546
68.240 22.602127
68.245 22.805885
68.250 23.148369
68.255 22.639788
68.260 22.55312
68.265 22.355778
68.270 22.334873
68.275 22.364565
68.280 22.189873
68.285 21.366838
68.290 21.870989
68.295 22.116499
68.300 22.676456
68.305 23.624977
68.310 24.141836
68.315 24.274599
68.320 24.728691
68.325 25.137905
68.330 25.30475
68.335 25.043169
68.340 24.485994
68.345 24.74416
68.350 25.958733
68.355 26.327602
68.360 26.341764
68.365 26.803236
68.370 27.304579
68.375 27.465914
68.380 27.600649
68.385 27.618176
68.390 27.262075
68.395 27.261187
68.400 26.662598
68.405 26.526777
68.410 27.073931
68.415 26.884537
68.420 27.106909
68.425 27.402189
68.430 27.904337
68.435 28.940968
68.440 29.692934
68.445 29.62063
68.450 30.918964
68.455 31.801592
68.460 32.395748
68.465 32.442997
68.470 32.449551
68.475 32.469681
68.480 32.698322
68.485 31.950396
68.490 31.55859
68.495 31.283226
68.500 31.017685
68.505 30.609634
68.510 30.818378
68.515 31.049688
68.520 30.624508
68.525 30.929115
68.530 31.391638
68.535 31.901047
68.540 32.309437
68.545 32.177204
68.550 31.972258
68.555 32.847542
68.560 32.614426
68.565 32.830532
68.570 32.903946
68.575 33.018173
68.580 32.90913
68.585 33.046032
68.590 32.906792
68.595 32.784122
68.600 32.895756
68.605 33.005707
68.610 33.540855
68.615 34.041931
68.620 34.367428
68.625 34.653252
68.630 34.850967
68.635 35.251595
68.640 34.731621
68.645 34.976227
68.650 35.075684
68.655 34.574547
68.660 34.528351
68.665 33.669949
68.670 33.819771
68.675 34.684227
68.680 34.631149
68.685 34.274887
68.690 34.222897
68.695 34.158844
68.700 33.913216
68.705 33.151958
68.710 32.915798
68.715 32.021008
68.720 31.736835
68.725 31.93495
68.730 31.943195
68.735 32.866692
68.740 33.044197
68.745 33.461903
68.750 34.313526
68.755 35.27293
68.760 35.646282
68.765 35.644154
68.770 35.762741
68.775 35.863953
68.780 35.034473
68.785 35.253166
68.790 34.519806
68.795 34.633274
68.800 34.619667
68.805 34.247433
68.810 33.767761
68.815 32.987057
68.820 32.217579
68.825 31.923344
68.830 31.996452
68.835 32.211288
68.840 31.708332
68.845 32.085884
68.850 32.900063
68.855 33.355968
68.860 33.441616
68.865 33.357628
68.870 33.496326
68.875 33.249878
68.880 33.291859
68.885 33.159801
68.890 32.275272
68.895 33.049835
68.900 32.734795
68.905 32.648865
68.910 32.798119
68.915 32.357513
68.920 32.17609
68.925 32.108234
68.930 30.839346
68.935 30.004366
68.940 30.04426
68.945 29.897949
68.950 29.02614
68.955 29.183447
68.960 29.552799
68.965 30.216661
68.970 30.80143
68.975 30.499308
68.980 30.312101
68.985 30.425556
68.990 30.04884
68.995 30.669909
69.000 30.484671
69.005 30.37269
69.010 30.379623
69.015 30.378145
69.020 30.40308
69.025 29.950085
69.030 28.839128
69.035 27.689816
69.040 27.424
69.045 27.480005
69.050 27.30382
69.055 27.978142
69.060 27.344782
69.065 27.649948
69.070 27.117743
69.075 26.431168
69.080 26.016516
69.085 25.941408
69.090 25.877211
69.095 26.19165
69.100 26.40659
69.105 26.67576
69.110 26.494884
69.115 25.992002
69.120 24.983221
69.125 24.451248
69.130 23.991156
69.135 23.561277
69.140 23.472755
69.145 23.294224
69.150 23.656206
69.155 24.497259
69.160 23.990929
69.165 23.446554
69.170 23.323048
69.175 22.965994
69.180 23.17564
69.185 23.097605
69.190 22.971214
69.195 23.19639
69.200 23.222099
69.205 23.176174
69.210 22.575087
69.215 21.842888
69.220 21.509815
69.225 20.87446
69.230 20.463015
69.235 19.992334
69.240 19.5502
69.245 19.556744
69.250 19.750607
69.255 20.416664
69.260 20.610628
69.265 21.069118
69.270 21.304939
69.275 21.323153
69.280 20.920486
69.285 20.649408
69.290 20.200611
69.295 20.39073
69.300 20.344574
69.305 20.116524
69.310 20.351103
69.315 20.58901
69.320 20.326714
69.325 20.006531
69.330 19.453379
69.335 19.477854
69.340 19.240383
69.345 19.117031
69.350 19.09708
69.355 19.036278
69.360 19.274712
69.365 19.031763
69.370 18.984783
69.375 19.455244
69.380 19.544992
69.385 19.307184
69.390 19.0975
69.395 18.841305
69.400 19.16927
69.405 19.402233
69.410 18.98464
69.415 18.596115
69.420 18.242224
69.425 18.56584
69.430 18.851105
69.435 18.601555
69.440 18.507444
69.445 18.870964
69.450 19.682577
69.455 19.510044
69.460 18.950771
69.465 18.029655
69.470 17.953587
69.475 17.713934
69.480 17.608562
69.485 17.112862
69.490 16.959267
69.495 17.540438
69.500 17.81521
69.505 18.132042
69.510 18.623045
69.515 18.297453
69.520 17.920221
69.525 17.996435
69.530 17.951309
69.535 18.424286
69.540 18.899481
69.545 18.580063
69.550 18.294613
69.555 18.56562
69.560 18.688889
69.565 18.475471
69.570 18.810968
69.575 19.101669
69.580 18.924116
69.585 19.686155
69.590 19.650841
69.595 19.42416
69.600 19.086117
69.605 18.105076
69.610 17.419207
69.615 17.307922
69.620 16.489157
69.625 15.865449
69.630 15.933264
69.635 16.294115
69.640 16.17215
69.645 16.160912
69.650 16.214128
69.655 16.717968
69.660 17.858017
69.665 17.752434
69.670 17.580425
69.675 17.901976
69.680 18.108112
69.685 18.543028
69.690 18.750294
69.695 18.697346
69.700 18.726736
69.705 18.846018
69.710 19.073139
69.715 19.084179
69.720 18.598927
69.725 18.400251
69.730 18.353367
69.735 18.971382
69.740 19.413139
69.745 19.589565
69.750 19.951399
69.755 19.856335
69.760 19.541979
69.765 19.206528
69.770 18.398624
69.775 17.880384
69.780 17.413591
69.785 17.525177
69.790 17.632504
69.795 17.816374
69.800 18.085674
69.805 17.968018
69.810 18.108295
69.815 18.637604
69.820 18.548544
69.825 18.685877
69.830 18.350443
69.835 18.559845
69.840 18.889359
69.845 18.166883
69.850 17.603367
69.855 17.491219
69.860 17.503637
69.865 17.226547
69.870 16.727142
69.875 16.626089
69.880 16.923862
69.885 17.304821
69.890 17.208542
69.895 17.567663
69.900 17.37521
69.905 17.290466
69.910 17.688013
69.915 17.640512
69.920 17.327724
69.925 17.305758
69.930 16.971527
69.935 17.54821
69.940 17.57756
69.945 17.282707
69.950 16.999889
69.955 17.728722
69.960 18.130196
69.965 18.837172
69.970 18.7428
69.975 18.744816
69.980 19.106058
69.985 18.816704
69.990 18.155985
69.995 18.204901
70.000 18.248379
70.005 18.314243
70.010 18.129826
70.015 16.794548
70.020 17.026415
70.025 16.806141
70.030 16.908897
70.035 17.070101
70.040 16.765799
70.045 17.004219
70.050 17.420326
70.055 17.207312
70.060 17.092588
70.065 16.856951
70.070 16.942831
70.075 17.441486
70.080 17.540657
70.085 17.468889
70.090 17.554674
70.095 17.496481
70.100 17.502535
70.105 17.146309
70.110 16.630657
70.115 16.772415
70.120 17.158783
70.125 17.165268
70.130 17.281775
70.135 16.847601
70.140 16.681957
70.145 16.724194
70.150 16.420647
70.155 16.312721
70.160 16.914391
70.165 17.125763
70.170 16.748116
70.175 16.759621
70.180 17.219645
70.185 18.052444
70.190 18.620995
70.195 18.613071
70.200 18.701393
70.205 19.02965
70.210 19.251568
70.215 19.347227
70.220 18.438223
70.225 17.536167
70.230 16.583485
70.235 16.726173
70.240 17.193943
70.245 16.961483
70.250 17.141329
70.255 17.71829
70.260 18.143953
70.265 18.468939
70.270 18.348457
70.275 17.969316
70.280 18.306072
70.285 18.221146
70.290 18.088408
70.295 17.748421
70.300 17.854824
70.305 18.35038
70.310 18.571945
70.315 17.861023
70.320 17.368471
70.325 16.960066
70.330 17.493834
70.335 17.474274
70.340 17.339502
70.345 17.788214
70.350 18.004677
70.355 18.596397
70.360 19.217545
70.365 18.976212
70.370 18.683052
70.375 17.642643
70.380 17.13472
70.385 17.467707
70.390 17.141146
70.395 16.882217
70.400 16.567099
70.405 16.750519
70.410 16.880297
70.415 16.622351
70.420 15.786831
70.425 15.527987
70.430 15.463527
70.435 15.302256
70.440 16.126146
70.445 15.742036
70.450 16.265137
70.455 16.825359
70.460 17.135515
70.465 17.214954
70.470 17.58227
70.475 17.139708
70.480 17.828123
70.485 17.703199
70.490 17.899618
70.495 17.775507
70.500 17.744818
70.505 18.038563
70.510 17.740387
70.515 17.504402
70.520 17.093056
70.525 17.484529
70.530 17.807604
70.535 18.195732
70.540 17.856627
70.545 17.367744
70.550 17.223555
70.555 17.018244
70.560 16.381155
70.565 16.543535
70.570 16.235825
70.575 16.506001
70.580 17.052664
70.585 16.470165
70.590 16.753271
70.595 16.712982
70.600 16.187658
70.605 15.902357
70.610 16.197886
70.615 16.26276
70.620 16.665417
70.625 17.148945
70.630 17.135296
70.635 17.260609
70.640 17.814089
70.645 17.874603
70.650 18.081755
70.655 17.980608
70.660 17.727251
70.665 18.047178
70.670 17.929399
70.675 17.259651
70.680 17.190609
70.685 18.105495
70.690 18.696878
70.695 18.666086
70.700 18.410219
70.705 18.374777
70.710 18.280233
70.715 18.163389
70.720 17.530973
70.725 17.181126
70.730 17.158798
70.735 17.385963
70.740 17.374966
70.745 17.496483
70.750 17.578354
70.755 17.413158
70.760 17.312195
70.765 17.519915
70.770 17.781025
70.775 17.974592
70.780 17.986403
70.785 18.299261
70.790 18.55686
70.795 18.606552
70.800 18.86273
70.805 19.474588
70.810 19.637312
70.815 19.504322
70.820 19.350212
70.825 19.538414
70.830 19.333792
70.835 18.756351
70.840 18.437057
70.845 18.430277
70.850 18.509691
70.855 18.375862
70.860 17.954378
70.865 17.419842
70.870 16.961548
70.875 16.922304
70.880 16.621288
70.885 16.707172
70.890 16.973471
70.895 17.352684
70.900 17.789677
70.905 17.72925
70.910 17.317255
70.915 17.03512
70.920 16.594355
70.925 16.601658
70.930 16.567707
70.935 17.077505
70.940 17.848047
70.945 18.366398
70.950 18.716673
70.955 18.099274
70.960 17.864208
70.965 17.659451
70.970 17.221157
70.975 16.824129
70.980 16.426481
70.985 16.155846
70.990 16.657391
70.995 16.280966
71.000 16.3237
71.005 16.318066
71.010 15.713674
71.015 16.001427
71.020 16.721094
71.025 16.368164
71.030 16.610453
71.035 16.463575
71.040 16.886019
71.045 17.049948
71.050 16.80139
71.055 16.676249
71.060 16.794714
71.065 16.842909
71.070 17.074448
71.075 16.72205
71.080 16.91651
71.085 17.104523
71.090 16.965784
71.095 17.254911
71.100 16.759781
71.105 16.281076
71.110 16.919167
71.115 16.7173
71.120 16.258116
71.125 16.09292
71.130 16.300241
71.135 17.211483
71.140 17.088301
71.145 16.997791
71.150 17.584679
71.155 17.826006
71.160 17.732031
71.165 17.249271
71.170 16.706772
71.175 16.258968
71.180 15.909957
71.185 15.907108
71.190 16.499033
71.195 17.01351
71.200 17.238422
71.205 17.474907
71.210 17.889132
71.215 18.230261
71.220 17.551956
71.225 17.327133
71.230 16.894064
71.235 17.346054
71.240 17.78964
71.245 17.985361
71.250 17.947239
71.255 18.287411
71.260 18.302877
71.265 18.395592
71.270 17.829605
71.275 17.463448
71.280 16.679079
71.285 16.200933
71.290 16.501457
71.295 16.560101
71.300 16.198696
71.305 16.450743
71.310 16.826813
71.315 17.446835
71.320 17.600634
71.325 17.39501
71.330 17.668865
71.335 17.644979
71.340 17.776745
71.345 18.26915
71.350 18.157614
71.355 18.005049
71.360 17.542021
71.365 17.070923
71.370 17.318104
71.375 17.314445
71.380 16.533201
71.385 16.678366
71.390 16.837244
71.395 16.741701
71.400 16.59758
71.405 16.474777
71.410 16.401758
71.415 16.805487
71.420 16.359568
71.425 16.424801
71.430 17.044252
71.435 18.002062
71.440 18.202768
71.445 18.352434
71.450 18.769049
71.455 19.905775
71.460 20.409529
71.465 20.035629
71.470 19.423544
71.475 18.849562
71.480 18.823402
71.485 18.787472
71.490 17.855824
71.495 17.520113
71.500 17.815304
71.505 17.986279
71.510 18.277126
71.515 17.451046
71.520 16.423939
71.525 16.249491
71.530 15.744853
71.535 15.967314
71.540 16.286938
71.545 16.446524
71.550 16.885015
71.555 17.659883
71.560 18.027185
71.565 18.717834
71.570 18.534458
71.575 18.400595
71.580 18.500418
71.585 18.63949
71.590 18.528364
71.595 18.650099
71.600 18.208487
71.605 17.45607
71.610 17.22801
71.615 16.655987
71.620 16.273504
71.625 16.018585
71.630 15.768421
71.635 16.255699
71.640 16.67988
71.645 16.739815
71.650 16.938566
71.655 17.317146
71.660 17.179106
71.665 17.054058
71.670 16.960546
71.675 17.087862
71.680 17.24478
71.685 17.593878
71.690 17.137684
71.695 17.663271
71.700 17.915125
71.705 18.556223
71.710 18.394077
71.715 18.495897
71.720 18.879976
71.725 18.77763
71.730 18.712269
71.735 18.381306
71.740 17.838884
71.745 18.58353
71.750 18.371952
71.755 17.972097
71.760 18.097261
71.765 18.400145
71.770 19.05184
71.775 18.709724
71.780 18.514591
71.785 18.635288
71.790 18.705957
71.795 18.614222
71.800 18.336521
71.805 18.2071
71.810 18.066942
71.815 17.628109
71.820 17.386967
71.825 16.962763
71.830 16.786448
71.835 16.132835
71.840 15.797812
71.845 16.128065
71.850 15.859027
71.855 15.828632
71.860 16.030396
71.865 15.984529
71.870 15.903923
71.875 16.2927
71.880 16.260399
71.885 16.925728
71.890 17.280499
71.895 17.532257
71.900 17.481201
71.905 17.694729
71.910 18.62466
71.915 18.615696
71.920 18.48859
71.925 18.138762
71.930 18.071583
71.935 18.16053
71.940 17.704926
71.945 17.170231
71.950 17.247175
71.955 17.003923
71.960 17.254116
71.965 17.332323
71.970 17.695498
71.975 18.104895
71.980 17.95262
71.985 17.969378
71.990 18.138199
71.995 18.326614
72.000 18.083704
72.005 17.898642
72.010 18.091579
72.015 18.620852
72.020 18.76841
72.025 18.678148
72.030 18.402258
72.035 18.83848
72.040 19.058989
72.045 19.081745
72.050 19.470053
72.055 19.698496
72.060 20.079891
72.065 20.923073
72.070 20.213394
72.075 19.49958
72.080 18.818476
72.085 17.76181
72.090 17.626635
72.095 17.177286
72.100 16.91238
72.105 17.743149
72.110 18.19025
72.115 17.875347
72.120 17.822296
72.125 17.453352
72.130 17.577541
72.135 17.756046
72.140 17.492668
72.145 17.234167
72.150 17.0112
72.155 17.257401
72.160 17.49291
72.165 17.44194
72.170 16.953304
72.175 17.397858
72.180 18.203253
72.185 18.089109
72.190 17.925825
72.195 17.815407
72.200 17.612209
72.205 17.529428
72.210 17.509132
72.215 17.093575
72.220 17.389643
72.225 17.31089
72.230 17.28097
72.235 17.064796
72.240 17.222004
72.245 17.265106
72.250 17.767057
72.255 17.36721
72.260 17.116936
72.265 17.320637
72.270 17.378218
72.275 16.865599
72.280 16.18063
72.285 15.981126
72.290 16.571909
72.295 16.030373
72.300 15.929837
72.305 16.029352
72.310 16.24674
72.315 16.837803
72.320 16.865461
72.325 17.157732
72.330 17.680584
72.335 17.554457
72.340 17.460726
72.345 17.6437
72.350 17.584194
72.355 17.38739
72.360 17.309523
72.365 17.90678
72.370 18.367128
72.375 18.305384
72.380 18.007524
72.385 18.441534
72.390 18.565969
72.395 18.398588
72.400 18.053436
72.405 18.047014
72.410 17.986937
72.415 17.728832
72.420 17.396276
72.425 17.370728
72.430 17.259638
72.435 17.428905
72.440 17.40856
72.445 17.436684
72.450 17.298248
72.455 17.306986
72.460 17.34594
72.465 17.521633
72.470 17.182983
72.475 17.551582
72.480 17.554018
72.485 17.211973
72.490 17.148853
72.495 17.631186
72.500 18.185598
72.505 18.26989
72.510 18.354889
72.515 19.148312
72.520 19.428581
72.525 19.278585
72.530 18.425491
72.535 18.05958
72.540 17.705978
72.545 16.985901
72.550 16.72979
72.555 17.942858
72.560 18.202509
72.565 18.438156
72.570 18.004351
72.575 18.224798
72.580 18.743252
72.585 18.564777
72.590 17.361231
72.595 16.914757
72.600 16.522629
72.605 16.468121
72.610 16.46117
72.615 16.179852
72.620 15.776443
72.625 15.623363
72.630 15.653697
72.635 15.872046
72.640 16.117727
72.645 16.350807
72.650 15.523785
72.655 16.10874
72.660 17.129267
72.665 16.995358
72.670 17.126657
72.675 16.861069
72.680 16.507648
72.685 16.802387
72.690 16.169687
72.695 15.247501
72.700 15.29654
72.705 15.05115
72.710 15.219447
72.715 16.096949
72.720 16.609337
72.725 16.467529
72.730 16.933859
72.735 17.252262
72.740 17.52483
72.745 17.231289
72.750 16.449364
72.755 16.196598
72.760 16.378099
72.765 16.519205
72.770 16.592655
72.775 16.535683
72.780 16.635296
72.785 16.747189
72.790 16.591965
72.795 15.985277
72.800 15.68891
72.805 15.487762
72.810 15.965392
72.815 16.158026
72.820 16.392189
72.825 17.233438
72.830 17.900051
72.835 18.392647
72.840 18.199492
72.845 17.533382
72.850 17.214035
72.855 17.318714
72.860 17.186726
72.865 16.796001
72.870 16.718626
72.875 16.458845
72.880 16.222019
72.885 16.132168
72.890 15.936739
72.895 15.611806
72.900 15.133474
72.905 14.470019
72.910 14.451908
72.915 14.78792
72.920 15.316109
72.925 16.149366
72.930 16.461119
72.935 16.882111
72.940 17.433582
72.945 18.015158
72.950 17.644754
72.955 17.245028
72.960 16.897476
72.965 15.99514
72.970 15.801386
72.975 15.535477
72.980 15.674915
72.985 15.976533
72.990 15.495716
72.995 15.685596
73.000 16.617239
