!@!!GADDS PLOTSO FILE: Chi integration type
!@!!Title/SampleName: map-94
!@!!Comment: ?
!@!!User: Bruker Instrument Administrator
!@!!Site: University of Illinois Chicago
!@!!Frame: map-94_01_000.gfrm
!@!!Wavelengths    1.54184   1.54056   1.54439
!@!!Frame angles: 2Theta: 63.000 Omega: 50.000 Phi: 0.000 Chi: 90.000
!@!!Integration range: 2Theta: 53.000 to 73.000  Gamma: -105.000 to -75.000
!@!!Integration method: bin normalized
!@!N
!@!SS
!@!M
!@!L 0.0 0.0 0.0 0.0
!@!XDegrees
!@!YCounts
53.000 8.113519
53.005 8.031637
53.010 7.78346
53.015 7.690019
53.020 7.926937
53.025 7.870679
53.030 7.950089
53.035 8.485798
53.040 8.638874
53.045 9.154241
53.050 8.882118
53.055 8.355152
53.060 8.12336
53.065 7.858748
53.070 7.633436
53.075 7.628093
53.080 7.561706
53.085 8.12589
53.090 8.664238
53.095 9.210209
53.100 9.362646
53.105 9.427476
53.110 9.495656
53.115 9.386947
53.120 9.378795
53.125 9.120987
53.130 8.894292
53.135 8.855094
53.140 8.97112
53.145 9.035789
53.150 9.848526
53.155 10.384296
53.160 10.155922
53.165 10.60579
53.170 10.573153
53.175 10.544801
53.180 10.479189
53.185 9.728075
53.190 9.831219
53.195 9.825674
53.200 9.623354
53.205 9.670836
53.210 9.423217
53.215 9.418314
53.220 9.431673
53.225 9.414559
53.230 9.164106
53.235 8.592081
53.240 8.279693
53.245 8.202798
53.250 7.394566
53.255 7.223931
53.260 7.321398
53.265 7.478715
53.270 7.796978
53.275 7.846798
53.280 7.969711
53.285 8.161997
53.290 8.274977
53.295 8.275376
53.300 8.690361
53.305 8.965818
53.310 9.463596
53.315 9.91138
53.320 9.49791
53.325 9.275347
53.330 9.41974
53.335 9.628174
53.340 9.630178
53.345 9.636993
53.350 9.579949
53.355 10.038007
53.360 10.36133
53.365 10.449537
53.370 10.221632
53.375 9.836039
53.380 9.717024
53.385 9.286454
53.390 9.084166
53.395 8.957994
53.400 8.274627
53.405 8.042743
53.410 8.227551
53.415 8.205694
53.420 8.795787
53.425 9.076499
53.430 9.407186
53.435 9.870929
53.440 9.741916
53.445 9.709597
53.450 9.617287
53.455 9.724864
53.460 9.601392
53.465 9.484377
53.470 9.257798
53.475 9.271952
53.480 8.948347
53.485 8.554588
53.490 7.882083
53.495 7.1061
53.500 6.567468
53.505 6.859533
53.510 7.348815
53.515 7.618611
53.520 8.15015
53.525 8.592478
53.530 9.464051
53.535 9.995557
53.540 10.002399
53.545 9.853933
53.550 9.939016
53.555 9.196459
53.560 8.778595
53.565 8.900398
53.570 9.005048
53.575 8.597895
53.580 8.53344
53.585 8.697662
53.590 9.334967
53.595 9.489521
53.600 8.947671
53.605 8.525323
53.610 8.342559
53.615 8.336174
53.620 8.582566
53.625 8.662429
53.630 9.419214
53.635 9.733231
53.640 10.328308
53.645 10.180466
53.650 10.368155
53.655 10.232856
53.660 9.834729
53.665 8.991957
53.670 8.771728
53.675 8.441843
53.680 8.333348
53.685 8.138241
53.690 8.935611
53.695 9.162206
53.700 9.419892
53.705 9.787166
53.710 10.253047
53.715 10.707618
53.720 10.551049
53.725 10.175312
53.730 10.284648
53.735 10.628039
53.740 10.354291
53.745 10.392327
53.750 10.062612
53.755 9.809181
53.760 9.567418
53.765 9.039479
53.770 8.999528
53.775 9.344767
53.780 9.424388
53.785 9.669413
53.790 9.82304
53.795 10.118631
53.800 10.56957
53.805 10.631555
53.810 10.443183
53.815 9.932258
53.820 9.540956
53.825 9.725832
53.830 9.682631
53.835 9.444623
53.840 9.427235
53.845 9.397671
53.850 10.035782
53.855 10.382494
53.860 10.673697
53.865 10.382513
53.870 9.947479
53.875 9.762462
53.880 9.992037
53.885 9.846118
53.890 9.80237
53.895 9.48486
53.900 10.00458
53.905 10.740088
53.910 10.527558
53.915 10.823218
53.920 11.048193
53.925 10.736457
53.930 10.904533
53.935 10.518989
53.940 10.334165
53.945 10.440121
53.950 10.399823
53.955 10.337694
53.960 10.462442
53.965 10.373006
53.970 10.487772
53.975 10.617742
53.980 10.595819
53.985 10.420617
53.990 10.305545
53.995 10.188277
54.000 9.922544
54.005 9.912517
54.010 10.002277
54.015 10.048668
54.020 9.844828
54.025 10.01275
54.030 10.281909
54.035 10.584816
54.040 11.008122
54.045 11.432643
54.050 11.322872
54.055 11.494322
54.060 11.692457
54.065 11.813854
54.070 11.853924
54.075 11.385413
54.080 11.003473
54.085 10.945745
54.090 11.02696
54.095 10.715656
54.100 10.501952
54.105 9.996511
54.110 9.923821
54.115 10.125764
54.120 9.750216
54.125 9.237926
54.130 9.560569
54.135 9.475956
54.140 9.883639
54.145 9.7693
54.150 9.629243
54.155 10.194149
54.160 10.588705
54.165 10.544266
54.170 10.529906
54.175 10.223961
54.180 10.032542
54.185 10.145738
54.190 10.168786
54.195 9.951286
54.200 9.593572
54.205 9.935525
54.210 10.498952
54.215 10.685902
54.220 10.833762
54.225 10.61181
54.230 10.971355
54.235 10.978873
54.240 10.614985
54.245 10.740957
54.250 10.840854
54.255 10.803486
54.260 10.819565
54.265 10.454401
54.270 10.55888
54.275 10.793217
54.280 10.835512
54.285 10.643343
54.290 10.482488
54.295 10.728233
54.300 10.884519
54.305 10.641453
54.310 10.159406
54.315 10.112751
54.320 10.145779
54.325 10.008343
54.330 10.091332
54.335 10.888496
54.340 11.211499
54.345 11.229939
54.350 10.842484
54.355 11.110949
54.360 10.927032
54.365 10.423858
54.370 10.351967
54.375 10.151026
54.380 10.043256
54.385 9.965441
54.390 9.950045
54.395 10.359797
54.400 10.7845
54.405 10.364114
54.410 10.49748
54.415 10.589626
54.420 10.498341
54.425 10.242282
54.430 9.644555
54.435 9.281877
54.440 9.683927
54.445 9.912502
54.450 10.397309
54.455 10.799833
54.460 11.128632
54.465 11.316481
54.470 10.816514
54.475 10.502934
54.480 9.703969
54.485 9.41918
54.490 9.502314
54.495 9.49398
54.500 9.688634
54.505 9.704319
54.510 10.362288
54.515 11.082885
54.520 11.248566
54.525 11.004217
54.530 11.034422
54.535 11.269255
54.540 11.296576
54.545 10.696923
54.550 10.184215
54.555 10.061152
54.560 10.05983
54.565 9.932121
54.570 9.778812
54.575 9.926864
54.580 10.471035
54.585 10.748507
54.590 11.336469
54.595 11.226727
54.600 11.42477
54.605 11.488153
54.610 11.126003
54.615 10.400214
54.620 9.800338
54.625 9.304611
54.630 9.34744
54.635 9.587717
54.640 9.718164
54.645 9.777353
54.650 10.222269
54.655 10.736057
54.660 10.852221
54.665 10.948858
54.670 10.49581
54.675 10.312562
54.680 9.978105
54.685 9.45156
54.690 9.370577
54.695 9.529174
54.700 9.275603
54.705 9.362124
54.710 10.01996
54.715 10.526198
54.720 10.745463
54.725 10.555911
54.730 10.652076
54.735 10.7722
54.740 10.958585
54.745 10.883493
54.750 10.85312
54.755 10.675793
54.760 10.633884
54.765 11.068547
54.770 11.093228
54.775 11.000952
54.780 10.992774
54.785 10.927853
54.790 11.116138
54.795 10.809531
54.800 10.280462
54.805 10.176904
54.810 9.957783
54.815 9.871359
54.820 10.013408
54.825 10.270844
54.830 10.39318
54.835 10.894498
54.840 11.40122
54.845 11.424865
54.850 11.43114
54.855 11.074609
54.860 10.857734
54.865 11.166886
54.870 10.50831
54.875 10.078188
54.880 10.583491
54.885 10.715158
54.890 10.936244
54.895 10.88777
54.900 10.693544
54.905 11.186042
54.910 10.950711
54.915 10.461441
54.920 10.684752
54.925 11.100941
54.930 11.463421
54.935 11.581898
54.940 11.599337
54.945 11.905728
54.950 11.9432
54.955 11.448991
54.960 11.195493
54.965 10.811295
54.970 10.59273
54.975 10.460057
54.980 10.258681
54.985 10.204017
54.990 10.504141
54.995 10.178558
55.000 9.930481
55.005 10.049915
55.010 9.842267
55.015 9.840344
55.020 9.660443
55.025 9.85613
55.030 10.171097
55.035 10.756835
55.040 10.582438
55.045 10.610942
55.050 10.980009
55.055 10.905015
55.060 10.921686
55.065 10.837733
55.070 10.938
55.075 11.630013
55.080 12.208592
55.085 11.880507
55.090 11.730575
55.095 11.224228
55.100 10.984269
55.105 10.721403
55.110 10.115665
55.115 10.163134
55.120 10.300508
55.125 10.238241
55.130 10.440088
55.135 10.525378
55.140 10.754639
55.145 10.953435
55.150 10.621412
55.155 10.477324
55.160 10.559647
55.165 10.299866
55.170 9.665389
55.175 9.134477
55.180 9.016744
55.185 9.07857
55.190 9.336905
55.195 9.568799
55.200 10.056506
55.205 10.793205
55.210 11.28865
55.215 11.655229
55.220 11.552315
55.225 11.460325
55.230 11.401293
55.235 11.059982
55.240 10.992741
55.245 10.881336
55.250 10.387882
55.255 11.033722
55.260 11.067029
55.265 10.925719
55.270 10.780975
55.275 10.399735
55.280 10.065807
55.285 10.428358
55.290 9.729862
55.295 9.599975
55.300 9.476575
55.305 9.524612
55.310 9.475423
55.315 9.873618
55.320 9.365484
55.325 9.830661
55.330 9.950215
55.335 9.809058
55.340 10.522855
55.345 10.770265
55.350 11.091228
55.355 11.765133
55.360 11.821599
55.365 12.153842
55.370 12.304049
55.375 12.194921
55.380 12.577874
55.385 12.01093
55.390 12.030172
55.395 12.062496
55.400 11.938524
55.405 11.917654
55.410 11.087665
55.415 10.931223
55.420 11.430276
55.425 11.007299
55.430 10.973889
55.435 10.9763
55.440 11.128608
55.445 11.315578
55.450 11.128329
55.455 11.026941
55.460 11.15516
55.465 11.108212
55.470 10.942483
55.475 10.802193
55.480 10.901745
55.485 10.508589
55.490 10.578349
55.495 10.284099
55.500 10.764487
55.505 10.845453
55.510 10.94949
55.515 10.918612
55.520 10.882537
55.525 11.315033
55.530 11.808955
55.535 11.436055
55.540 11.378585
55.545 11.44901
55.550 11.933043
55.555 11.956806
55.560 11.036622
55.565 10.686584
55.570 10.59031
55.575 10.612553
55.580 10.75745
55.585 10.857373
55.590 11.165497
55.595 11.489767
55.600 11.338057
55.605 11.493108
55.610 11.498896
55.615 10.998052
55.620 10.74239
55.625 10.107129
55.630 10.089133
55.635 10.250728
55.640 10.538711
55.645 10.679048
55.650 10.938626
55.655 11.135402
55.660 11.363005
55.665 11.635416
55.670 11.654839
55.675 11.252497
55.680 11.233034
55.685 11.126608
55.690 11.34424
55.695 11.542995
55.700 12.022751
55.705 12.43032
55.710 12.674601
55.715 12.69222
55.720 12.425076
55.725 11.922731
55.730 11.686037
55.735 10.743773
55.740 11.118665
55.745 11.206299
55.750 11.559394
55.755 11.568853
55.760 11.73724
55.765 11.836162
55.770 11.518461
55.775 11.432978
55.780 11.501349
55.785 11.177466
55.790 11.277206
55.795 11.05535
55.800 10.948524
55.805 10.520977
55.810 9.85345
55.815 10.149949
55.820 10.056267
55.825 10.339003
55.830 10.585887
55.835 10.982373
55.840 11.475194
55.845 11.52558
55.850 11.353257
55.855 11.825267
55.860 11.916749
55.865 11.951999
55.870 12.042207
55.875 12.009611
55.880 12.234204
55.885 12.366433
55.890 12.3867
55.895 12.369631
55.900 12.355709
55.905 12.664752
55.910 12.997743
55.915 13.041496
55.920 12.862475
55.925 12.855303
55.930 12.868067
55.935 12.922383
55.940 13.058081
55.945 13.040442
55.950 12.644213
55.955 12.618052
55.960 12.509857
55.965 12.406015
55.970 12.681085
55.975 11.918976
55.980 12.073743
55.985 12.022664
55.990 11.710447
55.995 11.488608
56.000 11.250794
56.005 10.93341
56.010 10.690492
56.015 10.327492
56.020 10.608001
56.025 10.891656
56.030 11.195037
56.035 11.619568
56.040 11.802698
56.045 12.034532
56.050 12.115831
56.055 12.343325
56.060 12.195787
56.065 12.145577
56.070 12.004945
56.075 12.164022
56.080 12.625493
56.085 12.831978
56.090 12.527529
56.095 12.93082
56.100 12.889162
56.105 12.852734
56.110 12.398071
56.115 11.561252
56.120 11.099117
56.125 11.18364
56.130 11.002203
56.135 11.120279
56.140 11.539944
56.145 12.093865
56.150 12.872813
56.155 13.689021
56.160 13.429737
56.165 13.253392
56.170 13.515295
56.175 12.975474
56.180 12.618615
56.185 12.091138
56.190 11.95058
56.195 12.174812
56.200 12.253969
56.205 11.828046
56.210 11.642315
56.215 11.480725
56.220 11.483815
56.225 11.089849
56.230 10.804836
56.235 10.772968
56.240 11.003791
56.245 11.705424
56.250 12.0385
56.255 12.272331
56.260 12.741794
56.265 13.171341
56.270 13.253066
56.275 12.854975
56.280 12.606164
56.285 12.752468
56.290 12.549887
56.295 12.822851
56.300 12.178101
56.305 12.297601
56.310 12.183803
56.315 11.725729
56.320 11.313247
56.325 10.842504
56.330 10.526785
56.335 11.105378
56.340 11.431254
56.345 12.265903
56.350 12.769031
56.355 12.893707
56.360 13.001353
56.365 12.797942
56.370 12.566854
56.375 12.551242
56.380 12.393544
56.385 12.39655
56.390 12.399089
56.395 12.722783
56.400 13.028119
56.405 13.061456
56.410 13.021476
56.415 12.498491
56.420 12.522744
56.425 12.967818
56.430 12.978793
56.435 12.826362
56.440 12.629231
56.445 12.55498
56.450 12.55256
56.455 12.182549
56.460 12.102913
56.465 12.428104
56.470 12.684926
56.475 13.299664
56.480 13.51986
56.485 13.666038
56.490 14.08664
56.495 13.331516
56.500 12.97376
56.505 12.380377
56.510 11.328269
56.515 11.135818
56.520 11.467188
56.525 11.43303
56.530 11.690835
56.535 11.677823
56.540 11.992882
56.545 12.342252
56.550 12.30381
56.555 11.847569
56.560 12.033753
56.565 12.421596
56.570 12.468298
56.575 12.090708
56.580 12.242893
56.585 12.321079
56.590 12.16295
56.595 11.902767
56.600 11.531084
56.605 11.738868
56.610 11.538412
56.615 11.371463
56.620 11.255738
56.625 11.232218
56.630 11.468482
56.635 11.278966
56.640 11.084686
56.645 11.106547
56.650 11.391569
56.655 11.61239
56.660 11.910642
56.665 11.810996
56.670 12.718666
56.675 13.066854
56.680 13.404979
56.685 13.365332
56.690 13.36964
56.695 13.240676
56.700 12.714094
56.705 12.503929
56.710 12.429223
56.715 12.345319
56.720 12.245927
56.725 12.180049
56.730 12.404124
56.735 13.049306
56.740 13.452703
56.745 13.806074
56.750 14.004108
56.755 14.021686
56.760 14.506248
56.765 14.687056
56.770 14.102116
56.775 13.502173
56.780 12.867133
56.785 12.85767
56.790 12.389785
56.795 12.115778
56.800 12.229189
56.805 12.189059
56.810 12.916568
56.815 13.415286
56.820 13.290694
56.825 13.514359
56.830 13.408484
56.835 13.439215
56.840 13.237167
56.845 12.401386
56.850 12.351481
56.855 12.123983
56.860 12.304096
56.865 12.353671
56.870 12.13204
56.875 12.48873
56.880 12.789707
56.885 12.966053
56.890 13.292626
56.895 13.096248
56.900 12.854543
56.905 13.294971
56.910 13.64717
56.915 13.873652
56.920 13.892544
56.925 13.821622
56.930 14.029771
56.935 14.155853
56.940 13.725272
56.945 13.298977
56.950 13.121817
56.955 13.12677
56.960 13.058373
56.965 13.297174
56.970 13.212492
56.975 13.379212
56.980 13.182375
56.985 13.204416
56.990 13.256382
56.995 13.390571
57.000 13.593627
57.005 13.16511
57.010 12.700891
57.015 12.687884
57.020 12.778717
57.025 12.984798
57.030 12.585407
57.035 12.628481
57.040 13.301831
57.045 13.5207
57.050 13.636329
57.055 13.664582
57.060 13.866266
57.065 13.693191
57.070 13.163615
57.075 12.389243
57.080 12.601389
57.085 11.988591
57.090 11.477861
57.095 11.226431
57.100 11.307818
57.105 11.62197
57.110 12.271275
57.115 12.327322
57.120 12.950116
57.125 12.989721
57.130 12.593363
57.135 12.727837
57.140 12.281498
57.145 11.795536
57.150 11.497069
57.155 11.153662
57.160 11.917848
57.165 12.412846
57.170 12.513762
57.175 12.917255
57.180 13.246331
57.185 13.981537
57.190 14.362264
57.195 14.627095
57.200 14.577201
57.205 14.725496
57.210 15.113687
57.215 14.938728
57.220 14.924918
57.225 15.418756
57.230 14.746288
57.235 14.940011
57.240 14.557717
57.245 13.894979
57.250 13.846077
57.255 13.56738
57.260 13.05912
57.265 13.267371
57.270 12.98686
57.275 13.448042
57.280 14.095065
57.285 14.081479
57.290 13.988395
57.295 14.19655
57.300 14.331558
57.305 14.537621
57.310 14.805775
57.315 15.176475
57.320 15.318772
57.325 15.09985
57.330 14.447845
57.335 14.383336
57.340 13.862943
57.345 13.038012
57.350 12.201827
57.355 12.301965
57.360 12.161006
57.365 12.473581
57.370 12.83443
57.375 13.471467
57.380 13.968464
57.385 14.090276
57.390 13.997433
57.395 14.258714
57.400 14.183748
57.405 13.790648
57.410 13.51879
57.415 13.626795
57.420 13.417646
57.425 13.277525
57.430 12.999104
57.435 12.819919
57.440 13.047581
57.445 12.700787
57.450 13.253865
57.455 13.399834
57.460 13.477855
57.465 14.104188
57.470 14.225547
57.475 13.947898
57.480 14.047348
57.485 13.397062
57.490 13.150623
57.495 13.287561
57.500 12.976551
57.505 12.633307
57.510 12.991322
57.515 12.83887
57.520 12.840893
57.525 13.206482
57.530 13.02897
57.535 13.126687
57.540 13.27789
57.545 13.560872
57.550 14.500193
57.555 14.992619
57.560 14.889923
57.565 15.015688
57.570 15.11348
57.575 15.203675
57.580 14.778263
57.585 13.993148
57.590 13.905475
57.595 14.09796
57.600 13.663936
57.605 13.427797
57.610 13.124804
57.615 13.364309
57.620 13.362943
57.625 13.209306
57.630 13.066257
57.635 13.288903
57.640 12.933404
57.645 12.949087
57.650 12.542274
57.655 12.815656
57.660 12.984864
57.665 13.051388
57.670 12.938936
57.675 13.198738
57.680 13.653358
57.685 14.052174
57.690 13.825637
57.695 14.361739
57.700 14.618044
57.705 14.988208
57.710 15.637053
57.715 15.682479
57.720 16.135969
57.725 16.164707
57.730 15.906721
57.735 16.809422
57.740 16.917095
57.745 16.413511
57.750 16.261486
57.755 15.914206
57.760 15.932923
57.765 16.042709
57.770 15.348276
57.775 15.603265
57.780 15.481172
57.785 15.484938
57.790 15.610337
57.795 15.343471
57.800 14.767623
57.805 14.150792
57.810 13.560802
57.815 13.403456
57.820 13.304392
57.825 13.229667
57.830 13.422343
57.835 14.200297
57.840 15.097333
57.845 15.108524
57.850 14.345374
57.855 13.752867
57.860 13.542591
57.865 13.312057
57.870 12.659245
57.875 12.102647
57.880 12.256329
57.885 13.093301
57.890 14.119041
57.895 14.172732
57.900 14.340075
57.905 14.479045
57.910 14.408409
57.915 14.822878
57.920 15.069659
57.925 14.853741
57.930 15.349819
57.935 15.820488
57.940 15.867006
57.945 16.078875
57.950 16.408392
57.955 15.752785
57.960 15.324878
57.965 15.370596
57.970 15.066267
57.975 15.062701
57.980 14.766608
57.985 14.783255
57.990 15.40079
57.995 15.613657
58.000 15.484859
58.005 15.528942
58.010 15.914518
58.015 15.761216
58.020 15.248332
58.025 15.236203
58.030 15.546263
58.035 15.522421
58.040 15.764309
58.045 15.971029
58.050 17.126951
58.055 17.786478
58.060 18.100164
58.065 17.815701
58.070 17.758024
58.075 17.033163
58.080 17.037685
58.085 16.939407
58.090 16.199459
58.095 15.766243
58.100 15.736961
58.105 16.1548
58.110 16.571913
58.115 15.984948
58.120 15.335509
58.125 15.753103
58.130 15.812049
58.135 16.604172
58.140 16.976797
58.145 17.457321
58.150 17.456242
58.155 17.666929
58.160 18.026793
58.165 18.126266
58.170 17.577364
58.175 17.01277
58.180 16.720398
58.185 16.873646
58.190 16.288776
58.195 15.613255
58.200 15.489642
58.205 15.755864
58.210 15.9337
58.215 16.251663
58.220 16.76721
58.225 17.704725
58.230 17.843788
58.235 18.0271
58.240 18.237474
58.245 17.988688
58.250 17.062685
58.255 16.579735
58.260 16.367437
58.265 16.527205
58.270 16.026005
58.275 15.363055
58.280 15.174232
58.285 15.400943
58.290 15.553477
58.295 15.640102
58.300 15.880853
58.305 16.386436
58.310 16.911724
58.315 18.069605
58.320 19.03145
58.325 19.441687
58.330 19.82078
58.335 19.922152
58.340 19.181192
58.345 18.695116
58.350 18.5389
58.355 18.769529
58.360 18.498701
58.365 18.069458
58.370 18.267855
58.375 18.690586
58.380 19.156225
58.385 19.413076
58.390 19.21891
58.395 19.572908
58.400 20.013157
58.405 20.530642
58.410 21.216461
58.415 20.962536
58.420 21.602688
58.425 21.520027
58.430 21.116102
58.435 21.232986
58.440 21.197462
58.445 21.186705
58.450 21.287689
58.455 20.65712
58.460 21.640415
58.465 22.517294
58.470 22.413525
58.475 22.408951
58.480 23.058067
58.485 23.698799
58.490 24.031137
58.495 23.876415
58.500 23.201689
58.505 23.951036
58.510 24.238401
58.515 24.408421
58.520 24.811613
58.525 25.723318
58.530 26.309809
58.535 26.907219
58.540 27.369061
58.545 28.10557
58.550 28.179474
58.555 29.006344
58.560 29.474936
58.565 30.29155
58.570 30.714285
58.575 30.580927
58.580 30.879589
58.585 31.371212
58.590 31.783083
58.595 31.403191
58.600 31.485683
58.605 32.282841
58.610 32.740952
58.615 32.443382
58.620 32.62738
58.625 32.862747
58.630 34.098309
58.635 34.842106
58.640 34.558071
58.645 34.414928
58.650 35.051556
58.655 35.501217
58.660 36.343498
58.665 36.505985
58.670 36.127365
58.675 36.935837
58.680 37.200108
58.685 37.096802
58.690 36.594997
58.695 36.694141
58.700 36.291946
58.705 36.273262
58.710 36.606972
58.715 37.092178
58.720 37.315605
58.725 37.968689
58.730 37.326843
58.735 38.715008
58.740 39.555294
58.745 39.098534
58.750 39.431103
58.755 39.846378
58.760 39.464119
58.765 38.332596
58.770 37.114185
58.775 36.206738
58.780 35.997795
58.785 35.358925
58.790 34.394463
58.795 33.591652
58.800 33.009995
58.805 32.069942
58.810 31.32605
58.815 30.716415
58.820 30.034967
58.825 29.806717
58.830 29.580408
58.835 28.992601
58.840 28.917408
58.845 28.388348
58.850 28.057932
58.855 27.910257
58.860 27.554129
58.865 28.073545
58.870 28.306713
58.875 28.222662
58.880 28.407866
58.885 28.080099
58.890 27.480383
58.895 27.150507
58.900 26.746603
58.905 26.494246
58.910 26.064514
58.915 25.484747
58.920 25.384583
58.925 25.248856
58.930 24.878094
58.935 24.281927
58.940 23.43364
58.945 23.545677
58.950 23.931633
58.955 23.173985
58.960 22.040461
58.965 21.732216
58.970 21.841112
58.975 21.462826
58.980 20.474907
58.985 19.535736
58.990 19.544867
58.995 19.812311
59.000 19.584225
59.005 19.230223
59.010 19.692135
59.015 20.129704
59.020 20.103537
59.025 19.708185
59.030 19.502419
59.035 19.480631
59.040 19.734371
59.045 19.366909
59.050 18.99588
59.055 18.525032
59.060 18.93453
59.065 19.141268
59.070 18.48283
59.075 17.694626
59.080 18.420298
59.085 18.621666
59.090 19.027363
59.095 18.524235
59.100 18.244341
59.105 18.95569
59.110 18.845486
59.115 17.18976
59.120 16.613245
59.125 16.283432
59.130 16.402893
59.135 16.235582
59.140 16.067093
59.145 16.040554
59.150 16.639303
59.155 16.444809
59.160 16.567883
59.165 16.6071
59.170 16.506742
59.175 16.087086
59.180 15.825665
59.185 15.580716
59.190 15.920607
59.195 16.224356
59.200 16.061962
59.205 16.253931
59.210 16.625685
59.215 16.751074
59.220 16.656944
59.225 15.640254
59.230 15.209972
59.235 15.644934
59.240 15.21855
59.245 14.688625
59.250 15.047422
59.255 15.331311
59.260 15.580338
59.265 14.950361
59.270 14.55401
59.275 14.701362
59.280 14.934283
59.285 14.456215
59.290 13.974742
59.295 14.523543
59.300 15.297604
59.305 15.601014
59.310 15.567759
59.315 15.394007
59.320 15.44923
59.325 15.911392
59.330 15.836383
59.335 15.860324
59.340 15.604222
59.345 15.827266
59.350 15.820461
59.355 16.055386
59.360 16.1327
59.365 16.341986
59.370 16.489122
59.375 16.287876
59.380 15.882274
59.385 16.016953
59.390 16.606855
59.395 16.199623
59.400 15.633741
59.405 15.120929
59.410 15.592187
59.415 15.625709
59.420 14.837718
59.425 13.908346
59.430 13.935561
59.435 14.052479
59.440 13.908422
59.445 13.700406
59.450 13.901361
59.455 14.639869
59.460 15.441998
59.465 15.69768
59.470 15.916189
59.475 16.916195
59.480 16.936077
59.485 16.844151
59.490 16.666611
59.495 15.987438
59.500 15.895751
59.505 15.447868
59.510 14.888803
59.515 15.181911
59.520 15.43529
59.525 15.525331
59.530 15.938338
59.535 15.969566
59.540 16.067225
59.545 16.215281
59.550 16.231712
59.555 16.155849
59.560 15.65312
59.565 15.13224
59.570 15.526886
59.575 15.696656
59.580 15.553995
59.585 15.388123
59.590 14.918881
59.595 15.152218
59.600 15.965951
59.605 15.461331
59.610 15.617898
59.615 15.564236
59.620 15.566767
59.625 16.05917
59.630 16.217588
59.635 15.856021
59.640 15.619053
59.645 14.837245
59.650 14.830849
59.655 14.830643
59.660 14.833809
59.665 14.785586
59.670 14.975289
59.675 16.024572
59.680 16.764978
59.685 16.7803
59.690 16.813057
59.695 16.639944
59.700 17.402819
59.705 17.261625
59.710 16.38793
59.715 16.382147
59.720 16.641314
59.725 16.420103
59.730 16.362087
59.735 15.630418
59.740 15.716628
59.745 15.8179
59.750 15.61585
59.755 15.698306
59.760 16.097483
59.765 15.891206
59.770 15.170465
59.775 15.396416
59.780 15.545938
59.785 15.059448
59.790 14.503119
59.795 14.259486
59.800 14.562067
59.805 14.873737
59.810 14.950172
59.815 15.0312
59.820 15.383999
59.825 15.662395
59.830 15.455296
59.835 15.647565
59.840 16.037338
59.845 15.932117
59.850 15.961476
59.855 15.714917
59.860 15.499537
59.865 16.077833
59.870 16.316133
59.875 15.986417
59.880 15.581362
59.885 15.41537
59.890 15.671542
59.895 15.989568
59.900 15.773064
59.905 15.709102
59.910 15.855742
59.915 15.928537
59.920 16.211866
59.925 16.193895
59.930 15.830212
59.935 15.864941
59.940 15.584191
59.945 15.163754
59.950 14.740589
59.955 14.644175
59.960 14.905067
59.965 15.00683
59.970 14.893082
59.975 15.439502
59.980 15.887814
59.985 16.425413
59.990 16.34277
59.995 16.266766
60.000 16.599234
60.005 16.712717
60.010 16.225861
60.015 16.128054
60.020 16.15258
60.025 16.320261
60.030 15.775032
60.035 15.194142
60.040 15.639581
60.045 15.761542
60.050 15.993366
60.055 15.352519
60.060 14.982123
60.065 15.039967
60.070 15.106412
60.075 14.399069
60.080 13.935432
60.085 14.057912
60.090 14.552229
60.095 15.07462
60.100 15.61174
60.105 15.574805
60.110 15.485364
60.115 15.121334
60.120 14.833705
60.125 15.017595
60.130 14.741942
60.135 15.169304
60.140 15.079047
60.145 15.313207
60.150 15.810299
60.155 15.714647
60.160 15.011931
60.165 14.888146
60.170 14.271272
60.175 14.545966
60.180 14.721199
60.185 14.157921
60.190 14.078485
60.195 14.309651
60.200 14.154382
60.205 14.677074
60.210 14.855438
60.215 14.688364
60.220 15.409526
60.225 15.804659
60.230 15.558498
60.235 15.074227
60.240 14.379629
60.245 14.354997
60.250 15.106915
60.255 15.368099
60.260 15.349669
60.265 16.207256
60.270 16.670385
60.275 17.118061
60.280 16.491907
60.285 15.824864
60.290 15.496094
60.295 15.411454
60.300 15.147027
60.305 15.13947
60.310 14.860891
60.315 15.25633
60.320 15.422194
60.325 15.323153
60.330 15.132967
60.335 15.119241
60.340 15.254017
60.345 15.886658
60.350 15.896159
60.355 15.755213
60.360 16.04723
60.365 16.032553
60.370 16.025805
60.375 16.015255
60.380 15.321202
60.385 15.564188
60.390 15.244727
60.395 15.154486
60.400 15.123029
60.405 14.84844
60.410 14.31699
60.415 14.471476
60.420 14.604533
60.425 14.834526
60.430 14.967905
60.435 15.195019
60.440 15.127842
60.445 15.186966
60.450 15.067606
60.455 14.211714
60.460 14.405912
60.465 14.433404
60.470 14.497087
60.475 15.108531
60.480 15.270562
60.485 15.319969
60.490 15.582827
60.495 15.622924
60.500 15.313969
60.505 15.222622
60.510 14.978423
60.515 15.626515
60.520 15.740259
60.525 16.016125
60.530 15.892758
60.535 15.385678
60.540 15.216765
60.545 14.521939
60.550 13.758798
60.555 13.834716
60.560 13.583469
60.565 13.866372
60.570 14.804091
60.575 15.245447
60.580 15.220113
60.585 15.797558
60.590 15.779104
60.595 15.900367
60.600 15.706055
60.605 15.175815
60.610 15.971372
60.615 16.644283
60.620 16.290817
60.625 16.361692
60.630 16.317558
60.635 16.569487
60.640 16.824013
60.645 16.24036
60.650 16.255568
60.655 16.308277
60.660 16.469681
60.665 16.223747
60.670 15.568304
60.675 15.633914
60.680 15.467294
60.685 15.726842
60.690 15.796618
60.695 16.094456
60.700 16.119179
60.705 16.850786
60.710 16.701162
60.715 16.784191
60.720 16.50886
60.725 16.793924
60.730 16.899092
60.735 17.074905
60.740 16.375374
60.745 16.11928
60.750 15.606324
60.755 15.140999
60.760 15.034224
60.765 15.19824
60.770 15.801493
60.775 15.919924
60.780 15.800159
60.785 15.936649
60.790 16.467999
60.795 16.132725
60.800 15.474553
60.805 14.80028
60.810 14.991766
60.815 14.875845
60.820 14.974242
60.825 15.232225
60.830 15.127703
60.835 15.296754
60.840 15.331159
60.845 15.662733
60.850 16.495745
60.855 16.421597
60.860 16.25926
60.865 16.297455
60.870 16.681105
60.875 16.722673
60.880 16.686064
60.885 16.316486
60.890 16.461977
60.895 16.244322
60.900 16.074911
60.905 15.484387
60.910 15.262329
60.915 15.382379
60.920 15.07322
60.925 14.689188
60.930 14.549964
60.935 14.874183
60.940 15.298652
60.945 15.490638
60.950 16.142906
60.955 16.733465
60.960 17.305578
60.965 17.940218
60.970 17.611786
60.975 17.369326
60.980 17.091373
60.985 15.982552
60.990 15.5466
60.995 15.176168
61.000 15.076419
61.005 15.609508
61.010 15.60991
61.015 15.489922
61.020 16.038786
61.025 16.130516
61.030 16.194748
61.035 15.706324
61.040 15.46258
61.045 15.778797
61.050 15.792886
61.055 15.59053
61.060 16.189583
61.065 15.871498
61.070 15.68714
61.075 15.574443
61.080 15.754845
61.085 15.431459
61.090 14.594999
61.095 14.184227
61.100 14.547601
61.105 14.704717
61.110 15.018996
61.115 14.796281
61.120 15.421308
61.125 16.180096
61.130 16.043365
61.135 16.135427
61.140 16.477007
61.145 16.693689
61.150 16.868139
61.155 16.31646
61.160 16.153044
61.165 16.003477
61.170 15.706883
61.175 15.357258
61.180 14.70131
61.185 14.514709
61.190 15.000635
61.195 15.41032
61.200 15.880954
61.205 16.077482
61.210 16.633997
61.215 17.407429
61.220 17.50042
61.225 17.502907
61.230 17.159199
61.235 17.057444
61.240 17.064013
61.245 16.729801
61.250 16.828028
61.255 17.285507
61.260 17.657621
61.265 17.419798
61.270 17.671038
61.275 17.585089
61.280 17.236046
61.285 17.177343
61.290 16.595898
61.295 15.957608
61.300 15.418315
61.305 15.127904
61.310 15.024753
61.315 15.375003
61.320 15.321573
61.325 15.275996
61.330 15.865981
61.335 16.552538
61.340 16.130526
61.345 15.80694
61.350 15.610577
61.355 15.81589
61.360 15.87928
61.365 15.323858
61.370 14.693402
61.375 15.002175
61.380 15.513603
61.385 15.150212
61.390 14.956131
61.395 15.086701
61.400 15.664924
61.405 16.248541
61.410 16.276142
61.415 15.544781
61.420 15.542406
61.425 15.633174
61.430 15.709715
61.435 15.38053
61.440 15.347285
61.445 15.231607
61.450 16.005592
61.455 15.952689
61.460 15.69707
61.465 15.703547
61.470 15.930483
61.475 15.900346
61.480 15.561088
61.485 14.938869
61.490 15.025781
61.495 15.340487
61.500 15.493075
61.505 15.329052
61.510 14.939571
61.515 15.318084
61.520 15.54459
61.525 15.236392
61.530 14.80921
61.535 14.413363
61.540 14.308164
61.545 15.148319
61.550 15.678247
61.555 15.97151
61.560 16.087807
61.565 16.59585
61.570 16.816242
61.575 17.624676
61.580 16.933769
61.585 16.206442
61.590 15.612053
61.595 15.494324
61.600 15.369974
61.605 15.474072
61.610 15.445128
61.615 15.982882
61.620 16.182705
61.625 16.621489
61.630 16.383125
61.635 16.355217
61.640 16.563807
61.645 16.064789
61.650 15.555827
61.655 15.494985
61.660 15.624572
61.665 15.823131
61.670 15.193326
61.675 14.783779
61.680 14.704165
61.685 14.531867
61.690 14.340917
61.695 14.496725
61.700 14.854809
61.705 15.11447
61.710 15.272165
61.715 15.63753
61.720 16.419285
61.725 17.002134
61.730 16.815449
61.735 16.908272
61.740 16.850113
61.745 17.351114
61.750 17.620056
61.755 17.779476
61.760 17.54463
61.765 17.38402
61.770 17.512377
61.775 17.214575
61.780 16.223932
61.785 15.840789
61.790 15.784165
61.795 15.73983
61.800 15.542487
61.805 15.12202
61.810 15.586607
61.815 15.932041
61.820 15.90166
61.825 15.758032
61.830 15.908269
61.835 15.942244
61.840 15.982957
61.845 15.711363
61.850 15.513847
61.855 15.413816
61.860 15.419989
61.865 16.118267
61.870 16.625238
61.875 17.475401
61.880 18.460657
61.885 18.945036
61.890 18.861055
61.895 18.843439
61.900 18.583445
61.905 18.063459
61.910 17.520102
61.915 16.92864
61.920 16.787699
61.925 17.21245
61.930 17.080189
61.935 16.523293
61.940 16.974651
61.945 16.424829
61.950 15.951146
61.955 15.426221
61.960 14.849755
61.965 15.054465
61.970 16.025953
61.975 16.184803
61.980 16.607567
61.985 16.988342
61.990 17.3332
61.995 17.704014
62.000 18.025017
62.005 17.71649
62.010 17.498882
62.015 17.467646
62.020 17.480221
62.025 17.693365
62.030 17.374226
62.035 16.386057
62.040 15.793126
62.045 15.461191
62.050 15.595562
62.055 15.414667
62.060 15.165246
62.065 15.065566
62.070 15.160224
62.075 15.144475
62.080 15.709791
62.085 16.042341
62.090 16.416813
62.095 16.527107
62.100 16.575911
62.105 16.715895
62.110 17.01815
62.115 16.391945
62.120 16.131273
62.125 16.259317
62.130 16.037918
62.135 16.544476
62.140 16.588987
62.145 16.769512
62.150 16.543657
62.155 16.480051
62.160 16.293009
62.165 16.286137
62.170 16.28812
62.175 15.942066
62.180 15.897959
62.185 16.277361
62.190 16.419643
62.195 16.770988
62.200 16.616007
62.205 16.425541
62.210 16.755077
62.215 16.746698
62.220 16.455692
62.225 15.407857
62.230 14.77748
62.235 14.951915
62.240 15.113862
62.245 15.207595
62.250 15.082922
62.255 15.024233
62.260 15.346309
62.265 15.738335
62.270 15.983792
62.275 16.187147
62.280 16.10585
62.285 16.747574
62.290 16.744909
62.295 17.185919
62.300 17.064547
62.305 17.080515
62.310 16.56422
62.315 16.341831
62.320 15.656831
62.325 15.856162
62.330 16.14897
62.335 15.954096
62.340 15.429641
62.345 15.251268
62.350 15.233315
62.355 15.434499
62.360 15.434156
62.365 15.169816
62.370 15.443708
62.375 15.976675
62.380 16.231833
62.385 16.379988
62.390 16.151226
62.395 15.873587
62.400 15.560205
62.405 15.698415
62.410 16.019646
62.415 16.454273
62.420 16.176851
62.425 16.168825
62.430 16.227386
62.435 17.090307
62.440 17.17061
62.445 17.095381
62.450 17.255896
62.455 17.778112
62.460 17.999617
62.465 18.359461
62.470 18.030233
62.475 18.179916
62.480 18.076897
62.485 18.083611
62.490 18.015671
62.495 18.21171
62.500 18.076471
62.505 17.865711
62.510 17.791407
62.515 18.368553
62.520 18.227379
62.525 17.792755
62.530 18.189928
62.535 18.072454
62.540 17.458122
62.545 16.81588
62.550 15.826265
62.555 16.445457
62.560 16.542389
62.565 16.24124
62.570 16.505629
62.575 17.299835
62.580 17.473635
62.585 17.050541
62.590 16.603125
62.595 16.679567
62.600 16.618866
62.605 16.307339
62.610 15.722056
62.615 15.879394
62.620 15.788072
62.625 15.625845
62.630 15.439808
62.635 14.621931
62.640 15.107103
62.645 15.483044
62.650 15.611721
62.655 16.194208
62.660 16.602915
62.665 17.0968
62.670 17.759319
62.675 17.659229
62.680 17.383921
62.685 17.304672
62.690 16.840113
62.695 16.213818
62.700 15.468703
62.705 15.059572
62.710 14.674487
62.715 14.986731
62.720 15.50596
62.725 15.964229
62.730 16.347694
62.735 16.79669
62.740 17.536455
62.745 18.034613
62.750 17.847965
62.755 17.216549
62.760 17.572662
62.765 18.014191
62.770 17.833609
62.775 17.508528
62.780 17.209553
62.785 16.788954
62.790 16.907816
62.795 16.983562
62.800 16.93712
62.805 17.617073
62.810 17.588385
62.815 17.684807
62.820 17.989281
62.825 17.916842
62.830 16.901426
62.835 16.502907
62.840 15.914488
62.845 15.973881
62.850 16.600876
62.855 16.651899
62.860 16.988953
62.865 17.48361
62.870 17.629042
62.875 17.851784
62.880 17.435684
62.885 16.891069
62.890 16.443129
62.895 16.203829
62.900 16.75975
62.905 16.986856
62.910 16.968634
62.915 17.402021
62.920 17.9077
62.925 18.286251
62.930 17.949583
62.935 17.028841
62.940 16.552025
62.945 16.382084
62.950 15.961311
62.955 15.926291
62.960 15.7561
62.965 15.995481
62.970 16.776073
62.975 17.177866
62.980 17.508615
62.985 17.474545
62.990 17.167839
62.995 17.024889
63.000 16.565508
63.005 16.68107
63.010 16.650373
63.015 16.818752
63.020 17.014423
63.025 16.926613
63.030 17.107529
63.035 17.177406
63.040 16.278271
63.045 16.197109
63.050 16.052036
63.055 15.881923
63.060 16.302467
63.065 16.91037
63.070 17.397537
63.075 18.456223
63.080 18.025379
63.085 17.67824
63.090 17.91666
63.095 17.375153
63.100 16.666294
63.105 16.692263
63.110 16.598598
63.115 17.205648
63.120 17.447739
63.125 17.355358
63.130 17.72753
63.135 17.979296
63.140 17.636501
63.145 17.513527
63.150 16.681007
63.155 16.274742
63.160 16.28673
63.165 16.35631
63.170 16.406645
63.175 16.793291
63.180 17.016535
63.185 17.883667
63.190 18.44759
63.195 18.497931
63.200 18.271204
63.205 18.094706
63.210 17.24045
63.215 16.46736
63.220 15.49493
63.225 14.783108
63.230 14.276207
63.235 14.168336
63.240 13.959986
63.245 14.632468
63.250 15.740136
63.255 16.69628
63.260 17.28924
63.265 17.634632
63.270 17.836773
63.275 18.028561
63.280 17.847929
63.285 17.46558
63.290 17.311743
63.295 17.132988
63.300 17.066242
63.305 17.398741
63.310 17.622511
63.315 18.04767
63.320 18.575182
63.325 18.649805
63.330 19.116941
63.335 18.876884
63.340 18.454493
63.345 18.474701
63.350 18.419952
63.355 17.4774
63.360 17.149843
63.365 16.680986
63.370 17.333754
63.375 17.714993
63.380 17.417894
63.385 16.112947
63.390 16.628611
63.395 17.129734
63.400 16.860199
63.405 16.604269
63.410 16.632055
63.415 16.366259
63.420 16.910986
63.425 16.604763
63.430 16.655405
63.435 17.460873
63.440 17.588808
63.445 17.952045
63.450 18.759403
63.455 19.181952
63.460 19.301779
63.465 19.073997
63.470 18.767229
63.475 18.393652
63.480 18.239445
63.485 18.315475
63.490 17.900805
63.495 17.472456
63.500 17.447346
63.505 17.259926
63.510 17.217735
63.515 16.92288
63.520 16.690168
63.525 16.665085
63.530 16.712294
63.535 16.786964
63.540 17.013826
63.545 17.178623
63.550 17.467686
63.555 17.598511
63.560 17.433784
63.565 17.804935
63.570 17.422005
63.575 17.357086
63.580 17.046394
63.585 16.400835
63.590 16.065149
63.595 16.525959
63.600 16.55101
63.605 16.973646
63.610 16.615194
63.615 16.734112
63.620 16.983313
63.625 17.248068
63.630 17.331123
63.635 17.687321
63.640 17.93022
63.645 18.50602
63.650 18.565861
63.655 18.754349
63.660 18.620003
63.665 18.647768
63.670 18.673605
63.675 18.568148
63.680 18.836233
63.685 18.951414
63.690 18.490351
63.695 18.268982
63.700 17.960001
63.705 17.277552
63.710 16.740011
63.715 16.337191
63.720 16.612801
63.725 17.157114
63.730 17.146341
63.735 17.393625
63.740 17.208757
63.745 17.411596
63.750 17.015232
63.755 16.598989
63.760 16.491291
63.765 16.507942
63.770 16.406258
63.775 16.686024
63.780 16.79376
63.785 16.804188
63.790 17.089058
63.795 16.94846
63.800 17.273632
63.805 17.272558
63.810 17.4231
63.815 17.537754
63.820 17.689615
63.825 17.227732
63.830 17.237019
63.835 17.850866
63.840 18.612732
63.845 18.796375
63.850 19.358355
63.855 19.69323
63.860 20.252922
63.865 20.252499
63.870 19.260454
63.875 18.454746
63.880 17.628593
63.885 17.102837
63.890 17.025808
63.895 17.426111
63.900 18.074968
63.905 18.76903
63.910 18.967554
63.915 19.885479
63.920 20.480507
63.925 20.633457
63.930 20.198772
63.935 19.922087
63.940 19.686344
63.945 19.918364
63.950 19.565821
63.955 19.222374
63.960 19.466515
63.965 19.432489
63.970 19.204763
63.975 19.179106
63.980 19.228474
63.985 19.095968
63.990 19.286068
63.995 19.625984
64.000 20.225895
64.005 21.024162
64.010 21.618528
64.015 22.748253
64.020 23.113331
64.025 22.856216
64.030 22.569014
64.035 22.404976
64.040 21.782688
64.045 21.099106
64.050 20.310074
64.055 19.687248
64.060 19.868937
64.065 19.810648
64.070 19.712513
64.075 20.279985
64.080 21.4622
64.085 21.792833
64.090 22.014841
64.095 21.986706
64.100 21.800797
64.105 21.890341
64.110 21.678095
64.115 21.065477
64.120 21.180059
64.125 21.888996
64.130 22.037588
64.135 22.187195
64.140 22.395016
64.145 22.563768
64.150 22.998329
64.155 24.063759
64.160 24.713875
64.165 24.953701
64.170 25.064157
64.175 25.604179
64.180 25.722103
64.185 25.571234
64.190 25.302755
64.195 25.559532
64.200 26.325611
64.205 26.432045
64.210 26.356863
64.215 26.367699
64.220 27.400545
64.225 27.78828
64.230 27.662296
64.235 27.808306
64.240 28.908022
64.245 29.541842
64.250 30.323982
64.255 30.409121
64.260 31.233673
64.265 31.734224
64.270 32.06789
64.275 32.858906
64.280 33.536102
64.285 34.268745
64.290 35.68679
64.295 35.986256
64.300 37.270473
64.305 38.245045
64.310 38.545963
64.315 38.733334
64.320 38.832348
64.325 39.077602
64.330 39.919312
64.335 40.357513
64.340 40.350422
64.345 40.462978
64.350 41.163074
64.355 41.859154
64.360 43.560833
64.365 44.803345
64.370 45.389938
64.375 46.439045
64.380 47.620171
64.385 48.526573
64.390 49.044895
64.395 50.073082
64.400 50.58091
64.405 51.38163
64.410 51.752201
64.415 52.504631
64.420 53.058983
64.425 53.874634
64.430 53.472958
64.435 53.340191
64.440 53.512939
64.445 54.118191
64.450 54.126858
64.455 54.390297
64.460 54.16111
64.465 54.479221
64.470 54.426781
64.475 55.272594
64.480 55.465176
64.485 55.311623
64.490 55.029942
64.495 54.689564
64.500 55.175217
64.505 55.399914
64.510 54.644817
64.515 54.094521
64.520 52.773167
64.525 52.243427
64.530 52.178307
64.535 51.709072
64.540 51.288166
64.545 50.075695
64.550 49.283981
64.555 49.398472
64.560 49.302494
64.565 48.789692
64.570 47.298981
64.575 45.392349
64.580 45.018974
64.585 44.974762
64.590 44.412338
64.595 43.654091
64.600 42.744308
64.605 42.651558
64.610 42.244358
64.615 42.383457
64.620 41.814747
64.625 41.157524
64.630 40.760937
64.635 39.934837
64.640 38.815952
64.645 38.951862
64.650 38.160744
64.655 37.977631
64.660 37.121559
64.665 36.48893
64.670 36.227715
64.675 36.697987
64.680 36.383183
64.685 35.808121
64.690 34.591595
64.695 34.367599
64.700 34.810131
64.705 34.2719
64.710 32.599602
64.715 31.733709
64.720 31.704081
64.725 32.555229
64.730 32.186001
64.735 31.013119
64.740 30.267662
64.745 29.944551
64.750 29.409952
64.755 28.428877
64.760 28.192635
64.765 27.825493
64.770 28.157217
64.775 27.710466
64.780 27.81324
64.785 27.703861
64.790 27.107483
64.795 26.816877
64.800 26.736738
64.805 26.143051
64.810 26.133606
64.815 25.748642
64.820 25.773876
64.825 25.969549
64.830 25.503122
64.835 25.477793
64.840 25.500393
64.845 25.233974
64.850 24.511721
64.855 24.261694
64.860 24.330048
64.865 24.643822
64.870 24.479813
64.875 24.572886
64.880 24.555592
64.885 24.721617
64.890 24.519363
64.895 24.033766
64.900 23.717369
64.905 24.115879
64.910 24.608465
64.915 25.382206
64.920 25.785715
64.925 26.029766
64.930 26.249233
64.935 26.050087
64.940 25.685068
64.945 25.160368
64.950 24.717827
64.955 25.021423
64.960 24.82313
64.965 25.073351
64.970 25.893801
64.975 26.822439
64.980 27.64876
64.985 28.105097
64.990 28.692478
64.995 29.837511
65.000 30.480928
65.005 30.607347
65.010 31.014629
65.015 30.814554
65.020 31.600538
65.025 31.860252
65.030 32.634323
65.035 32.933979
65.040 33.342949
65.045 33.255474
65.050 34.105122
65.055 35.359001
65.060 36.821945
65.065 36.571098
65.070 36.668472
65.075 36.49823
65.080 36.61758
65.085 36.841118
65.090 36.759491
65.095 36.647541
65.100 36.971462
65.105 37.549488
65.110 38.017609
65.115 38.305374
65.120 37.798443
65.125 36.669365
65.130 35.932636
65.135 35.957165
65.140 35.588436
65.145 35.921474
65.150 36.476162
65.155 37.432659
65.160 38.916561
65.165 38.73872
65.170 39.035694
65.175 39.4259
65.180 39.508076
65.185 39.532944
65.190 39.384136
65.195 39.691147
65.200 41.324127
65.205 41.820225
65.210 42.215355
65.215 42.257919
65.220 42.41127
65.225 42.515926
65.230 41.999062
65.235 41.77515
65.240 41.847225
65.245 42.107399
65.250 42.051109
65.255 41.576969
65.260 41.741947
65.265 41.70982
65.270 42.336758
65.275 42.780533
65.280 42.914997
65.285 43.208694
65.290 43.446777
65.295 43.751823
65.300 44.371277
65.305 44.982117
65.310 45.224834
65.315 45.13723
65.320 44.121525
65.325 44.018944
65.330 43.899021
65.335 43.125198
65.340 41.695831
65.345 41.10033
65.350 41.190231
65.355 42.134907
65.360 42.398945
65.365 42.680183
65.370 42.246029
65.375 42.172577
65.380 41.690403
65.385 42.0797
65.390 42.37199
65.395 42.043961
65.400 41.989212
65.405 42.347683
65.410 42.783726
65.415 43.253288
65.420 42.235474
65.425 41.479919
65.430 40.827454
65.435 40.9669
65.440 42.155804
65.445 41.645363
65.450 41.334686
65.455 41.466309
65.460 41.764004
65.465 42.025135
65.470 40.72245
65.475 39.264175
65.480 38.785431
65.485 39.068859
65.490 39.372719
65.495 39.638058
65.500 39.724194
65.505 39.246399
65.510 39.250961
65.515 38.80769
65.520 37.967796
65.525 37.339306
65.530 36.424698
65.535 36.698151
65.540 36.822796
65.545 37.6007
65.550 38.575996
65.555 38.483341
65.560 38.740189
65.565 38.114418
65.570 37.425049
65.575 37.092075
65.580 36.622349
65.585 35.548019
65.590 34.983288
65.595 34.904793
65.600 35.047531
65.605 34.508255
65.610 34.05056
65.615 33.387066
65.620 33.982029
65.625 34.203865
65.630 33.915356
65.635 34.88343
65.640 35.903206
65.645 35.6707
65.650 34.587406
65.655 33.738297
65.660 33.343758
65.665 32.636047
65.670 31.377348
65.675 31.202906
65.680 31.619381
65.685 31.285133
65.690 31.709778
65.695 31.725836
65.700 31.334026
65.705 31.569561
65.710 31.213905
65.715 31.300322
65.720 31.734425
65.725 31.313026
65.730 31.293011
65.735 31.88224
65.740 32.077312
65.745 31.337543
65.750 30.341595
65.755 30.175901
65.760 29.873949
65.765 29.424545
65.770 28.988588
65.775 28.13932
65.780 28.216322
65.785 27.724892
65.790 27.23877
65.795 27.425774
65.800 27.421534
65.805 27.190439
65.810 27.147148
65.815 26.939859
65.820 27.511848
65.825 27.281982
65.830 27.114996
65.835 27.067915
65.840 26.740595
65.845 25.842064
65.850 25.080193
65.855 24.138176
65.860 23.556328
65.865 22.508686
65.870 21.319441
65.875 21.452574
65.880 21.767309
65.885 21.893093
65.890 21.534863
65.895 21.414173
65.900 21.393332
65.905 21.383596
65.910 20.991007
65.915 20.791439
65.920 20.655067
65.925 20.581892
65.930 20.615635
65.935 20.602362
65.940 20.037727
65.945 19.457739
65.950 19.571732
65.955 19.545851
65.960 19.408169
65.965 19.08156
65.970 19.162619
65.975 19.60075
65.980 19.796638
65.985 20.062311
65.990 20.258064
65.995 20.437117
66.000 21.222977
66.005 21.512573
66.010 21.656343
66.015 21.003529
66.020 20.155138
66.025 19.892603
66.030 20.312216
66.035 19.690178
66.040 19.154791
66.045 19.514265
66.050 19.963018
66.055 20.213915
66.060 20.055986
66.065 19.216824
66.070 19.032536
66.075 19.042397
66.080 18.955006
66.085 19.405268
66.090 19.954212
66.095 20.075424
66.100 19.817112
66.105 19.373758
66.110 19.436613
66.115 19.503298
66.120 19.269585
66.125 18.661469
66.130 18.51689
66.135 18.219418
66.140 18.436073
66.145 18.043121
66.150 17.80547
66.155 17.937195
66.160 18.101835
66.165 18.417429
66.170 19.264784
66.175 19.091936
66.180 19.125425
66.185 18.640318
66.190 18.234201
66.195 18.232386
66.200 18.270498
66.205 18.499039
66.210 18.960405
66.215 19.123852
66.220 19.743876
66.225 20.106863
66.230 20.118362
66.235 19.371719
66.240 18.702291
66.245 18.743692
66.250 18.886282
66.255 18.205704
66.260 18.07802
66.265 18.005077
66.270 17.854561
66.275 17.804585
66.280 17.640785
66.285 17.103928
66.290 17.721037
66.295 18.021717
66.300 18.227983
66.305 18.800558
66.310 18.80386
66.315 18.793879
66.320 19.17975
66.325 19.343994
66.330 19.0259
66.335 18.481398
66.340 18.7973
66.345 18.865583
66.350 19.158123
66.355 18.98472
66.360 18.93096
66.365 19.062088
66.370 19.371538
66.375 19.004467
66.380 18.92296
66.385 18.875034
66.390 18.931982
66.395 18.901358
66.400 18.530199
66.405 18.103788
66.410 17.684746
66.415 17.53091
66.420 17.243441
66.425 17.580429
66.430 16.920076
66.435 16.823307
66.440 17.308302
66.445 18.534269
66.450 18.767876
66.455 18.633045
66.460 17.726463
66.465 17.749285
66.470 18.171349
66.475 18.01095
66.480 17.064617
66.485 17.179743
66.490 16.960531
66.495 17.319639
66.500 17.774881
66.505 18.069016
66.510 18.410387
66.515 18.897636
66.520 19.049713
66.525 19.107534
66.530 19.166288
66.535 19.300516
66.540 18.832844
66.545 18.356083
66.550 17.953934
66.555 17.818621
66.560 18.111908
66.565 18.259695
66.570 18.274693
66.575 18.353832
66.580 18.090841
66.585 17.906372
66.590 17.468733
66.595 17.560968
66.600 17.424896
66.605 17.002102
66.610 16.737486
66.615 16.681952
66.620 16.607327
66.625 16.911034
66.630 16.70006
66.635 16.623089
66.640 16.995771
66.645 17.202709
66.650 17.596613
66.655 17.932596
66.660 17.940685
66.665 18.171602
66.670 18.003162
66.675 18.357813
66.680 18.641775
66.685 18.567657
66.690 18.769478
66.695 18.668798
66.700 18.622406
66.705 18.817642
66.710 18.432526
66.715 18.574535
66.720 18.770414
66.725 18.614035
66.730 18.630482
66.735 18.389811
66.740 18.049963
66.745 17.749788
66.750 17.279045
66.755 16.639536
66.760 16.373924
66.765 16.035795
66.770 16.203499
66.775 16.638124
66.780 16.837959
66.785 16.933517
66.790 16.998425
66.795 17.060232
66.800 17.252737
66.805 16.999296
66.810 16.921461
66.815 16.950987
66.820 17.540621
66.825 17.489105
66.830 17.94235
66.835 17.771925
66.840 17.607025
66.845 17.855654
66.850 17.969141
66.855 17.708559
66.860 18.319679
66.865 18.363646
66.870 19.146339
66.875 19.250069
66.880 19.089382
66.885 19.246576
66.890 19.447044
66.895 18.977154
66.900 18.820503
66.905 18.216885
66.910 18.614693
66.915 18.229218
66.920 17.605234
66.925 17.602751
66.930 18.057095
66.935 18.040777
66.940 18.548845
66.945 18.411921
66.950 18.822918
66.955 19.18412
66.960 18.652031
66.965 18.087841
66.970 18.228682
66.975 18.063675
66.980 18.182163
66.985 18.237221
66.990 18.078564
66.995 18.614786
67.000 18.429422
67.005 18.20064
67.010 17.582342
67.015 17.278412
67.020 17.122007
67.025 17.337133
67.030 17.456558
67.035 17.710392
67.040 17.915405
67.045 18.251511
67.050 18.18257
67.055 17.974773
67.060 17.743307
67.065 17.141703
67.070 17.191002
67.075 17.285631
67.080 17.075884
67.085 16.935684
67.090 17.143066
67.095 17.452244
67.100 17.407534
67.105 16.538904
67.110 16.791149
67.115 17.132111
67.120 17.737503
67.125 17.520098
67.130 16.924105
67.135 17.256851
67.140 17.872921
67.145 17.740566
67.150 17.810207
67.155 16.958023
67.160 16.662909
67.165 17.210371
67.170 17.125093
67.175 17.397839
67.180 17.164152
67.185 17.25411
67.190 17.859818
67.195 17.867641
67.200 17.56728
67.205 17.644253
67.210 17.627279
67.215 18.199667
67.220 18.275126
67.225 18.521482
67.230 19.015877
67.235 18.963722
67.240 18.825775
67.245 18.691118
67.250 18.52088
67.255 17.870449
67.260 17.558523
67.265 17.531919
67.270 17.831234
67.275 18.081293
67.280 18.091846
67.285 18.007011
67.290 18.192631
67.295 17.972305
67.300 17.81188
67.305 17.936657
67.310 17.3922
67.315 16.935656
67.320 16.89187
67.325 16.608068
67.330 16.673374
67.335 16.526182
67.340 16.11268
67.345 16.999979
67.350 17.417282
67.355 17.438265
67.360 18.225023
67.365 18.597963
67.370 18.640982
67.375 19.370371
67.380 18.932402
67.385 19.324398
67.390 19.190432
67.395 18.630291
67.400 18.412024
67.405 18.458248
67.410 17.900723
67.415 18.116373
67.420 17.747894
67.425 18.162951
67.430 18.420822
67.435 18.579573
67.440 18.750227
67.445 19.04583
67.450 18.541618
67.455 18.70063
67.460 18.722128
67.465 19.226395
67.470 19.052416
67.475 19.012583
67.480 19.42977
67.485 19.644047
67.490 19.31929
67.495 19.576046
67.500 19.349304
67.505 19.339071
67.510 19.781427
67.515 19.021931
67.520 19.698503
67.525 19.851187
67.530 19.232023
67.535 19.207609
67.540 19.037916
67.545 18.921755
67.550 19.545788
67.555 19.736107
67.560 19.952307
67.565 19.459539
67.570 19.664015
67.575 19.725817
67.580 19.6269
67.585 19.360468
67.590 18.789101
67.595 18.881508
67.600 19.882509
67.605 19.131296
67.610 19.048985
67.615 18.635336
67.620 19.080267
67.625 19.728817
67.630 19.368942
67.635 19.037031
67.640 19.130976
67.645 19.6894
67.650 20.221596
67.655 19.116627
67.660 17.939209
67.665 18.074629
67.670 18.501183
67.675 18.465752
67.680 17.803816
67.685 17.268744
67.690 18.179939
67.695 18.842829
67.700 18.290573
67.705 18.723873
67.710 19.271479
67.715 19.234039
67.720 19.253782
67.725 17.903818
67.730 17.772682
67.735 17.498446
67.740 16.61557
67.745 16.215395
67.750 16.102104
67.755 16.423975
67.760 17.113501
67.765 17.637386
67.770 17.835127
67.775 18.544689
67.780 19.014435
67.785 19.611794
67.790 19.861284
67.795 20.043335
67.800 20.201527
67.805 20.372242
67.810 19.769564
67.815 19.481003
67.820 19.114109
67.825 19.118031
67.830 18.645983
67.835 18.663822
67.840 19.006907
67.845 18.907854
67.850 19.228657
67.855 19.075642
67.860 18.462282
67.865 18.482695
67.870 18.019157
67.875 18.24511
67.880 18.310085
67.885 17.860394
67.890 18.076172
67.895 18.864101
67.900 19.386951
67.905 19.420856
67.910 19.284119
67.915 19.611153
67.920 19.884544
67.925 19.5791
67.930 19.20199
67.935 18.894485
67.940 19.309511
67.945 19.02384
67.950 18.54777
67.955 18.451107
67.960 18.261139
67.965 17.595745
67.970 17.379581
67.975 16.788837
67.980 17.091473
67.985 17.07213
67.990 17.338089
67.995 17.644775
68.000 18.040779
68.005 18.399868
68.010 18.494804
68.015 18.888453
68.020 19.299623
68.025 19.173218
68.030 19.076469
68.035 19.08725
68.040 19.051928
68.045 19.209059
68.050 18.839579
68.055 18.851171
68.060 19.266884
68.065 19.542294
68.070 20.199738
68.075 20.848318
68.080 20.859825
68.085 21.030107
68.090 20.699602
68.095 20.529663
68.100 20.697853
68.105 19.933161
68.110 19.727465
68.115 19.39279
68.120 18.526979
68.125 18.501404
68.130 18.445118
68.135 18.427181
68.140 19.029461
68.145 19.160803
68.150 20.164835
68.155 21.108246
68.160 21.30508
68.165 21.812853
68.170 21.775883
68.175 21.028618
68.180 20.336779
68.185 19.862822
68.190 20.548176
68.195 20.484379
68.200 20.118744
68.205 20.359489
68.210 21.023499
68.215 21.459059
68.220 22.153976
68.225 22.045578
68.230 21.746756
68.235 22.214334
68.240 22.424522
68.245 22.761904
68.250 23.050297
68.255 23.063843
68.260 23.689377
68.265 24.50037
68.270 24.606667
68.275 24.269932
68.280 24.527622
68.285 24.468657
68.290 24.210518
68.295 23.950792
68.300 23.855692
68.305 24.442047
68.310 25.034267
68.315 25.357613
68.320 25.877686
68.325 26.572365
68.330 26.590061
68.335 27.192715
68.340 27.456823
68.345 27.646694
68.350 27.901043
68.355 27.971905
68.360 28.221542
68.365 28.954741
68.370 29.110451
68.375 28.908154
68.380 29.503338
68.385 29.715733
68.390 29.489424
68.395 29.758354
68.400 30.242252
68.405 30.1134
68.410 30.196138
68.415 30.427376
68.420 31.093023
68.425 32.28381
68.430 32.597088
68.435 32.351139
68.440 33.017258
68.445 33.764156
68.450 33.659111
68.455 34.140831
68.460 33.915161
68.465 33.880924
68.470 34.502575
68.475 34.906044
68.480 35.297096
68.485 36.231937
68.490 36.091133
68.495 36.172287
68.500 36.348457
68.505 35.490425
68.510 35.50687
68.515 35.342499
68.520 35.62281
68.525 35.726578
68.530 35.51244
68.535 35.80315
68.540 36.135303
68.545 35.196331
68.550 35.104794
68.555 35.005844
68.560 36.342102
68.565 36.568985
68.570 36.740086
68.575 37.615879
68.580 37.946789
68.585 38.265282
68.590 37.941975
68.595 36.994522
68.600 37.361507
68.605 37.154873
68.610 38.071564
68.615 38.305031
68.620 38.945068
68.625 39.243423
68.630 39.153236
68.635 39.168201
68.640 38.573589
68.645 37.655052
68.650 37.555511
68.655 36.972084
68.660 36.575443
68.665 36.742985
68.670 36.814194
68.675 36.727646
68.680 36.461555
68.685 36.571415
68.690 35.859863
68.695 35.906822
68.700 36.366867
68.705 36.904552
68.710 37.720901
68.715 38.208076
68.720 38.110897
68.725 37.989285
68.730 37.759747
68.735 37.292255
68.740 36.588451
68.745 36.052372
68.750 35.661766
68.755 36.011913
68.760 36.442657
68.765 36.107174
68.770 36.115074
68.775 36.496967
68.780 36.374958
68.785 36.174442
68.790 36.228226
68.795 35.66618
68.800 35.197739
68.805 33.864708
68.810 33.134144
68.815 32.347363
68.820 32.019169
68.825 31.291359
68.830 31.773279
68.835 31.848188
68.840 32.341015
68.845 32.356174
68.850 32.493935
68.855 32.74556
68.860 32.897449
68.865 32.411419
68.870 32.552998
68.875 33.117889
68.880 33.739983
68.885 33.80629
68.890 33.857529
68.895 33.923592
68.900 34.129543
68.905 34.333313
68.910 33.973763
68.915 33.211857
68.920 32.741337
68.925 31.607065
68.930 31.216413
68.935 30.989101
68.940 29.581047
68.945 28.906933
68.950 28.607946
68.955 28.704031
68.960 28.636457
68.965 28.650187
68.970 28.225262
68.975 28.384502
68.980 28.061359
68.985 27.756788
68.990 27.623423
68.995 27.650785
69.000 26.614634
69.005 26.005255
69.010 26.658649
69.015 26.777176
69.020 26.551523
69.025 26.8603
69.030 27.251835
69.035 27.42424
69.040 26.88903
69.045 25.86858
69.050 25.90929
69.055 25.716002
69.060 25.665642
69.065 24.959616
69.070 25.005295
69.075 25.567448
69.080 25.701277
69.085 26.285942
69.090 26.556759
69.095 26.430382
69.100 26.464016
69.105 26.449587
69.110 25.382833
69.115 24.981899
69.120 24.147882
69.125 23.968979
69.130 23.203159
69.135 23.00234
69.140 22.889641
69.145 22.549625
69.150 22.012899
69.155 21.469761
69.160 21.290535
69.165 21.415859
69.170 21.344099
69.175 20.89184
69.180 21.063574
69.185 21.546858
69.190 21.550007
69.195 21.29591
69.200 20.846954
69.205 21.057528
69.210 21.437773
69.215 21.786884
69.220 21.830299
69.225 21.794317
69.230 22.269985
69.235 22.990274
69.240 22.324989
69.245 21.913223
69.250 21.262718
69.255 20.730257
69.260 20.279247
69.265 19.694176
69.270 19.191338
69.275 19.878487
69.280 19.788136
69.285 19.721535
69.290 20.186176
69.295 20.444296
69.300 20.52877
69.305 20.259569
69.310 20.406292
69.315 20.146328
69.320 20.12009
69.325 19.491674
69.330 19.516052
69.335 19.788984
69.340 20.107826
69.345 19.818476
69.350 20.620407
69.355 20.815987
69.360 21.045181
69.365 20.805246
69.370 20.041836
69.375 19.98847
69.380 20.011534
69.385 19.655872
69.390 20.093512
69.395 19.881279
69.400 20.234985
69.405 20.274637
69.410 20.431223
69.415 20.134115
69.420 19.807364
69.425 19.506054
69.430 19.292406
69.435 19.358383
69.440 19.607422
69.445 19.830051
69.450 20.246502
69.455 20.132385
69.460 20.110844
69.465 20.318211
69.470 20.553144
69.475 20.579943
69.480 20.374887
69.485 19.866356
69.490 19.980997
69.495 20.067614
69.500 20.227922
69.505 20.238632
69.510 19.838484
69.515 19.680157
69.520 19.417135
69.525 19.324892
69.530 19.566536
69.535 20.127729
69.540 19.985868
69.545 19.779598
69.550 19.53553
69.555 20.04306
69.560 20.33671
69.565 19.543709
69.570 19.702839
69.575 19.513268
69.580 19.638281
69.585 19.157906
69.590 19.171513
69.595 19.089531
69.600 19.08882
69.605 18.000149
69.610 18.330486
69.615 18.456261
69.620 18.900038
69.625 18.528173
69.630 18.113916
69.635 19.058201
69.640 19.714535
69.645 19.788364
69.650 20.039877
69.655 19.321281
69.660 19.726542
69.665 19.803234
69.670 19.160149
69.675 18.769293
69.680 18.107595
69.685 17.881203
69.690 18.1758
69.695 17.622395
69.700 17.606352
69.705 17.511419
69.710 17.374468
69.715 18.038126
69.720 18.277367
69.725 18.270136
69.730 18.597887
69.735 18.694599
69.740 18.49395
69.745 18.739971
69.750 18.532499
69.755 18.456076
69.760 18.653811
69.765 18.625078
69.770 19.013248
69.775 19.098593
69.780 18.838852
69.785 19.25404
69.790 19.240286
69.795 19.465609
69.800 19.630713
69.805 19.589584
69.810 19.466408
69.815 19.163567
69.820 18.876669
69.825 18.89501
69.830 18.740675
69.835 19.078047
69.840 18.723034
69.845 19.000219
69.850 19.00778
69.855 18.792412
69.860 18.277346
69.865 17.557117
69.870 17.209593
69.875 18.040533
69.880 18.149309
69.885 18.402397
69.890 18.793749
69.895 19.511976
69.900 19.851339
69.905 19.220856
69.910 18.617155
69.915 18.311848
69.920 18.230762
69.925 17.640629
69.930 17.696295
69.935 17.321321
69.940 17.372818
69.945 17.250994
69.950 17.140942
69.955 17.091333
69.960 16.972651
69.965 16.611502
69.970 16.69002
69.975 16.945566
69.980 16.603771
69.985 16.484838
69.990 16.446138
69.995 16.696243
70.000 16.812683
70.005 16.926413
70.010 16.535952
70.015 17.051933
70.020 17.053844
70.025 17.650831
70.030 17.813911
70.035 18.309305
70.040 18.675814
70.045 18.863937
70.050 18.817535
70.055 18.939392
70.060 18.652561
70.065 18.676186
70.070 17.697618
70.075 16.927938
70.080 16.830326
70.085 16.649813
70.090 16.10568
70.095 15.662016
70.100 15.727573
70.105 16.301544
70.110 17.255026
70.115 17.523474
70.120 17.353277
70.125 17.837788
70.130 18.091846
70.135 17.936523
70.140 18.283142
70.145 17.588842
70.150 17.431723
70.155 17.485918
70.160 17.109745
70.165 16.73431
70.170 16.45542
70.175 16.148636
70.180 15.805138
70.185 16.190027
70.190 16.3706
70.195 16.676394
70.200 16.984396
70.205 17.210047
70.210 17.215117
70.215 17.627813
70.220 17.355326
70.225 16.916677
70.230 17.013859
70.235 17.208971
70.240 17.259762
70.245 17.2598
70.250 17.080606
70.255 17.757427
70.260 18.116112
70.265 18.189449
70.270 18.242918
70.275 18.19787
70.280 18.785191
70.285 18.902674
70.290 19.14996
70.295 19.4725
70.300 19.475374
70.305 20.076702
70.310 20.32864
70.315 20.56996
70.320 20.641453
70.325 19.580175
70.330 19.067247
70.335 18.452942
70.340 17.580921
70.345 17.171104
70.350 16.611626
70.355 16.629719
70.360 17.001038
70.365 17.377869
70.370 17.448769
70.375 17.020102
70.380 16.560717
70.385 16.825819
70.390 16.946835
70.395 17.37068
70.400 17.218039
70.405 17.014296
70.410 17.25453
70.415 17.64278
70.420 17.737236
70.425 17.523977
70.430 16.987402
70.435 17.251276
70.440 17.714293
70.445 17.698738
70.450 16.921268
70.455 16.631371
70.460 16.727465
70.465 17.056328
70.470 17.030182
70.475 16.401016
70.480 16.831526
70.485 16.974287
70.490 16.418161
70.495 16.227478
70.500 15.944798
70.505 15.66107
70.510 16.095345
70.515 15.143396
70.520 15.334738
70.525 15.641564
70.530 15.925439
70.535 15.746367
70.540 16.026567
70.545 16.463469
70.550 17.073755
70.555 16.907652
70.560 17.421326
70.565 17.49769
70.570 17.618811
70.575 17.599857
70.580 17.85836
70.585 18.26335
70.590 18.642862
70.595 18.213703
70.600 17.981625
70.605 18.09355
70.610 18.142458
70.615 17.953005
70.620 17.768188
70.625 17.369551
70.630 17.702412
70.635 17.857325
70.640 18.199203
70.645 18.325373
70.650 18.392771
70.655 18.30435
70.660 18.465321
70.665 18.512062
70.670 18.513508
70.675 18.039988
70.680 17.879053
70.685 17.560259
70.690 18.029337
70.695 17.945183
70.700 17.753082
70.705 17.660643
70.710 17.393562
70.715 17.319155
70.720 17.457237
70.725 17.06319
70.730 17.089727
70.735 17.245262
70.740 17.154943
70.745 17.25989
70.750 16.729595
70.755 17.0082
70.760 17.006948
70.765 17.050611
70.770 17.417961
70.775 17.703835
70.780 17.860197
70.785 18.065769
70.790 17.474829
70.795 17.150278
70.800 16.781269
70.805 16.486439
70.810 16.198624
70.815 16.112883
70.820 16.632317
70.825 16.915617
70.830 17.526836
70.835 17.357347
70.840 17.194967
70.845 17.371769
70.850 17.60342
70.855 17.353281
70.860 17.272394
70.865 17.310541
70.870 18.226988
70.875 18.670544
70.880 19.230635
70.885 18.89485
70.890 18.924755
70.895 18.983377
70.900 18.355297
70.905 18.259247
70.910 18.159056
70.915 18.097794
70.920 18.70731
70.925 18.776489
70.930 18.57222
70.935 18.494146
70.940 17.981058
70.945 17.656467
70.950 17.608574
70.955 17.517649
70.960 17.600456
70.965 17.81979
70.970 17.829716
70.975 18.065294
70.980 18.139587
70.985 17.733044
70.990 17.985722
70.995 18.020943
71.000 17.991295
71.005 18.248623
71.010 18.332726
71.015 18.115501
71.020 18.170519
71.025 17.717478
71.030 17.934576
71.035 17.630495
71.040 17.337292
71.045 17.484602
71.050 17.45706
71.055 17.27523
71.060 17.166246
71.065 16.735714
71.070 16.419317
71.075 16.385063
71.080 16.569836
71.085 16.904238
71.090 17.166956
71.095 17.600039
71.100 18.478254
71.105 18.988541
71.110 18.892496
71.115 18.7936
71.120 18.635736
71.125 18.049549
71.130 18.266899
71.135 17.964672
71.140 17.915352
71.145 17.84996
71.150 18.037537
71.155 18.011534
71.160 17.644613
71.165 17.544384
71.170 17.620995
71.175 18.079288
71.180 17.441519
71.185 17.074991
71.190 16.989372
71.195 17.251781
71.200 16.937399
71.205 16.507456
71.210 16.351297
71.215 17.377665
71.220 17.404364
71.225 17.677052
71.230 17.838751
71.235 17.825451
71.240 18.093618
71.245 17.836086
71.250 17.325491
71.255 17.903467
71.260 17.734175
71.265 17.670115
71.270 18.037621
71.275 17.960531
71.280 18.31727
71.285 18.139397
71.290 17.683216
71.295 18.073313
71.300 18.072008
71.305 17.772339
71.310 17.607491
71.315 17.159504
71.320 17.582035
71.325 17.741043
71.330 16.94652
71.335 17.096918
71.340 17.479534
71.345 17.777397
71.350 18.120186
71.355 17.906092
71.360 17.799007
71.365 18.636415
71.370 18.501719
71.375 18.338896
71.380 18.075335
71.385 18.027384
71.390 17.737444
71.395 17.753235
71.400 17.312004
71.405 17.481493
71.410 18.040928
71.415 17.810379
71.420 17.79084
71.425 17.844923
71.430 17.756519
71.435 17.197536
71.440 16.791027
71.445 16.120903
71.450 16.316093
71.455 16.48493
71.460 16.682583
71.465 16.980984
71.470 17.516811
71.475 17.895218
71.480 18.325954
71.485 18.685461
71.490 19.086554
71.495 19.112076
71.500 18.73464
71.505 18.343857
71.510 18.738602
71.515 18.834843
71.520 18.943752
71.525 18.524837
71.530 18.240398
71.535 18.528938
71.540 18.693192
71.545 18.148106
71.550 17.803518
71.555 17.302591
71.560 17.431385
71.565 17.267775
71.570 17.302124
71.575 16.53076
71.580 16.750195
71.585 16.87608
71.590 17.2876
71.595 18.112642
71.600 18.474554
71.605 18.951168
71.610 19.426163
71.615 19.60836
71.620 19.108332
71.625 18.642517
71.630 18.242395
71.635 18.432087
71.640 18.094267
71.645 17.581757
71.650 17.621777
71.655 17.764528
71.660 17.467218
71.665 17.483555
71.670 17.119825
71.675 17.371832
71.680 17.439129
71.685 17.309837
71.690 17.458633
71.695 17.662453
71.700 17.304253
71.705 16.984856
71.710 17.366323
71.715 17.964138
71.720 17.815565
71.725 17.926544
71.730 17.95208
71.735 18.423784
71.740 18.358393
71.745 18.30295
71.750 18.030382
71.755 18.498896
71.760 18.615952
71.765 18.223433
71.770 18.056129
71.775 18.240229
71.780 17.926783
71.785 18.027548
71.790 17.838718
71.795 17.779598
71.800 18.120886
71.805 17.91876
71.810 17.301752
71.815 17.230085
71.820 16.786884
71.825 16.709301
71.830 16.865728
71.835 16.599173
71.840 16.633503
71.845 16.93821
71.850 17.085148
71.855 17.540297
71.860 18.029543
71.865 17.47887
71.870 17.568056
71.875 18.525299
71.880 17.876276
71.885 17.587929
71.890 16.44743
71.895 16.024376
71.900 16.427099
71.905 15.911085
71.910 15.936875
71.915 16.416727
71.920 16.387814
71.925 17.268541
71.930 17.482271
71.935 17.842752
71.940 17.858393
71.945 17.779158
71.950 18.348343
71.955 18.63736
71.960 18.230545
71.965 17.899361
71.970 17.433422
71.975 17.492256
71.980 17.619802
71.985 17.196951
71.990 16.6178
71.995 16.751566
72.000 16.996206
72.005 17.378447
72.010 17.486269
72.015 17.220999
72.020 17.399109
72.025 17.754646
72.030 17.528849
72.035 17.390785
72.040 16.897623
72.045 16.970627
72.050 16.904503
72.055 16.839207
72.060 16.568884
72.065 16.478327
72.070 16.498564
72.075 16.98024
72.080 16.527653
72.085 16.600845
72.090 16.904654
72.095 17.115911
72.100 17.736725
72.105 18.009542
72.110 18.051281
72.115 18.748976
72.120 19.066019
72.125 19.807104
72.130 19.851425
72.135 19.547949
72.140 19.795099
72.145 19.410198
72.150 18.594601
72.155 18.075171
72.160 17.075912
72.165 17.071478
72.170 16.925079
72.175 16.475313
72.180 16.990908
72.185 17.28467
72.190 17.755245
72.195 18.033228
72.200 18.578846
72.205 18.864372
72.210 18.186811
72.215 17.163197
72.220 17.07925
72.225 16.552841
72.230 16.385244
72.235 16.14666
72.240 16.892242
72.245 17.661079
72.250 18.3743
72.255 18.431221
72.260 18.655537
72.265 18.824661
72.270 18.691126
72.275 18.618914
72.280 18.193516
72.285 17.375027
72.290 17.102732
72.295 17.504274
72.300 17.149799
72.305 17.073853
72.310 17.393475
72.315 18.310316
72.320 19.075695
72.325 18.590313
72.330 17.89411
72.335 18.161293
72.340 17.846546
72.345 17.424461
72.350 16.885065
72.355 17.068344
72.360 17.554007
72.365 17.65057
72.370 17.038496
72.375 16.919401
72.380 16.837494
72.385 17.002384
72.390 17.308289
72.395 17.157452
72.400 17.040924
72.405 17.485294
72.410 17.808929
72.415 18.076733
72.420 18.054955
72.425 17.51815
72.430 17.468317
72.435 17.399956
72.440 17.357044
72.445 17.338926
72.450 16.812662
72.455 16.966782
72.460 17.544134
72.465 17.876719
72.470 18.165854
72.475 18.136688
72.480 18.326803
72.485 18.328226
72.490 17.870234
72.495 17.934315
72.500 17.764509
72.505 17.103504
72.510 16.736202
72.515 16.960184
72.520 18.048986
72.525 17.547594
72.530 17.919441
72.535 18.578186
72.540 18.691545
72.545 18.628817
72.550 18.52479
72.555 18.286982
72.560 18.700317
72.565 18.008722
72.570 18.156752
72.575 18.060818
72.580 18.36322
72.585 18.432034
72.590 17.936159
72.595 17.260435
72.600 17.093384
72.605 17.233927
72.610 17.318216
72.615 17.08754
72.620 16.480164
72.625 17.235516
72.630 17.387014
72.635 17.539642
72.640 16.901848
72.645 16.876478
72.650 17.072403
72.655 17.438093
72.660 17.121656
72.665 16.670778
72.670 16.553408
72.675 16.779676
72.680 16.675674
72.685 16.267488
72.690 15.651627
72.695 16.190969
72.700 16.374437
72.705 16.025045
72.710 16.157101
72.715 16.568123
72.720 17.301323
72.725 17.873901
72.730 17.885963
72.735 18.719908
72.740 19.185253
72.745 18.959919
72.750 18.529776
72.755 18.082859
72.760 18.101948
72.765 17.754772
72.770 17.224934
72.775 16.975277
72.780 16.818928
72.785 16.519543
72.790 15.588375
72.795 15.524102
72.800 15.34303
72.805 14.805213
72.810 14.752409
72.815 15.011934
72.820 14.828509
72.825 15.401456
72.830 14.857182
72.835 15.370931
72.840 16.054945
72.845 16.22628
72.850 16.258013
72.855 16.526642
72.860 16.695101
72.865 16.116993
72.870 16.598791
72.875 16.433266
72.880 16.058586
72.885 16.326458
72.890 15.992643
72.895 16.127344
72.900 16.619352
72.905 16.858295
72.910 16.626173
72.915 16.783352
72.920 16.759874
72.925 16.807953
72.930 16.907768
72.935 16.466936
72.940 16.193235
72.945 16.292505
72.950 16.582661
72.955 16.541616
72.960 16.965208
72.965 16.858229
72.970 16.843435
72.975 16.952503
72.980 17.21656
72.985 16.911993
72.990 17.223997
72.995 17.37163
73.000 17.264578
