!@!!GADDS PLOTSO FILE: Chi integration type
!@!!Title/SampleName: map-f8
!@!!Comment: ?
!@!!User: Bruker Instrument Administrator
!@!!Site: University of Illinois Chicago
!@!!Frame: map-f8_01_000.gfrm
!@!!Wavelengths    1.54184   1.54056   1.54439
!@!!Frame angles: 2Theta: 63.000 Omega: 50.000 Phi: 0.000 Chi: 90.000
!@!!Integration range: 2Theta: 53.000 to 73.000  Gamma: -105.000 to -75.000
!@!!Integration method: bin normalized
!@!N
!@!SS
!@!M
!@!L 0.0 0.0 0.0 0.0
!@!XDegrees
!@!YCounts
53.000 5.914682
53.005 5.859706
53.010 5.431689
53.015 5.373358
53.020 4.966524
53.025 4.946809
53.030 5.234811
53.035 5.541819
53.040 5.927696
53.045 5.979752
53.050 6.270921
53.055 6.4951
53.060 6.515789
53.065 6.142582
53.070 6.099129
53.075 6.046558
53.080 5.644079
53.085 5.510987
53.090 5.547654
53.095 5.713614
53.100 6.086205
53.105 6.373399
53.110 6.603034
53.115 6.422919
53.120 6.468047
53.125 6.21896
53.130 6.24618
53.135 5.874567
53.140 5.749833
53.145 5.832438
53.150 6.236378
53.155 6.234779
53.160 6.216142
53.165 6.19735
53.170 6.125365
53.175 6.24225
53.180 6.174633
53.185 6.335988
53.190 6.600743
53.195 6.701599
53.200 6.91786
53.205 6.986138
53.210 6.838688
53.215 6.959249
53.220 6.527247
53.225 6.521778
53.230 6.445283
53.235 6.394221
53.240 6.44118
53.245 6.568069
53.250 6.702561
53.255 6.728761
53.260 6.755857
53.265 6.873966
53.270 6.622274
53.275 6.263655
53.280 6.336518
53.285 6.440358
53.290 6.526063
53.295 6.229049
53.300 6.105443
53.305 6.170388
53.310 6.622319
53.315 6.086595
53.320 5.509706
53.325 5.185378
53.330 5.349416
53.335 5.501568
53.340 5.837779
53.345 6.131394
53.350 6.381726
53.355 6.651146
53.360 6.912997
53.365 7.294751
53.370 7.140247
53.375 6.527199
53.380 5.954488
53.385 5.822897
53.390 6.15715
53.395 6.178099
53.400 6.265178
53.405 6.356429
53.410 6.339311
53.415 6.616938
53.420 6.730576
53.425 6.815976
53.430 6.546275
53.435 6.058049
53.440 6.102077
53.445 6.30199
53.450 6.259495
53.455 6.322791
53.460 6.292163
53.465 6.757765
53.470 6.827757
53.475 6.981192
53.480 6.963812
53.485 7.320843
53.490 7.221495
53.495 7.254089
53.500 6.999332
53.505 7.443325
53.510 7.130227
53.515 7.12987
53.520 6.916353
53.525 7.155428
53.530 7.403315
53.535 7.400677
53.540 7.134397
53.545 7.337319
53.550 7.382789
53.555 7.182438
53.560 6.764865
53.565 6.241718
53.570 6.199465
53.575 6.239966
53.580 5.922533
53.585 5.620562
53.590 5.697377
53.595 5.95235
53.600 6.657249
53.605 6.990799
53.610 7.230352
53.615 7.845675
53.620 8.017982
53.625 8.02535
53.630 7.866885
53.635 7.222407
53.640 6.977765
53.645 6.717294
53.650 6.751333
53.655 6.657206
53.660 6.750244
53.665 6.84824
53.670 7.206361
53.675 7.349689
53.680 7.200845
53.685 7.069243
53.690 7.006011
53.695 6.75345
53.700 7.124143
53.705 7.019742
53.710 6.743941
53.715 6.659281
53.720 6.5523
53.725 6.374629
53.730 6.154396
53.735 6.15159
53.740 6.220096
53.745 6.460155
53.750 6.582806
53.755 6.952893
53.760 7.519234
53.765 7.512645
53.770 7.207343
53.775 7.37113
53.780 7.541983
53.785 7.598631
53.790 7.343363
53.795 6.784947
53.800 6.437097
53.805 6.528933
53.810 6.431251
53.815 6.059884
53.820 6.304535
53.825 6.426643
53.830 6.876274
53.835 6.94692
53.840 6.876769
53.845 6.960842
53.850 7.193532
53.855 6.76068
53.860 6.751012
53.865 6.964095
53.870 7.206333
53.875 7.352775
53.880 7.47751
53.885 7.355928
53.890 7.386832
53.895 7.440814
53.900 7.11407
53.905 6.671324
53.910 6.080301
53.915 5.619794
53.920 5.606977
53.925 5.627506
53.930 5.496235
53.935 5.739965
53.940 6.202685
53.945 6.54833
53.950 6.773723
53.955 6.753515
53.960 7.297953
53.965 7.308867
53.970 7.217692
53.975 7.142764
53.980 6.976133
53.985 7.552636
53.990 7.563515
53.995 7.161243
54.000 7.084536
54.005 7.131134
54.010 7.149665
54.015 7.15973
54.020 7.030241
54.025 7.237107
54.030 7.168672
54.035 7.159488
54.040 7.168128
54.045 7.203535
54.050 6.978581
54.055 6.689463
54.060 6.624482
54.065 6.532714
54.070 6.385667
54.075 6.402878
54.080 6.408048
54.085 6.45181
54.090 6.377687
54.095 6.616142
54.100 7.122508
54.105 7.167043
54.110 7.256989
54.115 7.061218
54.120 6.946928
54.125 6.972512
54.130 7.0165
54.135 7.208452
54.140 7.176974
54.145 7.255835
54.150 7.070927
54.155 7.218378
54.160 7.312897
54.165 7.073804
54.170 7.346094
54.175 7.575747
54.180 7.751884
54.185 8.059315
54.190 8.058399
54.195 8.236592
54.200 8.888185
54.205 8.478091
54.210 8.260605
54.215 8.666936
54.220 8.762164
54.225 8.508785
54.230 8.352695
54.235 7.875416
54.240 7.913473
54.245 7.494514
54.250 6.791018
54.255 6.660731
54.260 6.768482
54.265 6.554845
54.270 7.436417
54.275 7.488341
54.280 7.368217
54.285 7.374989
54.290 7.483798
54.295 7.692739
54.300 7.733449
54.305 7.133375
54.310 7.394402
54.315 7.810398
54.320 7.884237
54.325 7.791894
54.330 7.614976
54.335 7.345004
54.340 7.22413
54.345 7.043615
54.350 7.014073
54.355 6.983322
54.360 7.012002
54.365 7.227587
54.370 7.180063
54.375 7.418668
54.380 7.491507
54.385 7.596236
54.390 7.802722
54.395 7.504839
54.400 7.265031
54.405 7.369631
54.410 7.590103
54.415 7.777966
54.420 7.743332
54.425 7.50754
54.430 7.742917
54.435 7.458522
54.440 7.460778
54.445 7.268155
54.450 7.4006
54.455 7.574901
54.460 7.731128
54.465 7.881344
54.470 8.042785
54.475 7.938652
54.480 8.157913
54.485 7.984256
54.490 7.767173
54.495 7.683335
54.500 7.666244
54.505 7.620106
54.510 7.773682
54.515 7.502524
54.520 7.260927
54.525 7.521601
54.530 7.363385
54.535 7.21733
54.540 7.345714
54.545 7.232839
54.550 7.663849
54.555 8.06137
54.560 8.549928
54.565 8.994226
54.570 9.35756
54.575 9.122459
54.580 8.91795
54.585 8.875344
54.590 8.633725
54.595 8.158766
54.600 7.945946
54.605 7.836994
54.610 8.133241
54.615 8.096838
54.620 8.019925
54.625 8.461975
54.630 8.181174
54.635 7.786024
54.640 7.805609
54.645 7.59104
54.650 7.859579
54.655 7.621353
54.660 7.703483
54.665 7.9253
54.670 8.323881
54.675 8.237587
54.680 8.500946
54.685 8.37978
54.690 8.549715
54.695 8.598051
54.700 8.744817
54.705 9.003233
54.710 8.937102
54.715 8.872613
54.720 8.847238
54.725 8.566261
54.730 8.419325
54.735 7.939611
54.740 7.563881
54.745 7.639021
54.750 7.436201
54.755 7.265907
54.760 6.861568
54.765 7.12774
54.770 7.603058
54.775 7.755614
54.780 7.659962
54.785 7.857818
54.790 8.040825
54.795 8.325039
54.800 8.003164
54.805 7.744738
54.810 7.555555
54.815 7.456933
54.820 7.556726
54.825 7.856663
54.830 7.817405
54.835 8.22816
54.840 8.260612
54.845 8.335187
54.850 8.355317
54.855 7.967043
54.860 7.401556
54.865 7.048706
54.870 6.635613
54.875 6.698767
54.880 6.755674
54.885 6.781477
54.890 7.297082
54.895 7.590821
54.900 7.742826
54.905 7.84753
54.910 8.193445
54.915 8.469235
54.920 8.271367
54.925 8.017843
54.930 8.009052
54.935 8.358095
54.940 8.263549
54.945 7.844249
54.950 7.947936
54.955 7.989405
54.960 7.747863
54.965 7.845129
54.970 7.6388
54.975 7.513093
54.980 7.600925
54.985 7.852911
54.990 8.624542
54.995 8.900389
55.000 8.868599
55.005 8.617213
55.010 8.739332
55.015 8.498173
55.020 8.035564
55.025 7.202972
55.030 6.829526
55.035 6.515368
55.040 6.455151
55.045 6.687952
55.050 7.173183
55.055 7.379991
55.060 7.656076
55.065 7.865947
55.070 8.18421
55.075 8.254645
55.080 8.345233
55.085 8.036345
55.090 8.421777
55.095 8.676218
55.100 8.594521
55.105 8.781564
55.110 8.960977
55.115 8.890859
55.120 8.694847
55.125 8.914208
55.130 9.093331
55.135 9.391703
55.140 9.124389
55.145 8.859662
55.150 8.634935
55.155 9.235439
55.160 8.837152
55.165 8.236242
55.170 8.05884
55.175 8.128266
55.180 8.222639
55.185 8.612954
55.190 8.151443
55.195 8.394401
55.200 8.618935
55.205 8.76438
55.210 8.729143
55.215 8.672335
55.220 8.203965
55.225 7.833532
55.230 7.515772
55.235 7.645729
55.240 7.67071
55.245 7.886831
55.250 7.996922
55.255 8.299554
55.260 8.589128
55.265 8.972959
55.270 9.292708
55.275 9.853662
55.280 9.808565
55.285 9.682947
55.290 9.544976
55.295 9.522062
55.300 9.256984
55.305 9.107387
55.310 8.900373
55.315 9.142915
55.320 8.997525
55.325 9.127597
55.330 9.422194
55.335 9.783895
55.340 9.615229
55.345 9.397985
55.350 9.42535
55.355 9.72008
55.360 9.828915
55.365 9.614668
55.370 9.267834
55.375 9.017633
55.380 9.045242
55.385 8.843698
55.390 8.529819
55.395 8.260826
55.400 8.074538
55.405 8.307299
55.410 9.451482
55.415 9.531919
55.420 9.529815
55.425 9.146789
55.430 8.843485
55.435 9.111398
55.440 8.630259
55.445 8.158202
55.450 8.564998
55.455 8.893594
55.460 10.230282
55.465 10.64925
55.470 10.796929
55.475 10.982189
55.480 10.341575
55.485 9.771279
55.490 9.433281
55.495 8.745772
55.500 8.607063
55.505 8.517269
55.510 8.373731
55.515 8.077927
55.520 8.572393
55.525 9.08838
55.530 9.066242
55.535 9.042264
55.540 8.810798
55.545 8.576281
55.550 9.235249
55.555 8.788331
55.560 8.63522
55.565 8.559867
55.570 8.665439
55.575 9.246475
55.580 9.600035
55.585 9.583553
55.590 9.645636
55.595 9.635154
55.600 9.728754
55.605 9.904583
55.610 9.835701
55.615 9.91345
55.620 10.130548
55.625 9.942503
55.630 9.821323
55.635 9.526331
55.640 9.059737
55.645 9.000703
55.650 8.913546
55.655 8.900796
55.660 9.10292
55.665 9.082532
55.670 9.461012
55.675 9.439256
55.680 9.263443
55.685 9.209332
55.690 9.055987
55.695 8.943306
55.700 9.104281
55.705 9.152604
55.710 9.296968
55.715 9.571116
55.720 9.68256
55.725 9.992764
55.730 9.988029
55.735 9.811458
55.740 9.34782
55.745 9.165624
55.750 8.72279
55.755 8.338604
55.760 8.027935
55.765 8.084409
55.770 8.545008
55.775 9.071754
55.780 8.78723
55.785 9.017864
55.790 9.219275
55.795 9.415051
55.800 9.769704
55.805 9.93951
55.810 9.88258
55.815 10.552741
55.820 10.75507
55.825 10.846573
55.830 11.117548
55.835 10.909243
55.840 11.065779
55.845 11.437504
55.850 11.078455
55.855 10.967836
55.860 10.755691
55.865 10.687949
55.870 10.408472
55.875 9.433621
55.880 9.343105
55.885 9.6738
55.890 9.76966
55.895 9.906254
55.900 9.43439
55.905 9.56033
55.910 9.880453
55.915 10.034328
55.920 10.17116
55.925 9.845509
55.930 9.426976
55.935 9.735606
55.940 10.206626
55.945 10.360245
55.950 10.330249
55.955 10.121248
55.960 10.167767
55.965 10.055996
55.970 9.716598
55.975 9.733318
55.980 9.177484
55.985 8.910562
55.990 9.477676
55.995 10.046837
56.000 10.402051
56.005 10.806789
56.010 10.385456
56.015 10.358527
56.020 9.99823
56.025 9.672537
56.030 9.508891
56.035 9.294317
56.040 8.798129
56.045 9.021526
56.050 9.607535
56.055 9.647399
56.060 9.17227
56.065 9.089766
56.070 9.138425
56.075 9.217225
56.080 9.245661
56.085 9.317653
56.090 9.994627
56.095 10.344735
56.100 10.417571
56.105 10.488336
56.110 10.374527
56.115 10.059108
56.120 9.446452
56.125 8.836587
56.130 8.785663
56.135 9.248369
56.140 9.440505
56.145 9.804054
56.150 9.790669
56.155 9.847859
56.160 9.611745
56.165 9.086158
56.170 8.549017
56.175 8.601532
56.180 8.439014
56.185 8.497509
56.190 8.707674
56.195 9.349017
56.200 10.068821
56.205 10.424431
56.210 10.461233
56.215 10.523728
56.220 11.045783
56.225 11.29033
56.230 10.813602
56.235 10.393584
56.240 10.29138
56.245 10.312225
56.250 10.349645
56.255 9.889513
56.260 9.802789
56.265 9.694421
56.270 9.541759
56.275 9.706573
56.280 9.372013
56.285 9.088632
56.290 9.208008
56.295 9.099854
56.300 9.57253
56.305 9.665237
56.310 9.727045
56.315 10.320898
56.320 10.498464
56.325 10.328516
56.330 10.369358
56.335 10.372814
56.340 10.223279
56.345 10.305373
56.350 10.040033
56.355 9.898572
56.360 9.917766
56.365 10.049582
56.370 9.950554
56.375 10.170682
56.380 10.074611
56.385 10.127803
56.390 10.175364
56.395 10.394941
56.400 10.543785
56.405 10.413244
56.410 9.968746
56.415 9.5749
56.420 9.704538
56.425 9.771581
56.430 9.587614
56.435 9.348508
56.440 9.413333
56.445 9.81846
56.450 9.782884
56.455 9.816317
56.460 10.082461
56.465 9.716907
56.470 9.427227
56.475 9.129556
56.480 8.602698
56.485 8.65078
56.490 9.012918
56.495 9.081715
56.500 9.490481
56.505 9.913149
56.510 10.200913
56.515 10.636857
56.520 10.701635
56.525 10.293542
56.530 10.462812
56.535 10.500118
56.540 10.604976
56.545 10.733098
56.550 10.814305
56.555 10.522447
56.560 10.355398
56.565 10.605671
56.570 10.610379
56.575 10.677884
56.580 10.766893
56.585 10.585474
56.590 10.853943
56.595 10.578059
56.600 10.2376
56.605 9.613577
56.610 9.568978
56.615 8.9469
56.620 8.872067
56.625 8.765373
56.630 8.657542
56.635 8.597256
56.640 9.076245
56.645 9.162985
56.650 9.721858
56.655 9.690321
56.660 9.775464
56.665 9.925961
56.670 10.02345
56.675 9.984367
56.680 10.188368
56.685 10.089626
56.690 9.902977
56.695 10.290017
56.700 10.729286
56.705 10.606386
56.710 10.725862
56.715 10.838709
56.720 10.879123
56.725 10.997782
56.730 10.420503
56.735 10.152253
56.740 10.17498
56.745 10.31472
56.750 9.892323
56.755 9.915226
56.760 10.038523
56.765 10.431787
56.770 10.838344
56.775 10.64349
56.780 10.662374
56.785 11.090016
56.790 11.020846
56.795 11.322114
56.800 11.257488
56.805 11.589439
56.810 12.109748
56.815 12.085227
56.820 11.786178
56.825 11.774781
56.830 11.582302
56.835 11.497727
56.840 10.831147
56.845 10.244471
56.850 10.00243
56.855 10.001249
56.860 10.149577
56.865 10.317471
56.870 10.239126
56.875 10.422687
56.880 11.096515
56.885 11.068917
56.890 10.728706
56.895 10.639032
56.900 10.146217
56.905 10.223394
56.910 10.051865
56.915 10.085184
56.920 10.400348
56.925 10.432523
56.930 10.731134
56.935 11.299259
56.940 11.162762
56.945 10.629208
56.950 10.342397
56.955 10.63988
56.960 11.095759
56.965 10.637726
56.970 10.067575
56.975 10.186301
56.980 10.60051
56.985 10.875156
56.990 10.809893
56.995 10.773842
57.000 11.039519
57.005 11.160072
57.010 10.9159
57.015 10.580157
57.020 9.989969
57.025 9.694959
57.030 9.669002
57.035 9.549047
57.040 9.906747
57.045 10.162141
57.050 10.333139
57.055 10.652584
57.060 10.861341
57.065 10.675097
57.070 11.017591
57.075 10.938398
57.080 11.384874
57.085 11.642565
57.090 11.836006
57.095 11.948435
57.100 11.973378
57.105 11.777386
57.110 11.548524
57.115 11.170349
57.120 10.898601
57.125 10.541933
57.130 10.589857
57.135 10.647433
57.140 10.582553
57.145 10.628329
57.150 10.283858
57.155 10.175081
57.160 9.930852
57.165 9.690014
57.170 10.083827
57.175 10.50049
57.180 10.78875
57.185 10.6166
57.190 10.719152
57.195 11.128296
57.200 11.248374
57.205 11.355002
57.210 11.326488
57.215 10.947496
57.220 10.928828
57.225 10.997183
57.230 10.927839
57.235 10.782706
57.240 10.410653
57.245 10.461981
57.250 11.033953
57.255 11.39376
57.260 11.572906
57.265 11.677083
57.270 11.956415
57.275 12.465682
57.280 12.568139
57.285 12.837283
57.290 13.332799
57.295 13.329326
57.300 13.855045
57.305 13.386011
57.310 12.68337
57.315 12.427415
57.320 12.03208
57.325 11.620398
57.330 11.533714
57.335 11.159358
57.340 11.435888
57.345 12.039887
57.350 12.178244
57.355 12.238396
57.360 11.898295
57.365 12.18051
57.370 12.194883
57.375 11.954084
57.380 11.474831
57.385 11.644413
57.390 11.686514
57.395 11.789383
57.400 11.290957
57.405 11.215885
57.410 11.052485
57.415 10.940876
57.420 10.538084
57.425 11.193192
57.430 11.408743
57.435 11.24345
57.440 11.098572
57.445 11.451757
57.450 11.57934
57.455 11.70295
57.460 11.470045
57.465 11.882874
57.470 12.025755
57.475 12.286961
57.480 12.04106
57.485 12.232412
57.490 12.199609
57.495 11.629654
57.500 11.376493
57.505 11.420492
57.510 11.163657
57.515 10.936373
57.520 10.576357
57.525 10.54819
57.530 10.652864
57.535 10.920991
57.540 10.909791
57.545 10.757181
57.550 10.879211
57.555 10.744411
57.560 10.220893
57.565 10.25377
57.570 10.148254
57.575 10.426822
57.580 10.651796
57.585 10.586515
57.590 11.166434
57.595 11.755215
57.600 11.63794
57.605 11.715182
57.610 11.664344
57.615 11.96402
57.620 12.343299
57.625 12.072412
57.630 12.047571
57.635 11.938446
57.640 11.623487
57.645 11.609015
57.650 11.242082
57.655 11.139653
57.660 11.710995
57.665 11.969956
57.670 12.105428
57.675 12.202397
57.680 12.34271
57.685 12.616693
57.690 12.754045
57.695 12.355103
57.700 12.251369
57.705 11.963686
57.710 11.778443
57.715 11.902694
57.720 11.819776
57.725 11.231708
57.730 10.531906
57.735 9.880216
57.740 10.086122
57.745 10.364108
57.750 10.317605
57.755 10.191216
57.760 10.744104
57.765 11.755872
57.770 12.514556
57.775 12.256036
57.780 12.120146
57.785 11.874708
57.790 12.2088
57.795 12.192242
57.800 11.862104
57.805 11.782057
57.810 12.287719
57.815 12.412643
57.820 12.950984
57.825 13.019835
57.830 13.072343
57.835 12.69638
57.840 12.25211
57.845 11.565772
57.850 11.360397
57.855 10.998898
57.860 10.86648
57.865 10.947275
57.870 11.250332
57.875 12.038967
57.880 12.544512
57.885 12.931998
57.890 12.936262
57.895 12.81427
57.900 13.033679
57.905 13.043777
57.910 12.818445
57.915 13.024946
57.920 13.013673
57.925 12.934903
57.930 13.274682
57.935 13.387424
57.940 13.487116
57.945 13.252895
57.950 12.596657
57.955 12.223486
57.960 12.076339
57.965 11.699469
57.970 11.185655
57.975 11.488404
57.980 11.942564
57.985 12.165684
57.990 12.212573
57.995 12.422002
58.000 12.732774
58.005 13.453279
58.010 13.215084
58.015 13.0973
58.020 13.18715
58.025 13.719065
58.030 13.947156
58.035 14.044526
58.040 13.822248
58.045 13.361525
58.050 12.992521
58.055 12.733066
58.060 12.479363
58.065 12.397054
58.070 12.591009
58.075 12.360638
58.080 12.692457
58.085 13.159016
58.090 13.55043
58.095 13.830047
58.100 14.043991
58.105 14.487252
58.110 15.383319
58.115 15.225244
58.120 14.79028
58.125 14.317532
58.130 14.266587
58.135 13.901781
58.140 13.605986
58.145 13.407272
58.150 13.661422
58.155 14.131874
58.160 14.544867
58.165 14.485332
58.170 14.404952
58.175 13.685904
58.180 13.928332
58.185 13.869725
58.190 13.870131
58.195 13.700027
58.200 13.73508
58.205 13.786644
58.210 14.153818
58.215 14.070602
58.220 13.960231
58.225 13.327264
58.230 13.232333
58.235 13.244951
58.240 13.700408
58.245 13.480282
58.250 13.18227
58.255 13.440721
58.260 13.747612
58.265 13.877784
58.270 13.872885
58.275 13.545731
58.280 13.543164
58.285 13.391699
58.290 13.249449
58.295 12.878783
58.300 12.473504
58.305 12.405857
58.310 12.658532
58.315 12.961078
58.320 13.272795
58.325 13.524602
58.330 14.131677
58.335 14.070359
58.340 14.13661
58.345 14.446913
58.350 14.078037
58.355 14.080128
58.360 14.663028
58.365 14.37428
58.370 14.595972
58.375 14.658607
58.380 14.770157
58.385 15.427396
58.390 15.891749
58.395 16.353182
58.400 17.029259
58.405 17.121965
58.410 17.037228
58.415 16.256882
58.420 16.17255
58.425 16.68984
58.430 16.947866
58.435 17.049772
58.440 16.86396
58.445 17.295486
58.450 18.116089
58.455 18.596952
58.460 18.44721
58.465 18.706457
58.470 19.475531
58.475 19.648853
58.480 19.692026
58.485 20.051422
58.490 20.287355
58.495 19.859594
58.500 19.662487
58.505 19.321552
58.510 20.168533
58.515 21.034534
58.520 21.474356
58.525 21.557077
58.530 22.398195
58.535 23.095118
58.540 23.456572
58.545 22.751738
58.550 22.731701
58.555 23.476974
58.560 23.98921
58.565 24.211981
58.570 24.97333
58.575 25.756819
58.580 25.993296
58.585 26.357603
58.590 26.20788
58.595 26.850258
58.600 27.002628
58.605 25.729933
58.610 25.510448
58.615 25.478815
58.620 24.977552
58.625 25.73279
58.630 25.859957
58.635 25.427778
58.640 26.252384
58.645 27.099825
58.650 27.608912
58.655 27.944296
58.660 27.747301
58.665 28.416824
58.670 29.151558
58.675 29.533302
58.680 29.54368
58.685 30.219276
58.690 30.165108
58.695 29.893337
58.700 29.025261
58.705 29.033997
58.710 29.394823
58.715 29.411324
58.720 29.091579
58.725 28.412859
58.730 28.638048
58.735 29.348709
58.740 29.344152
58.745 29.068367
58.750 29.487101
58.755 29.593027
58.760 29.707354
58.765 29.929512
58.770 29.463345
58.775 29.825186
58.780 29.181524
58.785 28.175438
58.790 27.938448
58.795 27.510899
58.800 26.760279
58.805 26.95623
58.810 26.74012
58.815 26.742199
58.820 26.826931
58.825 26.660023
58.830 26.287077
58.835 26.086409
58.840 25.082403
58.845 24.326807
58.850 24.098595
58.855 23.801115
58.860 23.754349
58.865 23.419018
58.870 22.543768
58.875 22.426949
58.880 22.382879
58.885 22.584656
58.890 22.182604
58.895 21.394068
58.900 21.703646
58.905 21.664612
58.910 21.740263
58.915 21.397408
58.920 20.35224
58.925 20.244017
58.930 20.231369
58.935 19.649277
58.940 18.916264
58.945 18.268995
58.950 18.52331
58.955 18.981291
58.960 19.17012
58.965 19.199259
58.970 18.89839
58.975 19.07143
58.980 19.325859
58.985 18.578569
58.990 17.937813
58.995 17.66474
59.000 17.602962
59.005 17.750793
59.010 17.389189
59.015 16.491108
59.020 16.017691
59.025 15.614707
59.030 15.09583
59.035 14.849106
59.040 14.992953
59.045 14.564306
59.050 14.347018
59.055 14.079959
59.060 14.362178
59.065 14.636149
59.070 14.298319
59.075 14.074903
59.080 14.140439
59.085 14.019664
59.090 14.541781
59.095 13.983097
59.100 13.412044
59.105 13.745232
59.110 12.943433
59.115 12.923936
59.120 13.06811
59.125 12.857519
59.130 13.082589
59.135 13.519141
59.140 13.947696
59.145 14.575186
59.150 14.577703
59.155 14.479483
59.160 14.626017
59.165 14.399782
59.170 13.876346
59.175 13.194324
59.180 12.73501
59.185 12.852083
59.190 13.08785
59.195 12.832098
59.200 12.823494
59.205 13.147518
59.210 13.188531
59.215 13.053807
59.220 12.620999
59.225 12.484721
59.230 12.493861
59.235 12.641994
59.240 12.628002
59.245 12.93694
59.250 13.479198
59.255 13.726965
59.260 14.103354
59.265 14.455711
59.270 14.122166
59.275 13.535155
59.280 12.904351
59.285 12.263165
59.290 12.357914
59.295 12.074002
59.300 11.87626
59.305 12.33164
59.310 12.867392
59.315 13.401204
59.320 14.101214
59.325 13.726498
59.330 13.530063
59.335 13.770396
59.340 13.785336
59.345 13.559715
59.350 13.45387
59.355 12.916771
59.360 13.010288
59.365 12.546129
59.370 12.513696
59.375 12.635063
59.380 13.166809
59.385 13.639188
59.390 14.006702
59.395 14.025414
59.400 14.209564
59.405 13.985554
59.410 13.67904
59.415 13.517617
59.420 13.136604
59.425 12.930314
59.430 12.736011
59.435 12.928154
59.440 12.891423
59.445 12.805348
59.450 12.244242
59.455 11.976314
59.460 11.784452
59.465 12.01377
59.470 12.412245
59.475 12.415882
59.480 12.812303
59.485 13.184449
59.490 13.396422
59.495 13.401762
59.500 13.148158
59.505 12.866085
59.510 13.211621
59.515 13.139442
59.520 13.234351
59.525 13.591872
59.530 13.754909
59.535 14.153985
59.540 14.184019
59.545 13.833266
59.550 13.530572
59.555 13.201185
59.560 12.535945
59.565 12.455368
59.570 12.461263
59.575 12.237273
59.580 12.444658
59.585 12.463006
59.590 12.642342
59.595 13.070017
59.600 12.751852
59.605 13.069234
59.610 13.32336
59.615 13.4282
59.620 13.338484
59.625 12.947523
59.630 13.327166
59.635 13.526416
59.640 13.073832
59.645 13.033879
59.650 13.075077
59.655 13.367905
59.660 13.464893
59.665 13.237006
59.670 13.094475
59.675 13.473837
59.680 12.9497
59.685 12.460148
59.690 12.408027
59.695 12.078511
59.700 12.010871
59.705 12.157181
59.710 11.828225
59.715 12.159951
59.720 12.583842
59.725 12.969449
59.730 13.414446
59.735 13.787492
59.740 13.895189
59.745 14.394162
59.750 14.656001
59.755 14.917692
59.760 14.400177
59.765 14.105573
59.770 14.270993
59.775 14.647376
59.780 14.489777
59.785 14.343417
59.790 13.788227
59.795 14.021514
59.800 14.075575
59.805 13.754462
59.810 13.207164
59.815 13.496378
59.820 13.72764
59.825 13.922778
59.830 13.677567
59.835 13.741244
59.840 14.223046
59.845 14.555399
59.850 14.480008
59.855 14.140469
59.860 14.076516
59.865 14.078978
59.870 13.849036
59.875 13.23203
59.880 12.627887
59.885 12.355716
59.890 12.362099
59.895 12.848993
59.900 13.292615
59.905 13.421631
59.910 13.280315
59.915 12.906254
59.920 12.197962
59.925 12.246578
59.930 11.970736
59.935 11.763141
59.940 11.319765
59.945 11.228164
59.950 12.03764
59.955 12.726937
59.960 13.447232
59.965 14.084791
59.970 14.206129
59.975 14.506369
59.980 14.920242
59.985 15.221033
59.990 15.353358
59.995 14.652474
60.000 13.959176
60.005 14.088676
60.010 14.084147
60.015 13.773103
60.020 13.724627
60.025 13.602669
60.030 13.711584
60.035 13.744223
60.040 13.55228
60.045 13.613239
60.050 13.818582
60.055 13.299872
60.060 13.373793
60.065 13.397511
60.070 13.379914
60.075 13.232976
60.080 13.528612
60.085 13.818073
60.090 14.116027
60.095 14.04099
60.100 13.670685
60.105 13.871392
60.110 14.253819
60.115 13.84659
60.120 13.663465
60.125 13.466262
60.130 13.379557
60.135 13.639882
60.140 13.790177
60.145 13.732696
60.150 13.89051
60.155 13.919269
60.160 13.906069
60.165 13.603499
60.170 14.163994
60.175 13.735433
60.180 13.48629
60.185 13.329429
60.190 13.671062
60.195 13.916892
60.200 13.982533
60.205 13.889296
60.210 14.084886
60.215 14.255609
60.220 13.837858
60.225 13.20132
60.230 13.121172
60.235 12.814209
60.240 12.830325
60.245 13.416563
60.250 13.683017
60.255 13.959161
60.260 14.132777
60.265 14.442132
60.270 14.333523
60.275 13.459858
60.280 12.97149
60.285 12.445555
60.290 12.482752
60.295 12.962833
60.300 12.681543
60.305 12.800065
60.310 12.769698
60.315 12.89824
60.320 13.517943
60.325 13.282364
60.330 13.187077
60.335 13.474394
60.340 13.715376
60.345 13.982478
60.350 13.455395
60.355 13.070843
60.360 12.781043
60.365 12.383869
60.370 12.262207
60.375 11.992824
60.380 11.785104
60.385 12.238207
60.390 12.554299
60.395 13.178686
60.400 13.082859
60.405 13.231211
60.410 13.524029
60.415 14.065862
60.420 14.3439
60.425 14.046691
60.430 14.166394
60.435 14.15198
60.440 14.279678
60.445 14.36182
60.450 14.376564
60.455 14.378786
60.460 14.893271
60.465 14.791593
60.470 14.883305
60.475 15.080294
60.480 14.803897
60.485 14.75676
60.490 14.540073
60.495 13.983715
60.500 14.062102
60.505 14.188293
60.510 13.848446
60.515 14.107209
60.520 13.560892
60.525 13.657379
60.530 13.559252
60.535 13.124742
60.540 13.138272
60.545 13.108974
60.550 12.818603
60.555 13.414292
60.560 13.332781
60.565 13.279633
60.570 13.610246
60.575 13.128378
60.580 12.677933
60.585 12.798752
60.590 12.665611
60.595 12.634071
60.600 12.635577
60.605 12.512027
60.610 13.052017
60.615 13.349159
60.620 13.60409
60.625 13.441041
60.630 13.518926
60.635 13.05504
60.640 13.143527
60.645 13.162154
60.650 13.168671
60.655 12.975841
60.660 12.833158
60.665 12.874843
60.670 13.412438
60.675 13.626684
60.680 13.653971
60.685 13.482677
60.690 13.258361
60.695 13.470918
60.700 13.696852
60.705 14.037347
60.710 13.604631
60.715 13.219476
60.720 13.270533
60.725 13.331291
60.730 13.485806
60.735 14.034842
60.740 13.812636
60.745 14.065512
60.750 14.276001
60.755 14.685546
60.760 15.016878
60.765 15.206603
60.770 14.600764
60.775 14.308222
60.780 14.14246
60.785 13.857828
60.790 13.803316
60.795 13.806507
60.800 13.700534
60.805 13.541315
60.810 13.555854
60.815 13.971873
60.820 14.087692
60.825 14.337345
60.830 14.196779
60.835 13.672308
60.840 13.78291
60.845 13.768203
60.850 14.082223
60.855 14.275063
60.860 13.657428
60.865 13.794755
60.870 14.163507
60.875 14.256896
60.880 14.283761
60.885 14.090638
60.890 14.289022
60.895 14.783918
60.900 15.099743
60.905 15.295171
60.910 15.929871
60.915 15.982527
60.920 15.62144
60.925 15.211649
60.930 14.599784
60.935 14.575981
60.940 14.603868
60.945 14.132339
60.950 14.03248
60.955 13.887071
60.960 14.238793
60.965 14.440391
60.970 13.895419
60.975 13.308764
60.980 13.280874
60.985 13.594346
60.990 13.714586
60.995 13.117251
61.000 12.805607
61.005 13.270031
61.010 13.532369
61.015 13.261985
61.020 12.965169
61.025 12.819156
61.030 12.633163
61.035 12.665224
61.040 12.387017
61.045 12.085225
61.050 12.119561
61.055 12.345918
61.060 12.736576
61.065 13.244701
61.070 13.599621
61.075 13.406431
61.080 13.505504
61.085 13.254472
61.090 12.817369
61.095 12.859138
61.100 12.803728
61.105 12.183493
61.110 12.585686
61.115 12.915275
61.120 13.490084
61.125 13.978603
61.130 14.062559
61.135 14.13187
61.140 14.65025
61.145 14.676419
61.150 14.373063
61.155 13.749499
61.160 14.010936
61.165 13.912515
61.170 13.813876
61.175 13.453289
61.180 13.105139
61.185 13.421921
61.190 13.843221
61.195 13.638003
61.200 13.887287
61.205 14.511176
61.210 14.884447
61.215 15.372453
61.220 15.514177
61.225 15.566058
61.230 14.951725
61.235 14.624639
61.240 14.222275
61.245 13.924454
61.250 13.775481
61.255 13.974178
61.260 14.494593
61.265 15.629964
61.270 15.734064
61.275 15.576329
61.280 15.764727
61.285 15.57994
61.290 15.314445
61.295 14.532884
61.300 14.020605
61.305 14.072428
61.310 14.056136
61.315 14.213551
61.320 14.431602
61.325 14.205396
61.330 14.25528
61.335 14.231148
61.340 14.600649
61.345 14.664571
61.350 14.457824
61.355 14.54501
61.360 14.645129
61.365 14.938936
61.370 14.813621
61.375 14.39579
61.380 14.544594
61.385 14.952826
61.390 14.665023
61.395 14.509007
61.400 14.211846
61.405 14.641902
61.410 14.882398
61.415 14.463425
61.420 14.028588
61.425 14.234177
61.430 14.404762
61.435 14.395859
61.440 14.211492
61.445 13.959312
61.450 14.05927
61.455 14.395352
61.460 14.181784
61.465 14.569994
61.470 15.336233
61.475 14.900599
61.480 14.798122
61.485 14.418337
61.490 14.086709
61.495 14.131939
61.500 13.925172
61.505 13.646119
61.510 14.288173
61.515 15.144981
61.520 15.481271
61.525 15.314512
61.530 15.326297
61.535 15.25546
61.540 14.99185
61.545 14.571388
61.550 14.474911
61.555 14.66623
61.560 15.59384
61.565 16.066622
61.570 16.307663
61.575 16.439753
61.580 16.57407
61.585 16.254099
61.590 15.949151
61.595 15.201486
61.600 14.727915
61.605 14.415706
61.610 14.208807
61.615 13.958135
61.620 13.871254
61.625 13.981259
61.630 13.667075
61.635 13.794369
61.640 13.887602
61.645 14.114278
61.650 14.673989
61.655 14.911188
61.660 14.907228
61.665 15.368354
61.670 15.109319
61.675 14.943697
61.680 14.415511
61.685 13.69591
61.690 13.589575
61.695 13.267672
61.700 13.386254
61.705 13.519023
61.710 13.978519
61.715 14.835048
61.720 14.79144
61.725 14.430528
61.730 14.565339
61.735 14.595969
61.740 14.595068
61.745 14.141503
61.750 13.727644
61.755 14.208624
61.760 14.863773
61.765 15.032666
61.770 14.812309
61.775 15.119611
61.780 15.441066
61.785 15.816534
61.790 15.396746
61.795 14.897437
61.800 14.715534
61.805 14.682373
61.810 14.219429
61.815 13.911944
61.820 13.956181
61.825 14.220914
61.830 14.278584
61.835 14.09651
61.840 13.875931
61.845 13.895398
61.850 13.767473
61.855 13.580845
61.860 13.917117
61.865 14.061986
61.870 14.211011
61.875 14.333576
61.880 14.734028
61.885 15.016873
61.890 14.991559
61.895 14.909722
61.900 14.972983
61.905 15.10465
61.910 15.34942
61.915 15.183644
61.920 15.357853
61.925 15.193253
61.930 14.94638
61.935 14.806518
61.940 14.865326
61.945 14.708933
61.950 14.056544
61.955 13.67227
61.960 13.339665
61.965 13.127868
61.970 13.265281
61.975 13.58124
61.980 13.866375
61.985 14.535225
61.990 14.757577
61.995 15.199856
62.000 15.612984
62.005 16.13769
62.010 16.014439
62.015 15.94591
62.020 15.881953
62.025 15.543259
62.030 15.321471
62.035 15.281859
62.040 14.648495
62.045 13.961124
62.050 13.780259
62.055 13.911037
62.060 14.119093
62.065 14.336164
62.070 13.913327
62.075 13.971036
62.080 14.408197
62.085 14.419912
62.090 14.950194
62.095 15.184847
62.100 14.734843
62.105 15.096258
62.110 14.985601
62.115 15.198833
62.120 15.327804
62.125 15.081709
62.130 14.957808
62.135 15.333724
62.140 15.096584
62.145 15.083733
62.150 14.776636
62.155 14.826105
62.160 14.611626
62.165 14.67959
62.170 15.087441
62.175 15.566891
62.180 15.80988
62.185 16.016834
62.190 16.263628
62.195 16.59169
62.200 16.942606
62.205 17.067017
62.210 16.565792
62.215 16.351446
62.220 15.708534
62.225 14.937663
62.230 14.39044
62.235 14.346604
62.240 14.136543
62.245 14.050494
62.250 14.010512
62.255 14.338308
62.260 14.432097
62.265 14.209585
62.270 13.786447
62.275 13.568604
62.280 13.735702
62.285 13.720837
62.290 13.454404
62.295 13.315292
62.300 13.55981
62.305 13.00724
62.310 12.913142
62.315 13.195651
62.320 13.856947
62.325 13.905869
62.330 14.240599
62.335 14.356884
62.340 15.138068
62.345 15.569806
62.350 15.74006
62.355 15.47054
62.360 15.655412
62.365 15.772727
62.370 15.468081
62.375 15.049296
62.380 14.846224
62.385 14.52829
62.390 14.586443
62.395 14.3828
62.400 14.285286
62.405 14.635354
62.410 15.078811
62.415 15.096699
62.420 14.951379
62.425 14.861502
62.430 14.836596
62.435 14.934184
62.440 14.984829
62.445 15.217625
62.450 15.717497
62.455 15.988741
62.460 15.925121
62.465 15.952387
62.470 15.430981
62.475 15.19843
62.480 14.311503
62.485 14.267587
62.490 14.388902
62.495 14.343923
62.500 14.112288
62.505 14.244742
62.510 14.033748
62.515 13.774429
62.520 13.710794
62.525 13.685229
62.530 14.036867
62.535 14.497937
62.540 15.028118
62.545 15.655077
62.550 15.627948
62.555 15.308095
62.560 15.452811
62.565 15.309953
62.570 15.285316
62.575 14.974554
62.580 15.192274
62.585 15.461826
62.590 14.897766
62.595 14.634185
62.600 14.515025
62.605 14.345185
62.610 14.096649
62.615 13.726245
62.620 13.634372
62.625 13.977786
62.630 13.814045
62.635 14.334869
62.640 14.934858
62.645 14.928771
62.650 15.325192
62.655 16.388386
62.660 16.068476
62.665 16.427929
62.670 16.133825
62.675 15.558477
62.680 15.564095
62.685 14.872529
62.690 13.971543
62.695 14.440101
62.700 14.173246
62.705 14.321368
62.710 14.559793
62.715 14.700981
62.720 15.060169
62.725 15.333526
62.730 15.778718
62.735 16.074438
62.740 16.034313
62.745 15.910209
62.750 15.790951
62.755 15.797477
62.760 15.664224
62.765 15.354339
62.770 15.291957
62.775 15.170545
62.780 15.084646
62.785 15.306937
62.790 15.260785
62.795 15.15642
62.800 15.177008
62.805 15.833225
62.810 15.901991
62.815 15.626895
62.820 15.313704
62.825 15.476313
62.830 15.664933
62.835 15.609033
62.840 14.741872
62.845 14.232697
62.850 14.297314
62.855 14.40681
62.860 14.096991
62.865 14.322961
62.870 14.285059
62.875 14.475689
62.880 14.659087
62.885 14.55308
62.890 14.288402
62.895 14.049528
62.900 13.643472
62.905 13.418942
62.910 13.638638
62.915 14.119448
62.920 14.19925
62.925 14.128616
62.930 14.28253
62.935 13.975207
62.940 14.086439
62.945 13.972126
62.950 13.81338
62.955 14.353523
62.960 14.648602
62.965 15.169587
62.970 16.479984
62.975 16.985638
62.980 16.694262
62.985 16.443872
62.990 15.929419
62.995 15.940895
63.000 15.581687
63.005 14.45462
63.010 14.215928
63.015 14.939663
63.020 15.513079
63.025 15.837925
63.030 16.075687
63.035 15.62811
63.040 15.907987
63.045 15.55552
63.050 15.286523
63.055 14.92413
63.060 14.592126
63.065 14.424442
63.070 14.783849
63.075 14.543697
63.080 14.816642
63.085 14.768528
63.090 14.495776
63.095 15.097431
63.100 15.189284
63.105 15.583152
63.110 15.647796
63.115 15.808103
63.120 16.569479
63.125 16.815092
63.130 16.753658
63.135 16.5432
63.140 15.916702
63.145 15.996387
63.150 15.892736
63.155 15.378244
63.160 15.366329
63.165 15.012809
63.170 15.332191
63.175 15.797612
63.180 15.823075
63.185 15.890354
63.190 15.755877
63.195 15.712547
63.200 16.088848
63.205 16.304878
63.210 17.051201
63.215 17.467039
63.220 17.3762
63.225 17.437889
63.230 17.050066
63.235 16.549919
63.240 16.014103
63.245 14.956477
63.250 14.198268
63.255 13.802971
63.260 13.846934
63.265 14.179894
63.270 14.162081
63.275 14.135756
63.280 14.533564
63.285 15.342072
63.290 15.71848
63.295 16.166494
63.300 16.280855
63.305 16.781948
63.310 17.323843
63.315 17.881155
63.320 18.009007
63.325 18.270742
63.330 18.386181
63.335 17.822407
63.340 17.420198
63.345 16.731073
63.350 15.72865
63.355 15.338078
63.360 14.501196
63.365 13.868267
63.370 14.67705
63.375 15.280134
63.380 15.332575
63.385 15.125981
63.390 14.817872
63.395 15.248375
63.400 15.538722
63.405 15.379038
63.410 14.942144
63.415 15.173543
63.420 15.519253
63.425 15.714492
63.430 16.01895
63.435 16.380468
63.440 16.672092
63.445 16.735788
63.450 16.502487
63.455 16.429365
63.460 15.724402
63.465 15.191203
63.470 14.381483
63.475 14.209907
63.480 14.597096
63.485 15.300655
63.490 15.652165
63.495 16.431377
63.500 16.349686
63.505 16.607098
63.510 16.160427
63.515 15.74364
63.520 15.083878
63.525 14.617261
63.530 14.687472
63.535 15.560675
63.540 16.046659
63.545 16.255184
63.550 16.01207
63.555 15.943357
63.560 16.295778
63.565 16.476297
63.570 15.821862
63.575 15.002123
63.580 15.183794
63.585 15.838586
63.590 16.448694
63.595 16.699795
63.600 16.077314
63.605 16.036697
63.610 15.985312
63.615 15.576295
63.620 15.749135
63.625 15.854476
63.630 15.336615
63.635 15.147073
63.640 14.900353
63.645 15.317128
63.650 15.865684
63.655 15.344312
63.660 14.71723
63.665 14.648423
63.670 15.432282
63.675 15.856518
63.680 15.935951
63.685 15.853501
63.690 15.743484
63.695 15.605639
63.700 15.831995
63.705 15.275215
63.710 15.016036
63.715 14.849549
63.720 14.382536
63.725 14.868828
63.730 15.729426
63.735 15.936114
63.740 16.06497
63.745 16.557192
63.750 16.237484
63.755 15.732154
63.760 15.04737
63.765 14.46709
63.770 14.363484
63.775 14.230858
63.780 14.391685
63.785 14.729132
63.790 15.476247
63.795 15.790225
63.800 15.577907
63.805 16.114258
63.810 16.46323
63.815 16.193918
63.820 16.251904
63.825 16.567099
63.830 17.360304
63.835 18.075962
63.840 18.403934
63.845 18.610474
63.850 18.819374
63.855 18.916002
63.860 18.639391
63.865 18.263277
63.870 17.509163
63.875 16.697266
63.880 16.536423
63.885 17.021139
63.890 17.058969
63.895 17.029324
63.900 17.102053
63.905 17.278708
63.910 17.827076
63.915 17.979355
63.920 18.025768
63.925 18.077269
63.930 17.883617
63.935 18.148214
63.940 18.242275
63.945 17.777681
63.950 17.204933
63.955 17.022535
63.960 17.141529
63.965 17.116089
63.970 17.357784
63.975 17.737875
63.980 18.452019
63.985 19.226303
63.990 19.408365
63.995 19.552391
64.000 20.102613
64.005 19.723738
64.010 19.848591
64.015 20.149315
64.020 20.406351
64.025 20.789114
64.030 20.756277
64.035 21.07699
64.040 21.275787
64.045 20.962214
64.050 20.534986
64.055 19.784964
64.060 19.377323
64.065 19.230629
64.070 19.067661
64.075 19.014481
64.080 19.618937
64.085 20.330748
64.090 20.384567
64.095 20.42255
64.100 20.546196
64.105 20.546896
64.110 20.781593
64.115 20.539106
64.120 21.162834
64.125 21.271112
64.130 21.169973
64.135 21.333851
64.140 21.539921
64.145 21.429331
64.150 21.431726
64.155 21.42803
64.160 21.910734
64.165 22.360888
64.170 23.001976
64.175 23.534466
64.180 24.51198
64.185 25.597654
64.190 26.202488
64.195 27.078985
64.200 28.082218
64.205 28.303865
64.210 28.409206
64.215 28.250259
64.220 28.395462
64.225 28.33816
64.230 28.6035
64.235 28.282492
64.240 28.302635
64.245 28.421864
64.250 28.426176
64.255 28.169254
64.260 28.125696
64.265 28.010963
64.270 28.995617
64.275 29.707874
64.280 30.485731
64.285 30.903767
64.290 32.365826
64.295 33.120995
64.300 34.05714
64.305 34.343693
64.310 34.565948
64.315 34.966938
64.320 36.477417
64.325 37.417278
64.330 38.309155
64.335 38.551453
64.340 38.739117
64.345 39.557579
64.350 39.908772
64.355 39.215553
64.360 40.06192
64.365 41.476746
64.370 41.901127
64.375 42.428905
64.380 43.147358
64.385 44.106392
64.390 44.910454
64.395 44.277069
64.400 43.856972
64.405 44.092987
64.410 44.525784
64.415 44.320858
64.420 44.311047
64.425 44.020439
64.430 45.657665
64.435 47.205425
64.440 48.150219
64.445 47.888783
64.450 47.585987
64.455 47.495716
64.460 47.969643
64.465 47.369572
64.470 46.099438
64.475 46.060989
64.480 46.242062
64.485 46.332626
64.490 46.60474
64.495 46.995331
64.500 45.562145
64.505 45.431862
64.510 45.578949
64.515 45.582119
64.520 45.438335
64.525 44.850204
64.530 43.822102
64.535 44.095123
64.540 44.027302
64.545 43.439487
64.550 43.425434
64.555 43.012661
64.560 41.95113
64.565 41.378731
64.570 40.582516
64.575 39.299515
64.580 38.383984
64.585 36.979443
64.590 36.690998
64.595 35.981544
64.600 35.806938
64.605 35.691265
64.610 35.274601
64.615 34.805237
64.620 34.607216
64.625 33.564381
64.630 33.828651
64.635 33.77153
64.640 33.345478
64.645 32.672642
64.650 32.336758
64.655 32.058292
64.660 32.344273
64.665 31.775705
64.670 30.900932
64.675 29.198771
64.680 28.344662
64.685 27.888474
64.690 28.017851
64.695 27.417746
64.700 26.921055
64.705 26.660406
64.710 26.89245
64.715 27.002436
64.720 26.216122
64.725 25.191114
64.730 25.038279
64.735 25.028328
64.740 24.588072
64.745 24.454464
64.750 24.40196
64.755 24.608391
64.760 24.572102
64.765 24.380974
64.770 23.720997
64.775 23.506147
64.780 23.015743
64.785 23.420916
64.790 23.226969
64.795 22.9002
64.800 23.006611
64.805 23.641493
64.810 23.446911
64.815 23.07625
64.820 22.510786
64.825 22.198624
64.830 22.512936
64.835 22.864618
64.840 22.163446
64.845 22.207396
64.850 22.317509
64.855 21.878428
64.860 21.807657
64.865 21.752958
64.870 21.122215
64.875 21.035921
64.880 20.739756
64.885 20.348001
64.890 20.062534
64.895 20.136032
64.900 19.981237
64.905 19.886543
64.910 20.642347
64.915 20.84696
64.920 21.589207
64.925 22.177135
64.930 22.349527
64.935 22.220745
64.940 22.660082
64.945 22.111141
64.950 22.163399
64.955 21.801054
64.960 21.947018
64.965 21.981432
64.970 22.059076
64.975 22.368864
64.980 22.66291
64.985 22.570539
64.990 22.591019
64.995 22.824738
65.000 23.288378
65.005 23.416695
65.010 23.109884
65.015 23.001478
65.020 24.026522
65.025 25.100048
65.030 25.351423
65.035 26.288031
65.040 27.091164
65.045 27.643881
65.050 28.015636
65.055 27.652237
65.060 27.047333
65.065 26.837517
65.070 26.668678
65.075 27.075161
65.080 26.958307
65.085 27.695631
65.090 27.672342
65.095 27.838634
65.100 28.344761
65.105 28.515415
65.110 28.899044
65.115 29.416195
65.120 29.354607
65.125 30.105524
65.130 30.852228
65.135 30.769543
65.140 30.989677
65.145 30.454159
65.150 30.24659
65.155 30.437304
65.160 30.468491
65.165 30.61393
65.170 30.386927
65.175 29.902561
65.180 30.475327
65.185 31.347685
65.190 32.135822
65.195 32.301483
65.200 33.186207
65.205 34.188793
65.210 34.77803
65.215 34.59412
65.220 34.306938
65.225 34.37772
65.230 35.745991
65.235 35.266304
65.240 35.199738
65.245 35.538048
65.250 35.829308
65.255 36.221554
65.260 36.429005
65.265 36.271755
65.270 36.330345
65.275 36.814896
65.280 36.365719
65.285 36.672981
65.290 36.394234
65.295 36.238754
65.300 36.286411
65.305 36.524242
65.310 36.495579
65.315 36.747223
65.320 36.564217
65.325 36.986942
65.330 36.779202
65.335 36.451187
65.340 36.430824
65.345 36.708466
65.350 36.562943
65.355 36.632587
65.360 37.097546
65.365 37.979496
65.370 37.414997
65.375 37.464611
65.380 37.333851
65.385 37.703445
65.390 38.342182
65.395 38.196209
65.400 37.848045
65.405 39.204205
65.410 39.886486
65.415 40.099686
65.420 40.225555
65.425 40.944447
65.430 40.417843
65.435 40.457722
65.440 40.305569
65.445 39.246918
65.450 39.086727
65.455 38.370106
65.460 37.560547
65.465 37.413956
65.470 37.059521
65.475 36.969208
65.480 37.435726
65.485 37.157757
65.490 37.634918
65.495 38.015247
65.500 37.717907
65.505 36.790752
65.510 36.450645
65.515 35.555573
65.520 34.819565
65.525 34.024677
65.530 33.822536
65.535 34.687241
65.540 34.833649
65.545 34.073139
65.550 34.163715
65.555 34.815693
65.560 34.814571
65.565 34.077843
65.570 33.595303
65.575 34.093086
65.580 34.743595
65.585 34.812508
65.590 35.141575
65.595 34.77689
65.600 34.650032
65.605 35.001827
65.610 34.853771
65.615 34.550037
65.620 34.432331
65.625 33.92868
65.630 33.514744
65.635 33.704422
65.640 33.837246
65.645 34.036034
65.650 34.081627
65.655 33.07716
65.660 32.566883
65.665 32.720409
65.670 32.04525
65.675 31.420048
65.680 30.709648
65.685 29.883871
65.690 30.360418
65.695 31.377592
65.700 32.137547
65.705 32.612892
65.710 32.634621
65.715 31.907663
65.720 31.408628
65.725 30.946983
65.730 29.434175
65.735 28.270334
65.740 27.857023
65.745 27.542557
65.750 27.411184
65.755 27.041704
65.760 27.294304
65.765 27.436459
65.770 27.943598
65.775 28.380661
65.780 28.388975
65.785 28.772093
65.790 28.717636
65.795 28.486416
65.800 28.2272
65.805 26.886391
65.810 25.67865
65.815 25.50153
65.820 25.920938
65.825 25.509459
65.830 24.554119
65.835 24.541912
65.840 24.772505
65.845 24.446335
65.850 23.734486
65.855 22.718946
65.860 22.556084
65.865 22.126593
65.870 21.90106
65.875 21.948374
65.880 21.852165
65.885 21.354553
65.890 20.987963
65.895 21.048557
65.900 21.013172
65.905 20.660391
65.910 20.393551
65.915 20.168036
65.920 21.177563
65.925 21.820856
65.930 21.752134
65.935 22.002867
65.940 21.483772
65.945 21.293957
65.950 21.327469
65.955 20.694721
65.960 19.898531
65.965 19.85812
65.970 19.963371
65.975 20.311686
65.980 20.12925
65.985 20.079309
65.990 19.427513
65.995 18.891367
66.000 19.101454
66.005 18.470915
66.010 18.112211
66.015 17.587727
66.020 17.385403
66.025 17.445316
66.030 17.747799
66.035 17.821051
66.040 17.499342
66.045 17.479683
66.050 17.819412
66.055 18.155647
66.060 18.586525
66.065 18.398621
66.070 18.120499
66.075 18.129478
66.080 18.599798
66.085 18.386379
66.090 18.083485
66.095 17.903723
66.100 17.397877
66.105 17.63842
66.110 17.783133
66.115 17.891899
66.120 18.614096
66.125 18.457603
66.130 18.403917
66.135 18.454781
66.140 18.575811
66.145 18.843185
66.150 18.721687
66.155 18.192001
66.160 18.137085
66.165 18.792545
66.170 19.106606
66.175 18.863642
66.180 18.194525
66.185 18.029449
66.190 18.518312
66.195 18.710484
66.200 18.087475
66.205 17.235672
66.210 16.830603
66.215 16.999247
66.220 16.804684
66.225 16.052105
66.230 15.748956
66.235 15.940238
66.240 16.294514
66.245 16.765865
66.250 17.3668
66.255 17.594748
66.260 17.941793
66.265 18.064615
66.270 18.186316
66.275 18.330254
66.280 18.222609
66.285 17.7579
66.290 18.278856
66.295 18.534985
66.300 18.514631
66.305 18.406155
66.310 18.385603
66.315 18.251783
66.320 17.946627
66.325 17.609703
66.330 17.586601
66.335 17.280848
66.340 16.974094
66.345 16.776093
66.350 16.786924
66.355 16.760391
66.360 16.264387
66.365 16.240835
66.370 16.385712
66.375 16.169083
66.380 16.236679
66.385 16.385422
66.390 16.067377
66.395 15.812771
66.400 15.749657
66.405 15.754093
66.410 16.226439
66.415 16.575184
66.420 16.356356
66.425 16.603651
66.430 16.659086
66.435 16.030474
66.440 16.268013
66.445 16.896523
66.450 17.100897
66.455 17.302212
66.460 17.692518
66.465 17.585835
66.470 17.745008
66.475 16.945963
66.480 16.305874
66.485 16.027271
66.490 16.464369
66.495 16.402637
66.500 16.891302
66.505 17.201313
66.510 17.674059
66.515 17.357975
66.520 17.573948
66.525 17.484638
66.530 17.299795
66.535 17.305944
66.540 17.057165
66.545 17.12929
66.550 17.01927
66.555 16.54921
66.560 15.881456
66.565 16.012068
66.570 16.389351
66.575 16.514391
66.580 16.573664
66.585 16.884083
66.590 17.034929
66.595 17.807743
66.600 17.747103
66.605 17.48978
66.610 17.441511
66.615 17.310637
66.620 17.676861
66.625 17.691944
66.630 17.379551
66.635 16.623707
66.640 16.050592
66.645 15.943033
66.650 15.556509
66.655 15.35465
66.660 15.334679
66.665 15.674664
66.670 16.289116
66.675 16.465549
66.680 16.526114
66.685 17.124825
66.690 17.103296
66.695 16.820641
66.700 16.073917
66.705 16.024099
66.710 15.850013
66.715 15.932779
66.720 15.672283
66.725 15.705519
66.730 15.677299
66.735 16.357704
66.740 16.678087
66.745 16.766468
66.750 16.702868
66.755 16.26659
66.760 16.474669
66.765 16.821772
66.770 16.858932
66.775 17.037769
66.780 17.608986
66.785 17.965343
66.790 18.060705
66.795 17.989498
66.800 17.820347
66.805 17.639729
66.810 17.272976
66.815 17.103422
66.820 17.026417
66.825 16.798483
66.830 16.30579
66.835 16.14089
66.840 16.288616
66.845 16.04953
66.850 15.796783
66.855 15.385271
66.860 15.876952
66.865 16.086775
66.870 15.903209
66.875 16.137945
66.880 16.831533
66.885 17.080975
66.890 17.262138
66.895 17.429668
66.900 17.089975
66.905 17.32815
66.910 17.281565
66.915 16.658762
66.920 16.682837
66.925 16.460783
66.930 15.800475
66.935 16.618507
66.940 16.284988
66.945 15.768685
66.950 16.083447
66.955 15.320958
66.960 15.563242
66.965 16.332432
66.970 16.283411
66.975 16.356003
66.980 16.620878
66.985 16.542871
66.990 17.056175
66.995 17.121862
67.000 17.52713
67.005 17.57205
67.010 17.547073
67.015 17.519243
67.020 17.711885
67.025 17.885532
67.030 17.621746
67.035 17.300676
67.040 17.324406
67.045 17.414335
67.050 17.78204
67.055 18.097639
67.060 17.791113
67.065 17.712824
67.070 17.193068
67.075 17.31358
67.080 17.099735
67.085 16.665993
67.090 16.17614
67.095 16.377232
67.100 16.558424
67.105 16.583105
67.110 16.368853
67.115 16.243521
67.120 16.534298
67.125 16.541342
67.130 16.526426
67.135 16.403149
67.140 16.549997
67.145 16.812689
67.150 17.210644
67.155 17.261709
67.160 17.754902
67.165 18.038454
67.170 18.109068
67.175 17.430002
67.180 17.74213
67.185 17.337711
67.190 17.225559
67.195 17.23279
67.200 16.914745
67.205 17.171177
67.210 17.181204
67.215 16.632816
67.220 17.649902
67.225 17.402067
67.230 17.088932
67.235 16.640884
67.240 16.675001
67.245 17.283154
67.250 17.380421
67.255 17.0861
67.260 17.474318
67.265 17.340675
67.270 17.780439
67.275 17.470469
67.280 16.898548
67.285 16.796528
67.290 16.543249
67.295 16.386198
67.300 16.5772
67.305 16.391684
67.310 15.938092
67.315 16.032839
67.320 15.987099
67.325 15.829429
67.330 15.892092
67.335 15.65804
67.340 15.900313
67.345 16.504696
67.350 16.63785
67.355 16.563667
67.360 16.852537
67.365 16.776728
67.370 16.957794
67.375 17.484489
67.380 17.910858
67.385 17.733789
67.390 17.597849
67.395 17.713188
67.400 17.648024
67.405 17.444321
67.410 16.887119
67.415 16.244158
67.420 16.614195
67.425 16.269815
67.430 15.75169
67.435 15.765295
67.440 15.960923
67.445 16.085192
67.450 16.715145
67.455 16.427311
67.460 16.355455
67.465 16.565004
67.470 16.734514
67.475 17.178452
67.480 17.422665
67.485 17.735952
67.490 17.572401
67.495 17.76787
67.500 17.830597
67.505 17.848721
67.510 17.357456
67.515 17.329245
67.520 17.22661
67.525 17.609726
67.530 17.541676
67.535 17.899223
67.540 17.739616
67.545 17.687826
67.550 17.347464
67.555 17.806231
67.560 17.766535
67.565 17.990049
67.570 17.633871
67.575 17.275116
67.580 16.497522
67.585 16.644814
67.590 16.691204
67.595 17.060612
67.600 16.944986
67.605 17.635437
67.610 18.79381
67.615 19.290562
67.620 19.08729
67.625 18.446194
67.630 18.850161
67.635 18.654854
67.640 17.553301
67.645 16.893324
67.650 16.848989
67.655 17.470524
67.660 17.346092
67.665 16.75668
67.670 16.945602
67.675 17.500761
67.680 17.88401
67.685 17.897661
67.690 17.368441
67.695 17.411074
67.700 17.25976
67.705 17.279713
67.710 16.839956
67.715 16.885292
67.720 17.266306
67.725 17.286388
67.730 17.377884
67.735 17.772739
67.740 17.466471
67.745 17.526295
67.750 17.921444
67.755 17.777697
67.760 17.568174
67.765 17.549515
67.770 16.958065
67.775 17.388515
67.780 17.4174
67.785 17.110415
67.790 17.332487
67.795 17.528625
67.800 17.542267
67.805 17.68697
67.810 17.838263
67.815 18.152021
67.820 17.542612
67.825 17.612436
67.830 17.636887
67.835 17.599117
67.840 17.527348
67.845 17.209185
67.850 17.164112
67.855 16.979349
67.860 16.643381
67.865 17.034933
67.870 17.490196
67.875 17.862215
67.880 17.860022
67.885 17.945421
67.890 18.169474
67.895 17.880863
67.900 17.987452
67.905 17.897532
67.910 17.748545
67.915 17.986942
67.920 18.399601
67.925 19.070002
67.930 19.629345
67.935 19.090693
67.940 19.913157
67.945 20.164614
67.950 19.808069
67.955 19.642529
67.960 19.551249
67.965 19.23885
67.970 19.117235
67.975 18.632694
67.980 18.818892
67.985 19.024664
67.990 18.039829
67.995 17.4291
68.000 17.231451
68.005 17.415228
68.010 16.797062
68.015 16.393585
68.020 16.441343
68.025 17.214745
68.030 17.76523
68.035 17.965836
68.040 18.185583
68.045 18.574484
68.050 18.480917
68.055 18.537909
68.060 18.74996
68.065 18.671734
68.070 18.337856
68.075 18.129429
68.080 18.461531
68.085 18.794535
68.090 19.081949
68.095 19.18187
68.100 19.323427
68.105 19.694817
68.110 19.846699
68.115 20.232697
68.120 20.160999
68.125 20.07345
68.130 19.469023
68.135 19.336697
68.140 18.71452
68.145 18.540794
68.150 17.904217
68.155 17.657141
68.160 17.100964
68.165 17.371372
68.170 17.551765
68.175 18.80975
68.180 18.453571
68.185 18.611727
68.190 18.899044
68.195 19.617874
68.200 20.144014
68.205 19.946939
68.210 19.91091
68.215 20.539063
68.220 20.206573
68.225 20.2675
68.230 19.777138
68.235 19.570929
68.240 19.545256
68.245 19.775331
68.250 19.715389
68.255 20.115932
68.260 20.850985
68.265 21.412668
68.270 21.677919
68.275 22.247705
68.280 22.545921
68.285 23.167175
68.290 22.798548
68.295 22.843237
68.300 22.999044
68.305 22.950855
68.310 22.261713
68.315 21.847809
68.320 21.742657
68.325 22.316971
68.330 22.39123
68.335 22.360949
68.340 22.721621
68.345 24.046494
68.350 25.326046
68.355 25.394918
68.360 25.559521
68.365 25.108122
68.370 25.508282
68.375 25.551863
68.380 24.809141
68.385 24.202402
68.390 24.772837
68.395 25.372719
68.400 25.831854
68.405 25.975021
68.410 27.253639
68.415 28.189318
68.420 28.570477
68.425 28.923574
68.430 28.447403
68.435 28.920017
68.440 28.908207
68.445 28.34462
68.450 28.999344
68.455 29.463688
68.460 30.003242
68.465 30.164661
68.470 30.181379
68.475 30.568069
68.480 31.159172
68.485 31.690702
68.490 31.233561
68.495 30.78507
68.500 30.633295
68.505 30.169596
68.510 29.86319
68.515 29.608931
68.520 29.489107
68.525 29.549627
68.530 29.58293
68.535 30.250591
68.540 30.918276
68.545 31.490692
68.550 31.632515
68.555 31.313215
68.560 31.701982
68.565 32.115009
68.570 32.26226
68.575 32.949768
68.580 32.94635
68.585 33.086899
68.590 33.47694
68.595 34.346924
68.600 34.457439
68.605 33.932964
68.610 33.197872
68.615 33.0956
68.620 32.613838
68.625 32.301754
68.630 32.383278
68.635 33.280273
68.640 33.815823
68.645 33.957592
68.650 33.995411
68.655 34.812344
68.660 35.097698
68.665 34.445602
68.670 33.826332
68.675 34.429546
68.680 34.546619
68.685 34.881538
68.690 35.613304
68.695 37.038948
68.700 37.582409
68.705 37.800098
68.710 37.872704
68.715 37.993752
68.720 37.65332
68.725 36.88203
68.730 36.28862
68.735 35.669487
68.740 34.498901
68.745 33.738949
68.750 34.213276
68.755 34.752899
68.760 34.286701
68.765 33.900433
68.770 34.729229
68.775 34.648281
68.780 34.642445
68.785 33.877171
68.790 33.819134
68.795 34.154583
68.800 34.37249
68.805 34.335327
68.810 35.200596
68.815 34.674553
68.820 34.500324
68.825 33.902561
68.830 33.68475
68.835 33.831356
68.840 33.943333
68.845 33.70713
68.850 33.85334
68.855 34.262772
68.860 34.250309
68.865 33.994122
68.870 33.228798
68.875 31.553116
68.880 31.12026
68.885 30.642418
68.890 29.646793
68.895 28.947916
68.900 29.010612
68.905 29.866684
68.910 31.092377
68.915 30.50112
68.920 29.930115
68.925 30.087725
68.930 29.782101
68.935 28.608784
68.940 27.437899
68.945 26.77182
68.950 27.026724
68.955 28.052723
68.960 28.452976
68.965 28.923958
68.970 29.455105
68.975 29.194916
68.980 28.880877
68.985 29.061621
68.990 28.478815
68.995 27.884365
69.000 27.234295
69.005 26.136654
69.010 26.246952
69.015 26.302988
69.020 25.509781
69.025 24.863413
69.030 24.374434
69.035 24.951271
69.040 25.095339
69.045 24.997629
69.050 24.386518
69.055 24.766827
69.060 24.708982
69.065 24.256802
69.070 23.144388
69.075 23.087034
69.080 22.489182
69.085 22.713963
69.090 22.376368
69.095 22.32872
69.100 22.859251
69.105 22.861042
69.110 22.631294
69.115 23.599291
69.120 23.69063
69.125 23.530807
69.130 23.558691
69.135 23.517817
69.140 23.474722
69.145 22.717388
69.150 21.943998
69.155 21.691837
69.160 21.026556
69.165 20.511368
69.170 19.982708
69.175 20.036194
69.180 19.879339
69.185 19.860367
69.190 19.765505
69.195 19.918013
69.200 19.882627
69.205 19.346251
69.210 19.267775
69.215 19.437321
69.220 19.307899
69.225 19.18177
69.230 19.515352
69.235 19.63776
69.240 19.780107
69.245 19.922256
69.250 19.757448
69.255 19.975925
69.260 19.965244
69.265 19.776876
69.270 19.870499
69.275 19.655569
69.280 19.241339
69.285 19.299198
69.290 18.803713
69.295 18.937628
69.300 18.501209
69.305 18.53339
69.310 19.418413
69.315 19.391615
69.320 19.084539
69.325 18.932631
69.330 19.092289
69.335 19.490639
69.340 19.434538
69.345 18.944502
69.350 18.917467
69.355 19.354092
69.360 19.330664
69.365 19.786154
69.370 19.396805
69.375 18.808723
69.380 18.357603
69.385 18.356911
69.390 17.722761
69.395 17.481224
69.400 16.913931
69.405 17.058857
69.410 17.562807
69.415 17.860191
69.420 17.759132
69.425 18.261984
69.430 18.06761
69.435 18.050295
69.440 18.268721
69.445 17.744137
69.450 17.231583
69.455 16.982565
69.460 17.076981
69.465 17.012945
69.470 17.307707
69.475 17.106682
69.480 17.37184
69.485 17.518162
69.490 16.827793
69.495 16.860298
69.500 17.002796
69.505 17.116262
69.510 17.402456
69.515 17.426861
69.520 17.178251
69.525 17.364101
69.530 16.98271
69.535 16.737671
69.540 16.867594
69.545 16.993057
69.550 17.902685
69.555 19.27301
69.560 19.828669
69.565 19.845865
69.570 20.132456
69.575 19.67098
69.580 19.225735
69.585 18.766609
69.590 17.961479
69.595 17.38653
69.600 17.664837
69.605 17.314642
69.610 17.192492
69.615 16.936361
69.620 16.52343
69.625 16.380684
69.630 16.837526
69.635 16.94515
69.640 17.1651
69.645 17.451912
69.650 17.650951
69.655 18.085911
69.660 18.824392
69.665 18.504602
69.670 18.11253
69.675 18.159571
69.680 17.794798
69.685 17.367979
69.690 16.137909
69.695 16.043762
69.700 16.202539
69.705 16.276726
69.710 15.919644
69.715 16.02099
69.720 16.774248
69.725 17.898832
69.730 17.134768
69.735 17.074383
69.740 16.992548
69.745 16.911169
69.750 16.97525
69.755 16.173553
69.760 16.213388
69.765 16.342705
69.770 16.453779
69.775 16.591545
69.780 17.036758
69.785 17.694941
69.790 17.776236
69.795 17.304476
69.800 17.408115
69.805 17.339979
69.810 17.411556
69.815 17.212667
69.820 16.675634
69.825 16.520723
69.830 17.037136
69.835 17.217077
69.840 16.623083
69.845 15.931064
69.850 16.204079
69.855 16.200237
69.860 16.627768
69.865 16.414307
69.870 16.372162
69.875 16.705851
69.880 17.360975
69.885 17.793697
69.890 18.088263
69.895 18.092016
69.900 18.136869
69.905 18.257851
69.910 18.465654
69.915 18.533297
69.920 18.650152
69.925 18.580275
69.930 18.282755
69.935 18.421402
69.940 18.367197
69.945 18.478767
69.950 18.107689
69.955 17.504225
69.960 17.570478
69.965 17.663042
69.970 17.549307
69.975 17.439821
69.980 16.908978
69.985 17.38011
69.990 17.898905
69.995 17.900867
70.000 18.209354
70.005 17.724073
70.010 17.814528
70.015 17.855839
70.020 17.134432
70.025 16.800865
70.030 16.653223
70.035 16.120663
70.040 15.894868
70.045 15.588685
70.050 15.480544
70.055 15.964364
70.060 16.184494
70.065 16.582899
70.070 17.22016
70.075 18.004389
70.080 18.277105
70.085 18.291861
70.090 18.193346
70.095 18.050417
70.100 17.712379
70.105 17.875858
70.110 17.671665
70.115 17.952555
70.120 17.53616
70.125 16.929134
70.130 16.751932
70.135 16.257853
70.140 15.58177
70.145 15.591169
70.150 15.547061
70.155 15.873219
70.160 16.178204
70.165 16.222601
70.170 16.619375
70.175 16.881697
70.180 16.678507
70.185 16.656404
70.190 16.450996
70.195 16.536295
70.200 16.649164
70.205 16.563854
70.210 16.586868
70.215 16.865561
70.220 16.700176
70.225 16.61739
70.230 16.47431
70.235 16.668846
70.240 16.561872
70.245 16.489153
70.250 16.490601
70.255 16.949697
70.260 16.823288
70.265 16.559484
70.270 16.307314
70.275 16.450346
70.280 16.253132
70.285 15.962046
70.290 15.607053
70.295 16.218843
70.300 16.082706
70.305 15.726843
70.310 15.772335
70.315 15.810964
70.320 16.673328
70.325 16.409351
70.330 15.576558
70.335 15.916368
70.340 15.949533
70.345 15.79196
70.350 16.072828
70.355 15.466278
70.360 15.531453
70.365 16.498533
70.370 16.651506
70.375 16.946405
70.380 16.794348
70.385 16.842762
70.390 16.991888
70.395 16.749353
70.400 16.849768
70.405 17.272078
70.410 16.988758
70.415 16.999153
70.420 17.070463
70.425 17.16011
70.430 17.115902
70.435 16.685295
70.440 16.606924
70.445 16.745367
70.450 16.867371
70.455 16.791422
70.460 16.768694
70.465 17.095432
70.470 16.920038
70.475 17.219084
70.480 17.438059
70.485 17.926495
70.490 18.975826
70.495 19.150257
70.500 19.489408
70.505 19.854141
70.510 19.373236
70.515 19.522198
70.520 19.064722
70.525 18.25395
70.530 18.170795
70.535 17.533258
70.540 17.963839
70.545 18.094475
70.550 17.638628
70.555 17.482769
70.560 17.751945
70.565 17.69883
70.570 18.032501
70.575 17.748556
70.580 17.04108
70.585 16.86459
70.590 16.709568
70.595 16.338459
70.600 16.152122
70.605 15.414804
70.610 15.247341
70.615 15.660451
70.620 16.248104
70.625 16.72543
70.630 16.886848
70.635 16.667925
70.640 16.797678
70.645 17.098198
70.650 17.75478
70.655 17.97514
70.660 17.499601
70.665 17.40093
70.670 17.703075
70.675 17.587046
70.680 17.10388
70.685 16.423912
70.690 16.210554
70.695 16.447973
70.700 16.439194
70.705 16.884197
70.710 17.201246
70.715 17.374857
70.720 17.605324
70.725 17.204227
70.730 17.564859
70.735 17.488924
70.740 16.944784
70.745 16.500549
70.750 16.068323
70.755 16.187334
70.760 15.821424
70.765 16.038807
70.770 16.660854
70.775 16.932793
70.780 16.885681
70.785 16.572283
70.790 16.172729
70.795 16.45817
70.800 16.034943
70.805 15.434608
70.810 15.473934
70.815 16.136627
70.820 16.601341
70.825 16.188423
70.830 16.006489
70.835 15.805574
70.840 15.695915
70.845 15.662973
70.850 16.182821
70.855 16.588915
70.860 17.283543
70.865 17.758917
70.870 17.832354
70.875 17.858688
70.880 17.551525
70.885 16.88632
70.890 16.683489
70.895 16.155331
70.900 15.937372
70.905 16.254618
70.910 16.665541
70.915 16.684946
70.920 16.682295
70.925 17.158125
70.930 17.21582
70.935 16.966772
70.940 16.45643
70.945 16.477663
70.950 16.504414
70.955 15.723257
70.960 15.345469
70.965 15.577022
70.970 15.672631
70.975 15.917908
70.980 15.744768
70.985 15.924036
70.990 16.128164
70.995 16.247536
71.000 16.352226
71.005 16.615303
71.010 16.433811
71.015 16.954308
71.020 17.096336
71.025 16.556648
71.030 16.434038
71.035 16.441378
71.040 16.486872
71.045 16.883085
71.050 16.763575
71.055 17.631008
71.060 18.388172
71.065 18.400454
71.070 18.106621
71.075 17.961027
71.080 17.412373
71.085 17.38813
71.090 16.964331
71.095 17.457172
71.100 17.469069
71.105 17.462172
71.110 17.321453
71.115 17.203058
71.120 16.963858
71.125 16.808069
71.130 16.961761
71.135 17.321581
71.140 17.129454
71.145 17.196014
71.150 17.11425
71.155 16.866899
71.160 15.56581
71.165 14.36173
71.170 14.179054
71.175 14.315518
71.180 14.349275
71.185 14.30437
71.190 14.556612
71.195 15.292792
71.200 16.101545
71.205 16.28998
71.210 16.5347
71.215 16.79089
71.220 16.928082
71.225 17.099104
71.230 17.551147
71.235 16.908653
71.240 16.573778
71.245 16.698975
71.250 16.86615
71.255 17.367043
71.260 17.80159
71.265 18.152342
71.270 18.17021
71.275 17.92466
71.280 17.626451
71.285 17.506514
71.290 17.016954
71.295 16.653423
71.300 15.620024
71.305 15.363202
71.310 15.452658
71.315 15.56366
71.320 15.529387
71.325 15.565305
71.330 16.55147
71.335 17.392244
71.340 18.18045
71.345 18.342941
71.350 18.026716
71.355 18.030499
71.360 17.699448
71.365 16.741665
71.370 16.489664
71.375 16.038912
71.380 15.66248
71.385 15.6919
71.390 15.915112
71.395 16.100193
71.400 16.23134
71.405 15.988698
71.410 16.202045
71.415 16.338711
71.420 16.389334
71.425 16.216105
71.430 16.517223
71.435 16.503559
71.440 16.188728
71.445 16.435123
71.450 16.648945
71.455 16.714342
71.460 16.280659
71.465 16.002987
71.470 16.887875
71.475 17.590986
71.480 17.305761
71.485 17.1007
71.490 17.19742
71.495 17.416582
71.500 17.164936
71.505 16.88798
71.510 17.042339
71.515 17.408476
71.520 17.872421
71.525 17.852875
71.530 18.13257
71.535 18.541685
71.540 18.256508
71.545 17.851892
71.550 17.324432
71.555 16.9508
71.560 16.483164
71.565 16.106886
71.570 15.811674
71.575 16.245783
71.580 16.582088
71.585 16.375204
71.590 15.992195
71.595 16.25824
71.600 16.472624
71.605 17.134457
71.610 16.901749
71.615 16.770285
71.620 17.749733
71.625 18.571354
71.630 18.449623
71.635 18.532175
71.640 17.809399
71.645 18.153307
71.650 18.525932
71.655 18.028954
71.660 17.666513
71.665 17.694839
71.670 17.067413
71.675 16.955683
71.680 16.610846
71.685 16.134562
71.690 16.219603
71.695 16.199293
71.700 15.883805
71.705 16.529842
71.710 15.905238
71.715 15.510472
71.720 15.459115
71.725 15.564724
71.730 15.405404
71.735 15.652407
71.740 15.47944
71.745 15.514629
71.750 15.623337
71.755 15.720849
71.760 16.125364
71.765 16.418556
71.770 16.34704
71.775 16.651646
71.780 16.826469
71.785 17.24984
71.790 16.903284
71.795 16.682714
71.800 16.746687
71.805 16.679657
71.810 16.763094
71.815 17.171238
71.820 17.384764
71.825 17.52492
71.830 17.263338
71.835 16.948561
71.840 16.81517
71.845 16.837807
71.850 16.190172
71.855 16.145731
71.860 16.006676
71.865 16.068195
71.870 15.824117
71.875 16.142508
71.880 15.854377
71.885 15.900053
71.890 15.705356
71.895 15.674759
71.900 15.954557
71.905 16.387518
71.910 16.720001
71.915 16.434067
71.920 16.262207
71.925 16.230251
71.930 15.816366
71.935 15.459465
71.940 14.993159
71.945 15.051888
71.950 15.70258
71.955 16.205763
71.960 16.171391
71.965 16.019526
71.970 16.09479
71.975 16.291311
71.980 16.185305
71.985 16.276899
71.990 15.842477
71.995 16.366945
72.000 16.678133
72.005 16.46349
72.010 16.821514
72.015 16.858265
72.020 17.468784
72.025 17.407537
72.030 17.196142
72.035 17.259743
72.040 17.418943
72.045 16.794844
72.050 16.384634
72.055 15.57048
72.060 15.694586
72.065 15.493399
72.070 15.273245
72.075 15.226068
72.080 15.684957
72.085 15.352512
72.090 15.53942
72.095 15.71722
72.100 16.331322
72.105 16.293781
72.110 15.940362
72.115 15.692033
72.120 16.665482
72.125 17.046848
72.130 17.401764
72.135 17.463383
72.140 17.120926
72.145 17.040531
72.150 16.837469
72.155 16.406034
72.160 16.290663
72.165 16.304874
72.170 16.450144
72.175 16.826155
72.180 16.993153
72.185 16.594891
72.190 16.454584
72.195 16.637445
72.200 16.65221
72.205 16.650196
72.210 16.928087
72.215 16.883793
72.220 17.355633
72.225 17.233763
72.230 16.819017
72.235 16.614227
72.240 16.738705
72.245 16.720472
72.250 16.718832
72.255 16.4086
72.260 16.201817
72.265 16.047298
72.270 15.624036
72.275 15.484552
72.280 15.585073
72.285 15.976045
72.290 16.043411
72.295 16.178905
72.300 16.422226
72.305 16.619164
72.310 16.242716
72.315 16.468287
72.320 16.334517
72.325 16.380959
72.330 16.184401
72.335 16.128511
72.340 16.538525
72.345 16.695528
72.350 16.486345
72.355 16.288315
72.360 16.240667
72.365 16.706024
72.370 16.392683
72.375 16.3951
72.380 16.787748
72.385 16.691191
72.390 17.153772
72.395 16.723696
72.400 16.074892
72.405 16.24666
72.410 16.290056
72.415 16.101994
72.420 15.697034
72.425 15.519083
72.430 16.195591
72.435 16.895638
72.440 16.546446
72.445 15.815809
72.450 15.57876
72.455 16.3218
72.460 16.421452
72.465 16.364386
72.470 16.270962
72.475 16.246321
72.480 17.344826
72.485 17.224249
72.490 16.658468
72.495 16.318607
72.500 15.761559
72.505 15.942873
72.510 16.475155
72.515 16.207809
72.520 16.484613
72.525 17.199177
72.530 17.672625
72.535 17.853796
72.540 17.693594
72.545 17.967545
72.550 18.009552
72.555 17.413504
72.560 16.762535
72.565 16.433363
72.570 16.34774
72.575 15.841305
72.580 15.338647
72.585 15.584876
72.590 16.007559
72.595 15.728838
72.600 16.033314
72.605 16.131863
72.610 15.923493
72.615 15.700471
72.620 15.920709
72.625 16.286882
72.630 16.63423
72.635 16.517359
72.640 16.313669
72.645 16.040905
72.650 16.032511
72.655 15.586387
72.660 15.415386
72.665 15.507432
72.670 15.553105
72.675 15.92758
72.680 15.999912
72.685 15.709213
72.690 15.803989
72.695 15.466671
72.700 15.15061
72.705 15.299212
72.710 15.422014
72.715 15.598145
72.720 15.884579
72.725 16.198677
72.730 16.413321
72.735 16.36775
72.740 16.066057
72.745 15.934361
72.750 15.721605
72.755 15.473958
72.760 15.426309
72.765 15.241912
72.770 15.333598
72.775 15.546859
72.780 15.67652
72.785 16.417841
72.790 17.109451
72.795 17.326117
72.800 18.221769
72.805 17.664637
72.810 17.302891
72.815 17.237848
72.820 16.502665
72.825 15.860683
72.830 15.400043
72.835 15.206649
72.840 15.65996
72.845 15.808946
72.850 16.160919
72.855 16.27317
72.860 16.244902
72.865 16.133924
72.870 16.419863
72.875 16.323889
72.880 16.351082
72.885 16.09581
72.890 15.763277
72.895 15.664958
72.900 15.538264
72.905 15.349209
72.910 15.583474
72.915 15.671202
72.920 15.764112
72.925 15.366686
72.930 15.912752
72.935 15.888243
72.940 15.631218
72.945 15.598903
72.950 15.510129
72.955 15.90939
72.960 16.132669
72.965 15.937948
72.970 16.084763
72.975 16.043589
72.980 16.334318
72.985 16.150511
72.990 16.139076
72.995 16.601313
73.000 16.399656
