!@!!GADDS PLOTSO FILE: Chi integration type
!@!!Title/SampleName: map-3f
!@!!Comment: ?
!@!!User: Bruker Instrument Administrator
!@!!Site: University of Illinois Chicago
!@!!Frame: map-3f_01_000.gfrm
!@!!Wavelengths    1.54184   1.54056   1.54439
!@!!Frame angles: 2Theta: 63.000 Omega: 50.000 Phi: 0.000 Chi: 90.000
!@!!Integration range: 2Theta: 53.000 to 73.000  Gamma: -105.000 to -75.000
!@!!Integration method: bin normalized
!@!N
!@!SS
!@!M
!@!L 0.0 0.0 0.0 0.0
!@!XDegrees
!@!YCounts
53.000 8.482962
53.005 8.484949
53.010 8.341369
53.015 7.886756
53.020 7.986869
53.025 7.878589
53.030 8.029992
53.035 8.472523
53.040 8.794165
53.045 8.475276
53.050 8.468894
53.055 8.256495
53.060 8.256721
53.065 7.979889
53.070 7.440354
53.075 7.429296
53.080 7.571503
53.085 7.825225
53.090 8.155956
53.095 8.24124
53.100 8.463248
53.105 8.811508
53.110 9.119307
53.115 9.557634
53.120 9.626246
53.125 9.716789
53.130 9.525893
53.135 9.451507
53.140 9.283673
53.145 9.008609
53.150 8.556482
53.155 8.286399
53.160 7.841008
53.165 7.805108
53.170 7.689074
53.175 7.540575
53.180 7.780945
53.185 7.641764
53.190 7.443377
53.195 7.521076
53.200 7.531924
53.205 7.763164
53.210 7.872306
53.215 7.518852
53.220 8.081532
53.225 8.557139
53.230 8.647684
53.235 8.703252
53.240 8.554704
53.245 8.382007
53.250 7.981692
53.255 7.716704
53.260 8.155426
53.265 8.614429
53.270 8.788922
53.275 8.867196
53.280 8.970081
53.285 9.728224
53.290 9.807063
53.295 9.424112
53.300 9.252741
53.305 9.136387
53.310 9.081418
53.315 9.266837
53.320 9.261189
53.325 9.41027
53.330 9.756149
53.335 10.094466
53.340 10.091289
53.345 10.086409
53.350 10.051089
53.355 10.046817
53.360 9.956913
53.365 9.658464
53.370 9.552926
53.375 9.732229
53.380 9.663227
53.385 9.079342
53.390 8.506106
53.395 8.162167
53.400 8.009921
53.405 8.184945
53.410 8.598514
53.415 8.840673
53.420 8.997369
53.425 9.14024
53.430 8.943421
53.435 8.608525
53.440 8.321148
53.445 8.169476
53.450 8.258456
53.455 8.641224
53.460 8.347878
53.465 8.468711
53.470 8.759946
53.475 8.77628
53.480 8.478154
53.485 8.417937
53.490 8.353739
53.495 8.503019
53.500 8.467705
53.505 8.215534
53.510 7.908967
53.515 8.03048
53.520 7.618731
53.525 7.596572
53.530 7.731915
53.535 7.581964
53.540 7.9247
53.545 8.263139
53.550 8.392765
53.555 8.690201
53.560 8.764921
53.565 9.076928
53.570 9.144992
53.575 9.084067
53.580 9.082231
53.585 9.12543
53.590 9.176653
53.595 8.953393
53.600 9.019711
53.605 8.814926
53.610 8.797492
53.615 8.848975
53.620 8.765985
53.625 8.942485
53.630 8.859489
53.635 9.103864
53.640 9.2648
53.645 9.007123
53.650 8.709786
53.655 8.857552
53.660 8.95155
53.665 9.18382
53.670 9.273186
53.675 9.568213
53.680 9.586069
53.685 9.841774
53.690 9.844771
53.695 10.196154
53.700 10.002741
53.705 9.93926
53.710 10.150037
53.715 10.42857
53.720 10.35436
53.725 9.738493
53.730 9.21143
53.735 9.527628
53.740 9.044259
53.745 8.675881
53.750 8.45645
53.755 8.333129
53.760 9.078378
53.765 9.539586
53.770 9.71525
53.775 9.912001
53.780 9.555409
53.785 9.714625
53.790 9.944446
53.795 9.836535
53.800 9.355553
53.805 9.3525
53.810 9.608583
53.815 9.814786
53.820 9.622692
53.825 9.174603
53.830 9.03246
53.835 8.918342
53.840 8.895526
53.845 8.90989
53.850 8.877447
53.855 8.798297
53.860 9.137805
53.865 9.354269
53.870 9.340597
53.875 8.558737
53.880 9.185159
53.885 9.598444
53.890 9.912795
53.895 9.813639
53.900 9.54141
53.905 9.896077
53.910 10.270492
53.915 9.773414
53.920 9.040223
53.925 8.429773
53.930 8.047319
53.935 7.75339
53.940 7.848229
53.945 7.616121
53.950 8.02903
53.955 8.85704
53.960 9.177122
53.965 9.574281
53.970 10.2814
53.975 9.999263
53.980 9.864511
53.985 9.377126
53.990 8.900142
53.995 9.25079
54.000 9.301236
54.005 8.671358
54.010 9.314739
54.015 9.693237
54.020 9.742499
54.025 9.623788
54.030 9.025826
54.035 8.881692
54.040 9.252213
54.045 8.90522
54.050 8.980796
54.055 9.361575
54.060 9.712612
54.065 10.00127
54.070 9.955171
54.075 9.860416
54.080 10.468361
54.085 10.469019
54.090 10.630508
54.095 10.954489
54.100 11.347515
54.105 11.693688
54.110 11.659408
54.115 11.277362
54.120 11.23364
54.125 11.080362
54.130 11.098467
54.135 11.101946
54.140 10.671064
54.145 10.208376
54.150 9.891231
54.155 9.761051
54.160 9.296269
54.165 8.765869
54.170 8.663062
54.175 8.350786
54.180 8.659906
54.185 8.753729
54.190 9.093495
54.195 9.353148
54.200 9.672238
54.205 9.548185
54.210 10.134644
54.215 10.320302
54.220 10.277548
54.225 10.296001
54.230 10.206615
54.235 10.291368
54.240 10.626924
54.245 10.388798
54.250 10.029766
54.255 10.040734
54.260 10.464585
54.265 10.621883
54.270 10.940359
54.275 10.553772
54.280 10.609436
54.285 11.002303
54.290 11.005098
54.295 10.557733
54.300 10.447145
54.305 10.438862
54.310 10.782008
54.315 10.490293
54.320 10.229606
54.325 10.358015
54.330 10.454474
54.335 10.269223
54.340 9.997759
54.345 10.493082
54.350 11.152575
54.355 11.048041
54.360 10.992796
54.365 11.025547
54.370 10.715781
54.375 10.386575
54.380 9.469379
54.385 9.118817
54.390 9.464454
54.395 9.323233
54.400 9.459842
54.405 9.977646
54.410 10.126947
54.415 10.474506
54.420 10.162143
54.425 9.640391
54.430 9.344954
54.435 8.740378
54.440 8.255746
54.445 8.409534
54.450 8.19183
54.455 8.393089
54.460 8.876623
54.465 9.058192
54.470 9.514885
54.475 10.051878
54.480 10.449319
54.485 11.103979
54.490 11.089253
54.495 11.106614
54.500 10.953217
54.505 10.961765
54.510 10.651354
54.515 10.212132
54.520 10.041968
54.525 9.834066
54.530 10.284008
54.535 10.437867
54.540 10.254237
54.545 9.999726
54.550 9.716444
54.555 9.768578
54.560 10.097235
54.565 9.729838
54.570 9.849669
54.575 9.853092
54.580 10.029927
54.585 10.294055
54.590 10.200902
54.595 9.878551
54.600 9.929119
54.605 10.12927
54.610 10.179705
54.615 10.331416
54.620 10.473851
54.625 10.550831
54.630 10.726948
54.635 10.766219
54.640 10.549012
54.645 10.590819
54.650 10.471328
54.655 10.361943
54.660 9.844818
54.665 9.155386
54.670 8.949154
54.675 8.698966
54.680 8.067292
54.685 8.019947
54.690 8.032599
54.695 8.502367
54.700 9.172467
54.705 9.307619
54.710 9.933756
54.715 10.810788
54.720 11.132756
54.725 11.145712
54.730 11.33721
54.735 11.289103
54.740 11.237568
54.745 10.811988
54.750 10.250709
54.755 10.266215
54.760 10.222464
54.765 10.217382
54.770 10.236315
54.775 9.937785
54.780 10.404893
54.785 10.817846
54.790 10.93385
54.795 10.639515
54.800 10.701405
54.805 10.858009
54.810 11.018859
54.815 10.497311
54.820 10.093316
54.825 10.271181
54.830 10.359736
54.835 10.21382
54.840 10.131387
54.845 10.342716
54.850 11.05012
54.855 11.022264
54.860 10.774066
54.865 10.941041
54.870 11.240036
54.875 11.391851
54.880 10.78001
54.885 10.458462
54.890 10.668199
54.895 10.760357
54.900 10.322808
54.905 9.882929
54.910 9.565368
54.915 9.764596
54.920 10.013202
54.925 9.707044
54.930 9.697652
54.935 9.878567
54.940 10.04374
54.945 10.647295
54.950 10.972746
54.955 10.646001
54.960 10.75472
54.965 10.810413
54.970 10.987935
54.975 11.108685
54.980 10.378193
54.985 10.413535
54.990 10.567687
54.995 10.994939
55.000 11.264041
55.005 11.296067
55.010 10.799344
55.015 11.021812
55.020 11.143313
55.025 10.863028
55.030 10.335435
55.035 9.728935
55.040 9.797951
55.045 10.239162
55.050 10.21848
55.055 9.986876
55.060 10.547235
55.065 10.230403
55.070 10.265492
55.075 10.325776
55.080 10.508162
55.085 10.784137
55.090 10.533058
55.095 10.477271
55.100 11.414566
55.105 11.479348
55.110 11.92178
55.115 11.886005
55.120 11.654712
55.125 11.538044
55.130 11.770509
55.135 11.830299
55.140 11.744195
55.145 11.00806
55.150 11.016468
55.155 11.03603
55.160 11.20038
55.165 10.749418
55.170 10.774397
55.175 11.380165
55.180 11.57626
55.185 11.65223
55.190 12.131906
55.195 12.181578
55.200 11.883864
55.205 11.339092
55.210 11.075345
55.215 11.028072
55.220 11.317275
55.225 11.478974
55.230 12.074387
55.235 12.421478
55.240 12.929403
55.245 13.106817
55.250 12.993729
55.255 12.421646
55.260 11.782462
55.265 11.416762
55.270 11.579169
55.275 11.207006
55.280 11.027902
55.285 11.103062
55.290 10.80119
55.295 10.572677
55.300 10.157379
55.305 9.74764
55.310 9.682092
55.315 9.847797
55.320 9.99256
55.325 10.06534
55.330 10.206266
55.335 10.11409
55.340 10.420295
55.345 10.526642
55.350 10.14045
55.355 10.347013
55.360 10.828022
55.365 11.222796
55.370 11.234107
55.375 11.118522
55.380 11.089584
55.385 10.944854
55.390 10.235122
55.395 9.996322
55.400 9.572419
55.405 9.895515
55.410 10.246924
55.415 10.353242
55.420 10.206697
55.425 10.442399
55.430 10.492196
55.435 10.740443
55.440 10.243463
55.445 10.003606
55.450 10.040684
55.455 10.353127
55.460 10.13774
55.465 10.065922
55.470 10.169377
55.475 10.410716
55.480 10.486183
55.485 10.449821
55.490 10.519082
55.495 10.644728
55.500 10.718814
55.505 10.995745
55.510 10.873621
55.515 10.626728
55.520 10.667974
55.525 10.579835
55.530 10.084699
55.535 10.378681
55.540 10.176383
55.545 10.189321
55.550 10.582202
55.555 10.693571
55.560 10.885411
55.565 10.949124
55.570 10.367415
55.575 10.225495
55.580 10.253225
55.585 10.508673
55.590 10.575399
55.595 10.481589
55.600 10.794361
55.605 10.882372
55.610 10.87813
55.615 10.633513
55.620 10.099192
55.625 9.991681
55.630 10.666372
55.635 10.863624
55.640 11.211262
55.645 11.800724
55.650 12.215919
55.655 12.544752
55.660 12.996762
55.665 12.835702
55.670 12.770113
55.675 12.617424
55.680 12.147755
55.685 11.921916
55.690 12.258821
55.695 11.879764
55.700 11.996959
55.705 11.970807
55.710 11.846612
55.715 12.23424
55.720 12.680204
55.725 12.378003
55.730 11.90667
55.735 11.707805
55.740 12.423706
55.745 12.876713
55.750 12.459198
55.755 11.767283
55.760 11.697038
55.765 12.04788
55.770 11.929457
55.775 11.607431
55.780 11.341235
55.785 11.074219
55.790 11.010781
55.795 10.966267
55.800 11.215674
55.805 11.52795
55.810 11.486659
55.815 12.097453
55.820 12.87468
55.825 13.386633
55.830 13.492329
55.835 13.403038
55.840 13.01518
55.845 12.37479
55.850 12.09701
55.855 12.029737
55.860 11.99174
55.865 11.754265
55.870 11.10139
55.875 10.985135
55.880 11.204027
55.885 10.762329
55.890 10.47724
55.895 10.466269
55.900 10.772326
55.905 10.808313
55.910 10.888429
55.915 10.574707
55.920 10.822203
55.925 10.730826
55.930 11.076733
55.935 11.329469
55.940 11.521579
55.945 11.828823
55.950 12.373045
55.955 12.658745
55.960 12.333441
55.965 12.244424
55.970 12.360182
55.975 11.998393
55.980 12.223626
55.985 12.440704
55.990 12.347332
55.995 12.500206
56.000 12.192264
56.005 12.22426
56.010 12.089756
56.015 11.230007
56.020 10.827366
56.025 10.513035
56.030 10.75303
56.035 10.689141
56.040 10.388923
56.045 10.468928
56.050 11.210422
56.055 12.044323
56.060 12.077934
56.065 12.072613
56.070 12.262521
56.075 12.939258
56.080 13.199937
56.085 12.518309
56.090 12.063475
56.095 12.13304
56.100 11.998732
56.105 11.941709
56.110 11.723125
56.115 12.052413
56.120 12.424248
56.125 12.59275
56.130 12.863431
56.135 13.554865
56.140 14.101581
56.145 14.277864
56.150 13.906613
56.155 13.592768
56.160 13.680946
56.165 13.639793
56.170 12.538836
56.175 11.944673
56.180 11.82628
56.185 11.982979
56.190 12.477061
56.195 12.538547
56.200 13.08179
56.205 13.555381
56.210 14.242495
56.215 15.009321
56.220 14.845613
56.225 14.512766
56.230 14.003246
56.235 13.670506
56.240 13.674597
56.245 13.085649
56.250 12.350511
56.255 12.448974
56.260 12.804645
56.265 12.780876
56.270 12.714602
56.275 12.512119
56.280 12.247181
56.285 11.844393
56.290 11.71046
56.295 11.632729
56.300 12.014026
56.305 11.876219
56.310 12.074795
56.315 12.14505
56.320 12.672421
56.325 12.512327
56.330 12.298116
56.335 12.034698
56.340 11.847643
56.345 11.996381
56.350 12.35448
56.355 12.019713
56.360 11.799682
56.365 11.639274
56.370 11.589216
56.375 11.69108
56.380 11.667906
56.385 11.848315
56.390 11.72746
56.395 11.961382
56.400 12.193476
56.405 12.449814
56.410 12.442402
56.415 12.237805
56.420 12.6058
56.425 13.15093
56.430 13.304644
56.435 13.052632
56.440 13.005587
56.445 13.388193
56.450 13.243361
56.455 12.837652
56.460 12.795558
56.465 12.288412
56.470 12.075005
56.475 11.869466
56.480 11.445715
56.485 11.655856
56.490 11.664786
56.495 12.065289
56.500 12.694356
56.505 12.643247
56.510 13.193991
56.515 13.2084
56.520 13.481746
56.525 13.665314
56.530 13.15035
56.535 12.868705
56.540 12.952436
56.545 12.755359
56.550 12.327714
56.555 11.808734
56.560 11.721564
56.565 11.992817
56.570 12.593344
56.575 12.709348
56.580 12.775075
56.585 13.425447
56.590 13.620115
56.595 13.639628
56.600 13.949781
56.605 13.81303
56.610 13.865772
56.615 13.781901
56.620 13.82815
56.625 13.800943
56.630 13.534889
56.635 12.647097
56.640 12.065868
56.645 12.161904
56.650 11.634551
56.655 11.134212
56.660 10.52024
56.665 11.078457
56.670 11.395992
56.675 11.592072
56.680 11.608666
56.685 12.164679
56.690 12.445973
56.695 12.480462
56.700 12.351542
56.705 12.552051
56.710 12.869512
56.715 12.984923
56.720 13.157332
56.725 13.846005
56.730 13.93534
56.735 14.05368
56.740 14.191957
56.745 14.19168
56.750 14.168807
56.755 13.573242
56.760 12.816223
56.765 12.78965
56.770 12.843418
56.775 13.122053
56.780 13.274875
56.785 13.463494
56.790 13.856911
56.795 14.423675
56.800 14.081811
56.805 13.74337
56.810 13.729841
56.815 13.470958
56.820 13.646641
56.825 13.549106
56.830 13.087692
56.835 13.142753
56.840 13.213948
56.845 12.505254
56.850 11.984015
56.855 11.403967
56.860 11.326519
56.865 12.204529
56.870 12.978523
56.875 13.072146
56.880 13.640292
56.885 13.679639
56.890 13.938416
56.895 14.202766
56.900 14.141192
56.905 13.828051
56.910 13.893632
56.915 14.238084
56.920 14.052121
56.925 14.463061
56.930 14.453856
56.935 14.511738
56.940 14.426386
56.945 14.21968
56.950 14.328306
56.955 14.640952
56.960 14.164083
56.965 13.632225
56.970 12.909003
56.975 12.914624
56.980 12.843011
56.985 12.611288
56.990 12.272736
56.995 12.530506
57.000 12.564306
57.005 12.988839
57.010 13.260775
57.015 13.482855
57.020 13.575331
57.025 13.575726
57.030 13.315838
57.035 13.581717
57.040 13.885135
57.045 13.767605
57.050 13.659457
57.055 14.131743
57.060 14.609738
57.065 14.843861
57.070 14.283559
57.075 13.708097
57.080 13.879366
57.085 13.669567
57.090 13.191238
57.095 12.927547
57.100 12.773198
57.105 13.092738
57.110 13.080704
57.115 12.48486
57.120 12.582013
57.125 12.551919
57.130 12.69069
57.135 12.792594
57.140 12.189203
57.145 11.963491
57.150 11.996514
57.155 11.754541
57.160 11.667099
57.165 11.717086
57.170 11.951167
57.175 12.101856
57.180 12.644885
57.185 12.902941
57.190 12.998483
57.195 13.127192
57.200 13.234633
57.205 13.255296
57.210 13.742227
57.215 13.384709
57.220 13.353457
57.225 13.379872
57.230 13.433185
57.235 13.281306
57.240 12.916035
57.245 12.400332
57.250 12.694693
57.255 12.781699
57.260 12.968492
57.265 13.071353
57.270 13.345448
57.275 13.44928
57.280 13.779248
57.285 13.305099
57.290 13.260654
57.295 12.96087
57.300 12.822323
57.305 12.59937
57.310 12.831507
57.315 12.662362
57.320 12.889764
57.325 13.299293
57.330 13.41766
57.335 13.139059
57.340 13.099848
57.345 13.122683
57.350 13.632771
57.355 13.300678
57.360 13.370773
57.365 13.42687
57.370 13.975679
57.375 13.998899
57.380 14.107364
57.385 14.270717
57.390 14.839051
57.395 15.257914
57.400 15.045937
57.405 14.483104
57.410 14.597087
57.415 14.508555
57.420 14.485942
57.425 14.198177
57.430 13.876926
57.435 14.091382
57.440 14.533932
57.445 14.027107
57.450 13.640267
57.455 14.11656
57.460 13.709271
57.465 13.394057
57.470 12.924932
57.475 12.517012
57.480 13.055182
57.485 13.016788
57.490 12.529631
57.495 13.107493
57.500 13.216055
57.505 13.66178
57.510 13.661354
57.515 13.251316
57.520 13.253007
57.525 13.13231
57.530 12.6988
57.535 13.010384
57.540 13.054895
57.545 12.957446
57.550 13.157701
57.555 13.496512
57.560 13.904196
57.565 14.407026
57.570 14.456262
57.575 14.390009
57.580 14.656194
57.585 15.057712
57.590 15.746574
57.595 16.179855
57.600 16.441401
57.605 16.144869
57.610 16.343864
57.615 16.255997
57.620 16.0683
57.625 15.780932
57.630 15.742515
57.635 15.576045
57.640 15.759829
57.645 15.643359
57.650 15.83828
57.655 15.874613
57.660 15.172029
57.665 14.33787
57.670 14.127419
57.675 14.20922
57.680 13.774768
57.685 13.405
57.690 13.531189
57.695 14.338264
57.700 14.494126
57.705 14.371454
57.710 14.260039
57.715 14.776958
57.720 14.699355
57.725 14.58025
57.730 14.210164
57.735 14.347136
57.740 14.084032
57.745 14.054231
57.750 13.820647
57.755 14.007418
57.760 13.927222
57.765 13.655243
57.770 13.344332
57.775 13.842424
57.780 14.517642
57.785 15.231277
57.790 15.594637
57.795 15.496981
57.800 15.043594
57.805 15.478851
57.810 15.132166
57.815 14.599415
57.820 14.079339
57.825 13.518169
57.830 13.724164
57.835 14.480478
57.840 14.660707
57.845 14.576745
57.850 14.447032
57.855 14.770958
57.860 14.95592
57.865 14.258063
57.870 13.486026
57.875 13.611054
57.880 13.773787
57.885 13.598964
57.890 13.195242
57.895 13.477674
57.900 13.811457
57.905 14.048978
57.910 13.68572
57.915 13.236217
57.920 13.630565
57.925 13.882589
57.930 13.467815
57.935 13.812372
57.940 13.384608
57.945 13.433517
57.950 13.710613
57.955 13.348725
57.960 13.280704
57.965 13.475375
57.970 13.159959
57.975 13.524899
57.980 13.436481
57.985 13.933859
57.990 14.239804
57.995 14.230369
58.000 14.56106
58.005 15.005018
58.010 15.254646
58.015 15.279624
58.020 15.060367
58.025 15.283863
58.030 15.736894
58.035 15.557971
58.040 15.635652
58.045 15.685953
58.050 16.000134
58.055 16.012749
58.060 15.446713
58.065 14.746145
58.070 14.914141
58.075 15.004482
58.080 14.991728
58.085 14.793956
58.090 14.582109
58.095 14.901918
58.100 15.280268
58.105 15.073336
58.110 14.597107
58.115 14.087974
58.120 13.915128
58.125 13.786034
58.130 13.399207
58.135 13.263402
58.140 13.223244
58.145 13.815596
58.150 14.11469
58.155 14.581467
58.160 15.082403
58.165 15.270013
58.170 15.783027
58.175 16.207914
58.180 15.949237
58.185 15.845017
58.190 15.508553
58.195 15.445391
58.200 15.038602
58.205 14.211651
58.210 13.60426
58.215 13.084573
58.220 13.335839
58.225 13.496769
58.230 13.474418
58.235 14.240475
58.240 14.543785
58.245 14.66645
58.250 14.845218
58.255 14.913486
58.260 14.820347
58.265 14.955163
58.270 13.993998
58.275 13.882488
58.280 14.467929
58.285 14.842763
58.290 14.488017
58.295 14.577113
58.300 14.555817
58.305 15.194505
58.310 15.389538
58.315 15.036675
58.320 15.120627
58.325 15.424303
58.330 15.021661
58.335 15.115459
58.340 14.973263
58.345 15.096251
58.350 15.668324
58.355 15.622439
58.360 15.521883
58.365 15.514054
58.370 15.377314
58.375 15.415645
58.380 15.08877
58.385 14.052552
58.390 13.477122
58.395 13.52244
58.400 13.725148
58.405 13.912949
58.410 14.081446
58.415 13.874626
58.420 13.965056
58.425 14.454733
58.430 14.536469
58.435 14.509371
58.440 14.414684
58.445 14.085451
58.450 13.957022
58.455 14.666511
58.460 14.640418
58.465 14.724525
58.470 14.929747
58.475 15.151774
58.480 15.645944
58.485 16.408463
58.490 16.105391
58.495 15.948811
58.500 15.787969
58.505 15.649509
58.510 15.772447
58.515 15.533702
58.520 15.413138
58.525 15.451458
58.530 15.302905
58.535 15.010184
58.540 14.969242
58.545 14.745084
58.550 14.67129
58.555 14.326414
58.560 14.421828
58.565 14.765827
58.570 14.831789
58.575 14.589389
58.580 14.018773
58.585 13.918303
58.590 14.24354
58.595 14.136601
58.600 14.230612
58.605 14.039178
58.610 14.31248
58.615 14.6252
58.620 14.40103
58.625 14.356412
58.630 14.308244
58.635 13.928722
58.640 14.736158
58.645 15.005604
58.650 14.952183
58.655 15.440661
58.660 15.381151
58.665 15.777399
58.670 15.810226
58.675 15.076478
58.680 14.88007
58.685 14.805486
58.690 15.024303
58.695 15.895449
58.700 15.747686
58.705 16.469671
58.710 16.710016
58.715 16.5786
58.720 17.010355
58.725 16.491882
58.730 15.438222
58.735 14.57509
58.740 14.267583
58.745 14.243556
58.750 14.455359
58.755 14.083302
58.760 14.178898
58.765 14.524646
58.770 14.580513
58.775 14.479321
58.780 14.647818
58.785 14.583316
58.790 14.297628
58.795 14.768167
58.800 15.59004
58.805 16.101248
58.810 16.221439
58.815 15.905654
58.820 16.177542
58.825 16.726484
58.830 15.860355
58.835 14.532003
58.840 14.467776
58.845 14.223343
58.850 14.419412
58.855 14.001355
58.860 13.937531
58.865 14.190113
58.870 14.922636
58.875 15.168693
58.880 14.820251
58.885 14.696123
58.890 14.963227
58.895 14.891697
58.900 14.837303
58.905 14.013489
58.910 14.043221
58.915 14.714221
58.920 14.45501
58.925 14.368206
58.930 14.788844
58.935 14.949555
58.940 15.892237
58.945 15.787977
58.950 15.471443
58.955 15.910599
58.960 15.990214
58.965 15.552739
58.970 15.780142
58.975 15.501181
58.980 15.61296
58.985 15.668638
58.990 15.527685
58.995 15.332746
59.000 15.767132
59.005 15.893403
59.010 15.860843
59.015 15.417141
59.020 15.65793
59.025 16.213802
59.030 16.428886
59.035 16.523556
59.040 16.561571
59.045 16.691156
59.050 17.140036
59.055 17.081957
59.060 16.587282
59.065 16.189583
59.070 15.986696
59.075 15.687848
59.080 15.63148
59.085 15.455362
59.090 14.735537
59.095 14.789041
59.100 14.887903
59.105 14.578182
59.110 14.726337
59.115 15.082319
59.120 15.070999
59.125 15.9439
59.130 16.119537
59.135 16.518488
59.140 17.263573
59.145 17.468216
59.150 17.266495
59.155 16.970131
59.160 16.572914
59.165 16.686085
59.170 16.221888
59.175 15.782701
59.180 15.373216
59.185 15.391981
59.190 15.032554
59.195 14.858006
59.200 14.524594
59.205 14.107375
59.210 13.687901
59.215 13.533038
59.220 13.169216
59.225 13.776541
59.230 14.123629
59.235 14.126583
59.240 14.532505
59.245 15.21645
59.250 15.75891
59.255 16.068266
59.260 16.705475
59.265 16.85685
59.270 17.013895
59.275 16.922455
59.280 16.410028
59.285 16.038139
59.290 15.708082
59.295 14.782902
59.300 14.750137
59.305 14.82
59.310 14.812544
59.315 14.996078
59.320 14.850021
59.325 15.075056
59.330 15.547786
59.335 16.275612
59.340 16.513727
59.345 16.757017
59.350 16.465113
59.355 17.16453
59.360 17.296307
59.365 16.903126
59.370 16.176853
59.375 16.038158
59.380 16.181696
59.385 16.748526
59.390 17.124538
59.395 16.452236
59.400 16.806498
59.405 16.957422
59.410 16.956675
59.415 16.205244
59.420 15.953735
59.425 15.465199
59.430 16.002573
59.435 16.114412
59.440 16.171005
59.445 16.392595
59.450 16.435118
59.455 16.396557
59.460 17.280127
59.465 17.175404
59.470 16.35981
59.475 16.236584
59.480 16.333664
59.485 16.613031
59.490 16.841503
59.495 16.557919
59.500 16.923796
59.505 17.266277
59.510 17.493452
59.515 17.621925
59.520 17.403658
59.525 17.143728
59.530 17.08045
59.535 17.334618
59.540 17.424393
59.545 17.569067
59.550 17.420118
59.555 17.969774
59.560 18.413855
59.565 18.239908
59.570 17.65863
59.575 17.211735
59.580 16.727783
59.585 17.178736
59.590 16.950777
59.595 16.485392
59.600 16.434067
59.605 16.934797
59.610 17.33243
59.615 17.371494
59.620 17.547377
59.625 17.850595
59.630 18.326866
59.635 18.145636
59.640 18.306587
59.645 18.415369
59.650 18.780979
59.655 18.622223
59.660 18.332432
59.665 18.628851
59.670 18.851196
59.675 18.817017
59.680 18.615686
59.685 18.493597
59.690 17.789684
59.695 18.022886
59.700 17.938629
59.705 17.947857
59.710 18.268358
59.715 18.422007
59.720 18.532537
59.725 18.561035
59.730 18.314224
59.735 18.031914
59.740 17.678869
59.745 18.014669
59.750 18.331587
59.755 18.681444
59.760 19.588213
59.765 19.593559
59.770 19.578024
59.775 19.837656
59.780 19.329947
59.785 19.323803
59.790 18.964275
59.795 18.537703
59.800 18.776588
59.805 19.199413
59.810 19.113417
59.815 19.103712
59.820 19.015163
59.825 18.683142
59.830 18.352827
59.835 18.341091
59.840 18.296068
59.845 18.806618
59.850 18.528513
59.855 18.178667
59.860 18.854593
59.865 19.191002
59.870 19.024603
59.875 18.739296
59.880 18.27841
59.885 18.178978
59.890 18.772528
59.895 18.542652
59.900 19.218615
59.905 19.596851
59.910 20.239563
59.915 20.135132
59.920 20.050186
59.925 20.310921
59.930 20.161512
59.935 20.278814
59.940 19.938917
59.945 19.583963
59.950 20.06608
59.955 20.398584
59.960 19.990049
59.965 19.901995
59.970 19.578524
59.975 19.446947
59.980 19.914511
59.985 20.151873
59.990 20.264418
59.995 20.214701
60.000 20.234114
60.005 20.753845
60.010 21.188131
60.015 21.107704
60.020 21.14467
60.025 21.12463
60.030 22.100941
60.035 21.966927
60.040 21.539387
60.045 21.952135
60.050 22.234461
60.055 22.000156
60.060 22.022306
60.065 21.599005
60.070 22.032455
60.075 22.074221
60.080 21.633821
60.085 21.65555
60.090 21.133457
60.095 20.922567
60.100 20.774303
60.105 20.58568
60.110 20.918945
60.115 21.206989
60.120 21.369802
60.125 21.934584
60.130 21.791573
60.135 21.906399
60.140 22.144917
60.145 21.724564
60.150 21.198927
60.155 21.095875
60.160 21.163956
60.165 21.249872
60.170 21.171162
60.175 21.310015
60.180 21.54245
60.185 21.806381
60.190 21.758869
60.195 22.391983
60.200 22.770409
60.205 23.331419
60.210 23.195036
60.215 23.147438
60.220 22.93651
60.225 23.16415
60.230 22.553858
60.235 22.078154
60.240 21.477678
60.245 21.377739
60.250 21.039093
60.255 21.124538
60.260 20.416092
60.265 20.533758
60.270 20.556646
60.275 21.071936
60.280 20.806772
60.285 21.108393
60.290 20.813366
60.295 21.5529
60.300 21.484266
60.305 21.386766
60.310 20.902861
60.315 21.048744
60.320 21.275267
60.325 21.542362
60.330 21.637066
60.335 22.015493
60.340 22.298534
60.345 22.34482
60.350 22.099838
60.355 22.004503
60.360 21.57443
60.365 20.743984
60.370 20.27013
60.375 20.31671
60.380 20.584248
60.385 20.65521
60.390 21.004862
60.395 21.593935
60.400 21.964046
60.405 22.365816
60.410 22.208349
60.415 22.213184
60.420 22.251162
60.425 22.10338
60.430 21.822428
60.435 20.958166
60.440 20.170403
60.445 19.723217
60.450 19.65621
60.455 20.004124
60.460 20.151131
60.465 20.083954
60.470 21.080797
60.475 22.473871
60.480 22.73831
60.485 22.636217
60.490 21.829691
60.495 21.549009
60.500 21.970154
60.505 21.618328
60.510 21.119802
60.515 20.935009
60.520 20.5368
60.525 21.197618
60.530 21.396795
60.535 21.532412
60.540 21.834414
60.545 21.440178
60.550 21.430212
60.555 21.865257
60.560 21.579105
60.565 20.771034
60.570 19.788694
60.575 19.461222
60.580 19.797176
60.585 20.095425
60.590 19.25828
60.595 19.339409
60.600 20.127569
60.605 20.663099
60.610 20.6537
60.615 20.392292
60.620 20.21969
60.625 20.884817
60.630 20.522966
60.635 19.78101
60.640 19.649605
60.645 19.664278
60.650 19.577328
60.655 19.466501
60.660 19.15053
60.665 19.632401
60.670 20.326962
60.675 20.419024
60.680 20.190554
60.685 20.205914
60.690 19.843327
60.695 19.841377
60.700 19.163742
60.705 19.042576
60.710 18.712662
60.715 18.493816
60.720 18.773411
60.725 19.650093
60.730 19.889647
60.735 19.951555
60.740 19.567554
60.745 18.992069
60.750 18.678783
60.755 18.5851
60.760 18.081871
60.765 18.055925
60.770 17.878571
60.775 17.547173
60.780 18.313395
60.785 18.442442
60.790 18.058279
60.795 17.711359
60.800 17.439861
60.805 17.891132
60.810 18.470736
60.815 18.38131
60.820 18.505468
60.825 19.193932
60.830 19.562035
60.835 19.737679
60.840 19.519152
60.845 19.336664
60.850 19.568527
60.855 19.758881
60.860 19.8927
60.865 19.694077
60.870 20.017288
60.875 20.083559
60.880 19.417385
60.885 18.732176
60.890 18.069214
60.895 17.954636
60.900 18.246597
60.905 17.469324
60.910 17.169333
60.915 17.839197
60.920 17.895462
60.925 17.841225
60.930 17.340548
60.935 16.826195
60.940 17.138958
60.945 17.146036
60.950 17.259989
60.955 17.116945
60.960 17.10375
60.965 17.470911
60.970 17.872522
60.975 17.750021
60.980 17.658018
60.985 17.50271
60.990 17.267309
60.995 17.402651
61.000 17.827124
61.005 17.296154
61.010 17.203688
61.015 16.935972
61.020 16.726105
61.025 16.720045
61.030 16.122564
61.035 15.274486
61.040 15.463763
61.045 15.808579
61.050 16.074234
61.055 16.025091
61.060 16.410213
61.065 16.51631
61.070 17.004578
61.075 17.46102
61.080 17.338303
61.085 17.635473
61.090 17.676687
61.095 17.630028
61.100 18.084196
61.105 18.231903
61.110 18.001633
61.115 18.148375
61.120 18.105707
61.125 18.296173
61.130 18.055521
61.135 17.44825
61.140 17.093451
61.145 16.84539
61.150 16.725077
61.155 16.538536
61.160 16.465128
61.165 16.562754
61.170 16.234972
61.175 16.137375
61.180 16.526487
61.185 16.787762
61.190 17.002504
61.195 17.590759
61.200 18.364765
61.205 19.296089
61.210 19.572128
61.215 19.16923
61.220 19.183159
61.225 19.42141
61.230 19.424036
61.235 18.615908
61.240 18.418425
61.245 18.41209
61.250 18.915503
61.255 18.552574
61.260 18.081938
61.265 18.073837
61.270 17.849926
61.275 17.858559
61.280 17.913317
61.285 17.513168
61.290 17.525227
61.295 17.459204
61.300 17.027588
61.305 17.221836
61.310 16.934008
61.315 16.55298
61.320 16.281448
61.325 15.7008
61.330 15.301341
61.335 15.401372
61.340 15.086934
61.345 15.048528
61.350 15.43859
61.355 15.891783
61.360 16.744881
61.365 16.861414
61.370 16.608118
61.375 16.750881
61.380 16.724619
61.385 16.396898
61.390 16.55143
61.395 16.133688
61.400 15.927464
61.405 15.73018
61.410 15.8671
61.415 15.920154
61.420 15.782516
61.425 15.756732
61.430 16.382233
61.435 16.989784
61.440 17.254534
61.445 17.441959
61.450 17.64056
61.455 17.840288
61.460 17.384033
61.465 16.932234
61.470 16.39279
61.475 16.374468
61.480 16.274906
61.485 16.457047
61.490 16.277702
61.495 16.097614
61.500 15.694453
61.505 15.414908
61.510 14.989296
61.515 15.181121
61.520 14.879275
61.525 14.87641
61.530 15.120987
61.535 15.581983
61.540 16.648758
61.545 17.357424
61.550 17.025364
61.555 16.810532
61.560 16.936489
61.565 16.911337
61.570 16.889122
61.575 16.43144
61.580 16.02244
61.585 16.011995
61.590 15.932393
61.595 15.682927
61.600 15.875869
61.605 15.805025
61.610 15.703342
61.615 16.001322
61.620 16.465706
61.625 16.59524
61.630 16.650406
61.635 16.624794
61.640 16.621693
61.645 17.424755
61.650 17.779886
61.655 17.552322
61.660 17.616196
61.665 17.839973
61.670 17.646299
61.675 17.880627
61.680 16.792126
61.685 16.753839
61.690 16.812462
61.695 16.692667
61.700 16.286484
61.705 16.70524
61.710 16.944414
61.715 17.363537
61.720 16.741062
61.725 16.472324
61.730 16.710148
61.735 16.837967
61.740 16.338949
61.745 15.496025
61.750 14.771509
61.755 15.229838
61.760 15.721229
61.765 15.971313
61.770 16.012934
61.775 16.285202
61.780 16.576487
61.785 17.256792
61.790 17.34477
61.795 17.200403
61.800 16.868313
61.805 16.540659
61.810 16.359072
61.815 16.552275
61.820 16.211475
61.825 16.450138
61.830 16.706558
61.835 16.852703
61.840 17.347485
61.845 17.477041
61.850 17.952394
61.855 18.210817
61.860 18.093239
61.865 18.548977
61.870 19.431156
61.875 19.632597
61.880 20.186737
61.885 20.787571
61.890 21.3493
61.895 21.802252
61.900 21.04215
61.905 20.400763
61.910 19.755096
61.915 18.720293
61.920 17.662308
61.925 17.254349
61.930 16.230206
61.935 16.089893
61.940 15.957606
61.945 16.276682
61.950 16.109455
61.955 15.942256
61.960 15.334462
61.965 14.97909
61.970 15.357651
61.975 15.850204
61.980 16.055588
61.985 16.226593
61.990 15.928603
61.995 15.871531
62.000 16.091461
62.005 15.735825
62.010 14.98569
62.015 14.93259
62.020 14.832386
62.025 15.294113
62.030 15.395581
62.035 15.359974
62.040 15.674697
62.045 16.311792
62.050 16.455605
62.055 16.587856
62.060 16.874933
62.065 16.938461
62.070 17.349955
62.075 17.563021
62.080 17.356924
62.085 17.759724
62.090 17.927811
62.095 17.486355
62.100 17.388453
62.105 16.965582
62.110 16.370424
62.115 16.126785
62.120 15.771044
62.125 15.722701
62.130 16.068895
62.135 16.605473
62.140 16.127306
62.145 15.806329
62.150 15.913126
62.155 15.694049
62.160 15.627098
62.165 15.437511
62.170 15.342354
62.175 16.381516
62.180 17.192686
62.185 17.203325
62.190 17.664082
62.195 17.750946
62.200 17.814764
62.205 17.27916
62.210 17.297619
62.215 17.373308
62.220 17.591787
62.225 17.19902
62.230 16.790308
62.235 16.820982
62.240 17.129656
62.245 16.394012
62.250 16.074717
62.255 16.044352
62.260 16.496483
62.265 16.777201
62.270 16.836588
62.275 16.650063
62.280 17.359224
62.285 17.5294
62.290 16.997908
62.295 16.782007
62.300 16.475454
62.305 16.540274
62.310 16.767853
62.315 15.974477
62.320 15.735731
62.325 16.194538
62.330 16.549538
62.335 16.451729
62.340 16.885645
62.345 17.467562
62.350 17.653378
62.355 17.776222
62.360 17.343081
62.365 17.445534
62.370 17.694298
62.375 17.311535
62.380 16.662066
62.385 16.511835
62.390 16.462629
62.395 16.246235
62.400 16.267939
62.405 16.087811
62.410 15.96962
62.415 15.961262
62.420 16.015787
62.425 16.069546
62.430 16.207319
62.435 15.992663
62.440 15.99017
62.445 15.635871
62.450 16.252327
62.455 16.487759
62.460 16.748617
62.465 17.337425
62.470 17.573746
62.475 17.832752
62.480 18.257225
62.485 17.811853
62.490 17.497988
62.495 17.287001
62.500 16.216225
62.505 15.472531
62.510 15.117098
62.515 15.348732
62.520 16.289764
62.525 16.812971
62.530 16.645393
62.535 17.580692
62.540 18.164801
62.545 18.50704
62.550 17.560001
62.555 16.504271
62.560 16.417675
62.565 16.458017
62.570 16.028658
62.575 16.072979
62.580 16.199051
62.585 16.325495
62.590 15.952167
62.595 15.514254
62.600 15.577356
62.605 15.285951
62.610 14.993321
62.615 15.039091
62.620 15.200693
62.625 15.724888
62.630 16.16984
62.635 16.223145
62.640 16.318495
62.645 16.754169
62.650 16.931208
62.655 16.817585
62.660 16.471203
62.665 16.426601
62.670 16.550003
62.675 16.752302
62.680 16.492178
62.685 16.130726
62.690 16.211374
62.695 16.358166
62.700 15.9842
62.705 16.006071
62.710 15.944174
62.715 15.719332
62.720 16.238321
62.725 16.367146
62.730 16.343096
62.735 16.504263
62.740 17.05703
62.745 17.69075
62.750 17.558456
62.755 17.160021
62.760 17.084942
62.765 17.102589
62.770 17.263933
62.775 16.332504
62.780 15.522424
62.785 15.544415
62.790 15.687831
62.795 15.80787
62.800 15.188618
62.805 14.604349
62.810 14.902523
62.815 15.488629
62.820 16.057831
62.825 15.977285
62.830 15.957726
62.835 16.555946
62.840 16.65756
62.845 16.777239
62.850 16.894711
62.855 16.725092
62.860 17.068583
62.865 17.512228
62.870 17.762814
62.875 18.100662
62.880 17.84252
62.885 17.591087
62.890 17.608381
62.895 17.920778
62.900 17.839783
62.905 17.743109
62.910 18.120619
62.915 18.675785
62.920 18.527308
62.925 18.222452
62.930 17.572901
62.935 17.259937
62.940 16.928288
62.945 16.888073
62.950 16.36731
62.955 16.542484
62.960 16.50008
62.965 16.533571
62.970 16.808805
62.975 16.99262
62.980 16.796844
62.985 16.628853
62.990 16.774664
62.995 17.390249
63.000 17.356485
63.005 17.446531
63.010 17.463524
63.015 16.991329
63.020 17.182035
63.025 17.071886
63.030 16.751844
63.035 17.195211
63.040 17.190462
63.045 16.972128
63.050 17.053087
63.055 16.919916
63.060 16.756794
63.065 16.847483
63.070 17.071857
63.075 17.21422
63.080 17.395256
63.085 17.603153
63.090 18.162521
63.095 17.834925
63.100 17.963631
63.105 17.621969
63.110 17.117977
63.115 17.292532
63.120 17.839561
63.125 17.682045
63.130 17.832489
63.135 17.388847
63.140 17.627417
63.145 17.798672
63.150 17.388599
63.155 17.109776
63.160 17.213181
63.165 17.124643
63.170 17.293863
63.175 17.452991
63.180 17.858225
63.185 18.195919
63.190 17.865311
63.195 17.303051
63.200 17.098761
63.205 16.86413
63.210 16.794189
63.215 17.286501
63.220 17.330786
63.225 16.848957
63.230 17.256393
63.235 17.521397
63.240 17.662573
63.245 17.394186
63.250 16.9888
63.255 17.240082
63.260 17.663258
63.265 17.601179
63.270 17.811144
63.275 17.981094
63.280 17.803051
63.285 17.6521
63.290 17.282602
63.295 17.380663
63.300 17.588327
63.305 17.691719
63.310 17.87394
63.315 18.367975
63.320 18.498383
63.325 18.562342
63.330 18.211811
63.335 17.795713
63.340 17.012802
63.345 16.537966
63.350 16.450899
63.355 16.246607
63.360 16.889566
63.365 17.185442
63.370 17.949745
63.375 18.416843
63.380 18.34383
63.385 18.169861
63.390 17.863098
63.395 17.615103
63.400 17.807249
63.405 17.320627
63.410 16.9643
63.415 17.426109
63.420 17.69515
63.425 17.698822
63.430 17.809977
63.435 17.607071
63.440 17.906193
63.445 18.724041
63.450 18.430555
63.455 18.099981
63.460 18.963198
63.465 18.916283
63.470 19.150068
63.475 18.710073
63.480 18.049448
63.485 18.312769
63.490 17.895224
63.495 16.97514
63.500 17.366222
63.505 17.252764
63.510 16.976767
63.515 17.365705
63.520 16.76556
63.525 16.506653
63.530 16.502335
63.535 16.336227
63.540 16.618729
63.545 16.908895
63.550 16.690825
63.555 17.195902
63.560 17.335684
63.565 17.439423
63.570 16.772419
63.575 16.289095
63.580 15.998077
63.585 16.26963
63.590 16.784803
63.595 17.332409
63.600 17.526188
63.605 17.855646
63.610 17.973948
63.615 18.364975
63.620 18.214205
63.625 18.233278
63.630 18.178797
63.635 18.598143
63.640 18.748793
63.645 18.952652
63.650 18.724609
63.655 18.498541
63.660 18.122757
63.665 18.07667
63.670 17.788912
63.675 18.387697
63.680 18.794191
63.685 19.054939
63.690 19.310511
63.695 19.100819
63.700 19.098694
63.705 19.196711
63.710 18.681143
63.715 19.050911
63.720 18.892805
63.725 18.729126
63.730 18.565508
63.735 17.932974
63.740 17.538933
63.745 16.731915
63.750 15.538514
63.755 15.214771
63.760 15.069283
63.765 15.639228
63.770 16.37443
63.775 16.588137
63.780 16.965244
63.785 17.081411
63.790 18.012407
63.795 18.521082
63.800 18.462868
63.805 17.889385
63.810 17.122778
63.815 16.908617
63.820 16.756445
63.825 16.048147
63.830 15.54112
63.835 15.932013
63.840 15.887321
63.845 16.657295
63.850 17.304075
63.855 17.392195
63.860 17.068811
63.865 16.640682
63.870 16.620483
63.875 17.405405
63.880 17.066853
63.885 16.37594
63.890 16.692492
63.895 16.90457
63.900 16.834915
63.905 16.521294
63.910 15.997445
63.915 15.97273
63.920 16.400902
63.925 16.381615
63.930 16.661104
63.935 17.17351
63.940 16.757113
63.945 16.787178
63.950 17.174639
63.955 17.421791
63.960 17.189814
63.965 17.334978
63.970 17.510567
63.975 18.132095
63.980 18.292875
63.985 18.27066
63.990 17.721962
63.995 18.115356
64.000 18.297522
64.005 18.132805
64.010 18.551058
64.015 18.900433
64.020 18.98097
64.025 19.493675
64.030 19.018629
64.035 18.725256
64.040 18.61824
64.045 17.68996
64.050 17.335522
64.055 17.124662
64.060 17.226522
64.065 17.347015
64.070 16.796492
64.075 16.724066
64.080 16.731318
64.085 16.626348
64.090 16.769867
64.095 17.045954
64.100 17.361094
64.105 18.098267
64.110 18.109188
64.115 17.972517
64.120 17.987022
64.125 17.199148
64.130 16.678305
64.135 16.220646
64.140 16.058712
64.145 16.894787
64.150 17.417482
64.155 17.542465
64.160 18.148584
64.165 18.749903
64.170 19.19006
64.175 18.97608
64.180 18.738634
64.185 18.476065
64.190 18.554226
64.195 18.467899
64.200 17.645555
64.205 17.336323
64.210 17.420284
64.215 17.177158
64.220 16.974684
64.225 16.92197
64.230 17.492065
64.235 17.69449
64.240 17.693314
64.245 17.590054
64.250 17.428797
64.255 17.302282
64.260 17.418358
64.265 16.916897
64.270 16.960058
64.275 16.97382
64.280 17.192045
64.285 17.223799
64.290 17.456066
64.295 17.709463
64.300 17.954597
64.305 18.08102
64.310 18.529783
64.315 18.475077
64.320 18.410202
64.325 18.509655
64.330 18.204859
64.335 17.727631
64.340 17.625086
64.345 17.267014
64.350 17.137632
64.355 17.767811
64.360 17.891321
64.365 18.186398
64.370 18.555775
64.375 18.387457
64.380 18.335075
64.385 18.063213
64.390 17.619869
64.395 17.66361
64.400 17.907614
64.405 18.425566
64.410 18.998363
64.415 19.364172
64.420 19.993435
64.425 20.597309
64.430 20.432178
64.435 19.95857
64.440 19.425528
64.445 19.364338
64.450 18.887606
64.455 18.483931
64.460 18.203796
64.465 18.007519
64.470 17.758606
64.475 18.113195
64.480 17.989321
64.485 18.028999
64.490 18.071037
64.495 18.384289
64.500 19.473072
64.505 20.030657
64.510 20.091738
64.515 20.460224
64.520 20.834156
64.525 21.124611
64.530 20.718643
64.535 20.567778
64.540 20.536695
64.545 20.630301
64.550 20.595139
64.555 20.870054
64.560 20.674749
64.565 20.819683
64.570 20.382402
64.575 20.763048
64.580 20.543453
64.585 20.721634
64.590 20.465267
64.595 20.629747
64.600 20.63279
64.605 20.076561
64.610 19.53797
64.615 19.596687
64.620 18.994417
64.625 18.609562
64.630 18.591957
64.635 19.157257
64.640 20.284878
64.645 20.51156
64.650 19.909597
64.655 19.863068
64.660 20.114586
64.665 19.93433
64.670 19.234243
64.675 18.206718
64.680 17.795897
64.685 18.31271
64.690 18.575884
64.695 18.442247
64.700 18.104275
64.705 18.390902
64.710 18.607929
64.715 19.031227
64.720 19.23595
64.725 19.658634
64.730 19.861294
64.735 20.332006
64.740 20.726599
64.745 20.881517
64.750 20.255867
64.755 19.163538
64.760 19.083767
64.765 19.021973
64.770 18.731514
64.775 18.497873
64.780 18.973753
64.785 19.71866
64.790 20.603487
64.795 20.753891
64.800 20.653366
64.805 20.7213
64.810 20.69993
64.815 20.940895
64.820 20.315956
64.825 19.883968
64.830 19.161116
64.835 19.306366
64.840 19.600292
64.845 19.3421
64.850 18.908072
64.855 18.984619
64.860 19.16609
64.865 19.646236
64.870 19.903402
64.875 19.279749
64.880 19.503851
64.885 19.719727
64.890 19.573761
64.895 20.016832
64.900 20.099009
64.905 19.859436
64.910 19.843014
64.915 19.148413
64.920 19.209263
64.925 19.882193
64.930 19.766729
64.935 19.764364
64.940 20.272175
64.945 20.004456
64.950 20.868418
64.955 21.038963
64.960 20.298948
64.965 19.953852
64.970 19.976183
64.975 20.302891
64.980 20.800514
64.985 21.004498
64.990 20.993792
64.995 22.147989
65.000 22.710733
65.005 22.202913
65.010 21.866741
65.015 21.873722
65.020 22.396744
65.025 22.625317
65.030 21.611792
65.035 21.109837
65.040 21.952541
65.045 22.509888
65.050 21.951935
65.055 20.964207
65.060 20.382366
65.065 20.864403
65.070 21.524288
65.075 21.06847
65.080 20.788284
65.085 21.093016
65.090 21.289444
65.095 21.624897
65.100 21.398787
65.105 21.070509
65.110 21.240393
65.115 21.557827
65.120 21.104362
65.125 20.468006
65.130 20.712399
65.135 20.763317
65.140 20.663576
65.145 20.785202
65.150 20.639181
65.155 21.109903
65.160 21.531265
65.165 22.044012
65.170 22.405231
65.175 22.379295
65.180 22.436085
65.185 22.524939
65.190 22.921644
65.195 23.512276
65.200 22.575716
65.205 22.32196
65.210 22.545626
65.215 22.660706
65.220 22.842001
65.225 22.636961
65.230 22.543476
65.235 22.498451
65.240 22.953489
65.245 22.777195
65.250 22.326633
65.255 22.135864
65.260 22.306683
65.265 22.169456
65.270 23.106794
65.275 23.292713
65.280 23.576227
65.285 23.80818
65.290 23.384958
65.295 22.744215
65.300 22.249746
65.305 21.425276
65.310 21.08861
65.315 21.115696
65.320 21.547043
65.325 21.918276
65.330 22.426636
65.335 22.945311
65.340 22.72657
65.345 22.52128
65.350 22.257013
65.355 21.564974
65.360 21.944115
65.365 22.247911
65.370 22.836494
65.375 23.517124
65.380 23.665077
65.385 23.67618
65.390 23.792553
65.395 23.669809
65.400 23.406845
65.405 22.450525
65.410 21.825115
65.415 21.669647
65.420 21.933746
65.425 22.408976
65.430 22.313227
65.435 22.3661
65.440 23.209738
65.445 24.034098
65.450 24.13809
65.455 24.358305
65.460 24.445696
65.465 24.53339
65.470 24.681654
65.475 24.293659
65.480 23.925655
65.485 24.601706
65.490 24.830259
65.495 25.255331
65.500 26.019617
65.505 26.424067
65.510 27.134293
65.515 26.891335
65.520 25.564663
65.525 25.104578
65.530 24.568445
65.535 23.898083
65.540 24.044962
65.545 24.641594
65.550 25.538378
65.555 27.137949
65.560 27.68194
65.565 28.373386
65.570 29.023916
65.575 28.898563
65.580 28.688477
65.585 28.638353
65.590 27.970499
65.595 28.43475
65.600 28.674313
65.605 28.512579
65.610 28.41081
65.615 28.710674
65.620 28.978405
65.625 30.239971
65.630 30.117222
65.635 29.378593
65.640 29.436447
65.645 29.761843
65.650 30.307339
65.655 30.907417
65.660 30.407688
65.665 30.682482
65.670 31.883028
65.675 32.739315
65.680 33.481667
65.685 33.358593
65.690 32.749702
65.695 33.114117
65.700 33.261364
65.705 32.330383
65.710 32.355412
65.715 32.432056
65.720 32.624504
65.725 33.400917
65.730 33.677269
65.735 33.736279
65.740 34.292377
65.745 34.450241
65.750 34.440586
65.755 34.302074
65.760 34.752708
65.765 34.811962
65.770 34.829403
65.775 34.943031
65.780 34.620724
65.785 35.305737
65.790 35.258484
65.795 35.122711
65.800 35.63562
65.805 36.303276
65.810 36.782093
65.815 36.691868
65.820 35.903683
65.825 36.233234
65.830 36.514015
65.835 36.273968
65.840 36.549614
65.845 35.775234
65.850 35.628231
65.855 36.561443
65.860 36.849503
65.865 36.645081
65.870 36.630283
65.875 36.731709
65.880 37.846481
65.885 38.528324
65.890 38.920578
65.895 38.816299
65.900 38.646656
65.905 38.059059
65.910 37.67627
65.915 36.884979
65.920 36.498356
65.925 35.590797
65.930 35.509266
65.935 35.614754
65.940 36.330746
65.945 36.000164
65.950 35.899193
65.955 36.351246
65.960 36.778015
65.965 36.854763
65.970 36.907463
65.975 36.821503
65.980 37.682247
65.985 37.885555
65.990 38.197941
65.995 38.500553
66.000 38.832211
66.005 38.719418
66.010 38.643734
66.015 38.343159
66.020 38.285511
66.025 37.809807
66.030 38.329975
66.035 38.943253
66.040 39.047802
66.045 39.281162
66.050 39.379066
66.055 40.020645
66.060 40.631054
66.065 39.976437
66.070 39.516518
66.075 39.389336
66.080 39.852398
66.085 40.419888
66.090 40.279167
66.095 39.890022
66.100 39.378063
66.105 38.170448
66.110 37.274014
66.115 35.578777
66.120 34.90863
66.125 34.087738
66.130 34.412071
66.135 35.072918
66.140 35.919422
66.145 36.352642
66.150 37.134182
66.155 36.960598
66.160 37.309498
66.165 36.886635
66.170 36.934101
66.175 37.126278
66.180 36.766426
66.185 36.341671
66.190 36.877277
66.195 36.792858
66.200 36.237602
66.205 35.527821
66.210 34.923927
66.215 35.090687
66.220 34.522079
66.225 34.058289
66.230 34.279949
66.235 34.695827
66.240 34.641293
66.245 34.626972
66.250 34.720783
66.255 34.49715
66.260 33.89085
66.265 33.287464
66.270 32.796242
66.275 32.539055
66.280 32.870388
66.285 33.442211
66.290 33.636173
66.295 33.470356
66.300 33.21291
66.305 32.519592
66.310 32.921665
66.315 33.14822
66.320 32.172329
66.325 32.274429
66.330 32.300121
66.335 32.495907
66.340 32.408661
66.345 31.955164
66.350 31.491899
66.355 31.508339
66.360 31.356247
66.365 31.156202
66.370 30.795074
66.375 30.569962
66.380 30.011038
66.385 29.551296
66.390 29.822517
66.395 29.645176
66.400 30.092621
66.405 30.28624
66.410 30.44309
66.415 30.90365
66.420 31.35251
66.425 31.18112
66.430 31.068649
66.435 30.343592
66.440 29.822145
66.445 29.670973
66.450 28.993433
66.455 28.621628
66.460 28.982674
66.465 29.287298
66.470 29.71137
66.475 30.025822
66.480 30.042578
66.485 29.868185
66.490 29.633381
66.495 29.282911
66.500 28.069738
66.505 27.493238
66.510 27.75112
66.515 26.824554
66.520 26.386738
66.525 26.641933
66.530 26.405869
66.535 27.030346
66.540 27.230095
66.545 26.740465
66.550 26.927631
66.555 27.692339
66.560 27.390728
66.565 27.506516
66.570 27.488905
66.575 26.983236
66.580 27.408916
66.585 27.85429
66.590 27.760468
66.595 27.629744
66.600 27.70326
66.605 27.652622
66.610 27.890896
66.615 27.851233
66.620 27.442034
66.625 26.868086
66.630 26.455263
66.635 26.080214
66.640 26.22187
66.645 26.390821
66.650 26.353094
66.655 26.784554
66.660 26.157303
66.665 25.81003
66.670 25.809795
66.675 25.948887
66.680 26.301228
66.685 25.921179
66.690 25.769825
66.695 26.530235
66.700 27.395817
66.705 27.342058
66.710 26.732399
66.715 26.09823
66.720 25.485027
66.725 24.642097
66.730 24.424559
66.735 23.833019
66.740 23.84709
66.745 23.950529
66.750 23.989471
66.755 24.609268
66.760 24.681988
66.765 24.619171
66.770 25.144152
66.775 24.739193
66.780 24.462366
66.785 24.389036
66.790 23.603918
66.795 23.20525
66.800 22.581003
66.805 22.52705
66.810 22.963379
66.815 23.246161
66.820 22.711119
66.825 24.095419
66.830 24.342535
66.835 24.359076
66.840 23.121466
66.845 22.540279
66.850 22.258684
66.855 22.426613
66.860 21.640549
66.865 22.735912
66.870 23.115782
66.875 23.432354
66.880 23.334846
66.885 23.701887
66.890 23.44788
66.895 22.860865
66.900 22.579912
66.905 22.768675
66.910 22.722326
66.915 23.150492
66.920 22.882959
66.925 23.191853
66.930 22.993212
66.935 22.131941
66.940 22.423149
66.945 22.419821
66.950 22.49966
66.955 22.821472
66.960 22.724976
66.965 23.237946
66.970 23.61866
66.975 23.156246
66.980 23.218647
66.985 22.695309
66.990 22.469099
66.995 23.266724
67.000 23.184111
67.005 22.902443
67.010 23.325861
67.015 23.132557
67.020 23.0707
67.025 22.90732
67.030 22.58906
67.035 22.88773
67.040 23.096245
67.045 23.160675
67.050 23.422779
67.055 23.859339
67.060 23.583805
67.065 22.762106
67.070 22.529585
67.075 22.705135
67.080 22.809776
67.085 22.82062
67.090 22.738373
67.095 22.771595
67.100 23.48209
67.105 23.417894
67.110 22.912088
67.115 22.614918
67.120 22.338724
67.125 22.06118
67.130 21.998089
67.135 22.019127
67.140 22.178667
67.145 22.910196
67.150 23.122
67.155 23.271736
67.160 23.491095
67.165 23.351397
67.170 23.360415
67.175 23.250788
67.180 22.740892
67.185 23.174397
67.190 23.515757
67.195 23.364523
67.200 22.905096
67.205 22.379826
67.210 22.346699
67.215 22.176014
67.220 21.810183
67.225 22.314198
67.230 22.6106
67.235 23.222641
67.240 23.216448
67.245 23.496546
67.250 24.050356
67.255 23.646877
67.260 23.397163
67.265 23.059464
67.270 23.050007
67.275 23.520388
67.280 23.544374
67.285 23.179136
67.290 23.215029
67.295 22.260836
67.300 22.25351
67.305 21.923841
67.310 21.623198
67.315 20.8218
67.320 20.525347
67.325 20.314903
67.330 20.462128
67.335 20.412334
67.340 20.230059
67.345 19.948626
67.350 20.520998
67.355 20.449408
67.360 20.515436
67.365 20.914049
67.370 20.816685
67.375 21.51931
67.380 22.157715
67.385 21.74572
67.390 21.211472
67.395 20.905087
67.400 20.409483
67.405 20.438297
67.410 20.062284
67.415 19.936941
67.420 20.461081
67.425 21.391224
67.430 21.817064
67.435 22.585806
67.440 22.972919
67.445 23.237936
67.450 23.315134
67.455 22.763109
67.460 22.544308
67.465 22.142643
67.470 21.40295
67.475 20.85726
67.480 20.186546
67.485 19.655127
67.490 19.904121
67.495 20.251328
67.500 20.747868
67.505 21.802612
67.510 22.184458
67.515 22.176422
67.520 22.707699
67.525 22.389555
67.530 22.347403
67.535 22.092115
67.540 21.835781
67.545 21.785618
67.550 22.557056
67.555 22.417534
67.560 22.53071
67.565 21.932791
67.570 21.620653
67.575 21.207981
67.580 20.67498
67.585 19.795227
67.590 20.01022
67.595 20.105183
67.600 20.357397
67.605 20.448395
67.610 20.628525
67.615 21.027941
67.620 21.552563
67.625 21.234627
67.630 21.287281
67.635 21.665894
67.640 21.594828
67.645 21.597525
67.650 21.461571
67.655 21.47986
67.660 21.775127
67.665 21.602945
67.670 21.266521
67.675 21.211138
67.680 20.918997
67.685 21.110273
67.690 20.611244
67.695 20.312971
67.700 20.511316
67.705 20.912584
67.710 20.76762
67.715 21.362816
67.720 21.515574
67.725 22.382807
67.730 22.671846
67.735 22.628988
67.740 22.016066
67.745 21.838509
67.750 21.550362
67.755 21.047649
67.760 20.027418
67.765 20.304792
67.770 20.946468
67.775 21.627743
67.780 21.943689
67.785 22.28117
67.790 22.93284
67.795 23.379919
67.800 22.757971
67.805 21.942169
67.810 21.893648
67.815 22.359907
67.820 23.310921
67.825 22.934048
67.830 23.333542
67.835 23.437645
67.840 23.988966
67.845 23.755476
67.850 23.286451
67.855 22.763508
67.860 23.215115
67.865 22.510975
67.870 22.573959
67.875 22.168381
67.880 21.987064
67.885 21.166317
67.890 20.394245
67.895 20.233528
67.900 20.650026
67.905 20.607862
67.910 21.13792
67.915 21.505924
67.920 21.904299
67.925 21.797373
67.930 22.183853
67.935 22.308678
67.940 22.369213
67.945 21.579622
67.950 21.937578
67.955 22.266714
67.960 22.232422
67.965 21.877148
67.970 21.452848
67.975 21.669153
67.980 21.871698
67.985 21.19733
67.990 21.195236
67.995 21.278643
68.000 20.900806
68.005 21.083225
68.010 20.444857
68.015 20.787127
68.020 20.808258
68.025 20.646784
68.030 20.625673
68.035 20.265993
68.040 19.969503
68.045 20.049356
68.050 19.629467
68.055 19.660536
68.060 19.666344
68.065 19.962271
68.070 20.741323
68.075 20.834927
68.080 21.385876
68.085 21.681829
68.090 21.823151
68.095 22.086767
68.100 21.94927
68.105 21.456614
68.110 21.276455
68.115 21.073265
68.120 21.573505
68.125 21.843712
68.130 21.846266
68.135 21.579884
68.140 21.516365
68.145 21.428015
68.150 21.646851
68.155 21.18741
68.160 21.149622
68.165 21.482523
68.170 21.65093
68.175 22.207464
68.180 21.753586
68.185 21.171925
68.190 21.128969
68.195 21.219318
68.200 20.928171
68.205 19.95784
68.210 19.396503
68.215 19.501999
68.220 20.129826
68.225 20.241829
68.230 20.110325
68.235 20.615286
68.240 21.811161
68.245 22.019667
68.250 21.692076
68.255 21.120167
68.260 21.694904
68.265 21.347269
68.270 20.916166
68.275 21.066652
68.280 21.818384
68.285 22.894377
68.290 22.954069
68.295 22.425678
68.300 22.842396
68.305 23.325405
68.310 23.183359
68.315 22.984083
68.320 22.873768
68.325 23.25322
68.330 23.154968
68.335 23.195658
68.340 23.172089
68.345 22.649464
68.350 22.284538
68.355 21.734184
68.360 21.446012
68.365 21.183706
68.370 20.667322
68.375 20.187281
68.380 20.553677
68.385 20.506346
68.390 20.847549
68.395 21.093788
68.400 21.555157
68.405 21.840803
68.410 22.056387
68.415 22.297388
68.420 21.966122
68.425 21.670624
68.430 21.846575
68.435 21.653503
68.440 21.463108
68.445 21.450502
68.450 21.031126
68.455 21.106329
68.460 21.15988
68.465 21.045649
68.470 20.897934
68.475 20.787146
68.480 20.576012
68.485 20.949995
68.490 21.961079
68.495 21.97909
68.500 21.399302
68.505 21.627037
68.510 21.605825
68.515 21.643982
68.520 21.643923
68.525 21.171412
68.530 21.551273
68.535 22.306669
68.540 22.284502
68.545 22.608223
68.550 22.757879
68.555 22.614803
68.560 22.934795
68.565 22.14584
68.570 21.73163
68.575 21.492836
68.580 21.529005
68.585 21.626328
68.590 21.039383
68.595 21.558863
68.600 22.213434
68.605 21.914091
68.610 22.961708
68.615 22.410919
68.620 22.062817
68.625 22.132866
68.630 21.371172
68.635 21.025167
68.640 21.213142
68.645 20.970709
68.650 21.233
68.655 21.512167
68.660 21.430971
68.665 21.551153
68.670 22.362589
68.675 21.831905
68.680 21.367981
68.685 21.654768
68.690 22.705318
68.695 22.755304
68.700 22.258863
68.705 21.690754
68.710 21.729786
68.715 21.74894
68.720 21.113749
68.725 20.270258
68.730 20.844872
68.735 21.207848
68.740 21.398945
68.745 21.47716
68.750 21.924236
68.755 22.167349
68.760 21.676201
68.765 21.821054
68.770 22.272532
68.775 22.389862
68.780 22.412777
68.785 22.722736
68.790 22.801567
68.795 23.064323
68.800 22.40666
68.805 21.631283
68.810 22.298668
68.815 22.357172
68.820 22.538584
68.825 22.897114
68.830 23.006054
68.835 23.462065
68.840 23.956367
68.845 23.770351
68.850 23.797035
68.855 23.571941
68.860 23.750799
68.865 23.750038
68.870 23.303087
68.875 22.941179
68.880 22.482971
68.885 21.771839
68.890 21.540234
68.895 21.710535
68.900 22.740618
68.905 23.337378
68.910 23.160385
68.915 23.488184
68.920 23.242418
68.925 23.360909
68.930 23.102676
68.935 21.976564
68.940 22.150726
68.945 22.680008
68.950 22.927691
68.955 23.32761
68.960 23.388638
68.965 23.279762
68.970 23.165943
68.975 22.501989
68.980 21.897478
68.985 22.107885
68.990 22.261105
68.995 21.844336
69.000 21.525167
69.005 22.106174
69.010 22.97566
69.015 23.094742
69.020 22.688349
69.025 23.011101
69.030 23.56596
69.035 23.9673
69.040 23.943727
69.045 23.414907
69.050 23.629578
69.055 24.458912
69.060 24.746769
69.065 24.953976
69.070 24.613274
69.075 24.627508
69.080 25.14583
69.085 25.443964
69.090 25.064472
69.095 24.610998
69.100 24.287292
69.105 24.649935
69.110 24.858381
69.115 24.850306
69.120 24.201687
69.125 23.900396
69.130 24.201643
69.135 24.162661
69.140 24.340738
69.145 23.869583
69.150 23.849792
69.155 23.830853
69.160 24.405771
69.165 24.702345
69.170 25.325378
69.175 25.985893
69.180 26.884863
69.185 27.417583
69.190 27.861685
69.195 27.412146
69.200 26.76005
69.205 26.579384
69.210 26.005831
69.215 25.63637
69.220 25.597429
69.225 25.91736
69.230 26.412964
69.235 26.798674
69.240 26.881153
69.245 27.54307
69.250 27.622438
69.255 27.496849
69.260 27.620129
69.265 27.175304
69.270 27.034883
69.275 27.066311
69.280 26.913464
69.285 26.818665
69.290 26.550354
69.295 26.812658
69.300 27.444437
69.305 27.76169
69.310 27.493946
69.315 26.738707
69.320 26.627901
69.325 26.899387
69.330 27.3055
69.335 26.89683
69.340 26.773312
69.345 27.684818
69.350 28.029726
69.355 28.334345
69.360 28.528339
69.365 28.110758
69.370 28.379416
69.375 28.406822
69.380 27.432148
69.385 27.83946
69.390 27.813459
69.395 27.559593
69.400 28.312836
69.405 28.699646
69.410 28.658026
69.415 28.976824
69.420 28.822889
69.425 29.471369
69.430 30.148222
69.435 29.502922
69.440 29.356615
69.445 29.187279
69.450 28.890306
69.455 28.581852
69.460 27.69961
69.465 26.91717
69.470 27.170126
69.475 26.995354
69.480 27.813623
69.485 28.750954
69.490 29.316078
69.495 29.774014
69.500 29.898043
69.505 30.344646
69.510 30.374357
69.515 29.782358
69.520 28.995831
69.525 28.566324
69.530 28.615128
69.535 28.08296
69.540 27.761141
69.545 28.319021
69.550 28.275488
69.555 27.940384
69.560 27.971676
69.565 27.251059
69.570 27.165974
69.575 26.749479
69.580 27.15086
69.585 28.027388
69.590 27.752293
69.595 27.286125
69.600 27.996506
69.605 28.326178
69.610 28.365271
69.615 28.245302
69.620 28.805635
69.625 29.614204
69.630 29.798141
69.635 29.857767
69.640 29.586432
69.645 29.750517
69.650 28.592113
69.655 27.917303
69.660 27.931927
69.665 27.641279
69.670 27.40276
69.675 27.100012
69.680 26.99395
69.685 27.57424
69.690 27.307594
69.695 26.87273
69.700 26.748007
69.705 26.677103
69.710 26.755342
69.715 26.860508
69.720 26.746761
69.725 27.127972
69.730 27.768242
69.735 28.442375
69.740 28.871658
69.745 28.837543
69.750 28.486156
69.755 27.877081
69.760 27.850964
69.765 26.940207
69.770 26.312138
69.775 26.030788
69.780 26.215235
69.785 26.893476
69.790 26.58502
69.795 26.30718
69.800 26.252991
69.805 25.725109
69.810 25.232458
69.815 25.024778
69.820 24.013863
69.825 24.31513
69.830 24.0422
69.835 24.079163
69.840 23.812746
69.845 24.001711
69.850 23.808607
69.855 24.195957
69.860 24.271484
69.865 24.72423
69.870 25.14435
69.875 25.818645
69.880 25.669706
69.885 26.191851
69.890 25.899065
69.895 24.883097
69.900 24.001862
69.905 23.790497
69.910 22.787569
69.915 22.206562
69.920 21.752562
69.925 21.47674
69.930 21.382166
69.935 21.691069
69.940 21.202505
69.945 21.604265
69.950 21.86727
69.955 21.734632
69.960 22.082155
69.965 22.753866
69.970 22.916323
69.975 23.376783
69.980 23.454126
69.985 23.756186
69.990 24.626362
69.995 24.689758
70.000 24.694328
70.005 23.973948
70.010 23.967766
70.015 24.500628
70.020 24.124441
70.025 23.389614
70.030 23.472368
70.035 23.469313
70.040 23.599783
70.045 22.934975
70.050 22.026531
70.055 21.83045
70.060 21.635563
70.065 21.130016
70.070 20.649258
70.075 20.585781
70.080 20.335411
70.085 20.450031
70.090 20.032181
70.095 20.303411
70.100 19.882557
70.105 20.121035
70.110 20.839745
70.115 21.34008
70.120 21.461857
70.125 21.757956
70.130 21.755478
70.135 21.651035
70.140 22.096581
70.145 22.163929
70.150 21.984335
70.155 22.214844
70.160 22.016426
70.165 22.138859
70.170 22.82638
70.175 21.762457
70.180 21.58798
70.185 21.235664
70.190 20.611717
70.195 20.599827
70.200 20.329248
70.205 20.19516
70.210 19.891552
70.215 19.300037
70.220 19.321501
70.225 19.626093
70.230 19.483925
70.235 19.91803
70.240 19.509581
70.245 19.733936
70.250 20.037083
70.255 19.976433
70.260 20.103737
70.265 19.990517
70.270 19.672867
70.275 20.690182
70.280 20.905603
70.285 20.216408
70.290 20.071486
70.295 20.265284
70.300 20.038317
70.305 20.02092
70.310 19.354172
70.315 19.636513
70.320 20.635534
70.325 20.862785
70.330 20.415398
70.335 20.691267
70.340 21.25
70.345 21.223192
70.350 21.252237
70.355 20.167257
70.360 20.166653
70.365 20.446535
70.370 19.972403
70.375 19.492357
70.380 19.166225
70.385 19.154455
70.390 19.692171
70.395 19.721684
70.400 19.556372
70.405 19.488451
70.410 19.453474
70.415 19.25506
70.420 19.056793
70.425 18.937922
70.430 18.454355
70.435 18.658142
70.440 18.307665
70.445 18.215578
70.450 18.761103
70.455 18.732567
70.460 18.398695
70.465 18.562963
70.470 19.097988
70.475 19.155739
70.480 18.453548
70.485 17.874044
70.490 17.85483
70.495 17.817436
70.500 17.934635
70.505 18.055832
70.510 18.076677
70.515 18.982803
70.520 19.573473
70.525 19.490541
70.530 19.914263
70.535 19.816208
70.540 19.755014
70.545 20.290649
70.550 19.828276
70.555 19.544512
70.560 19.893673
70.565 19.663338
70.570 20.417191
70.575 21.111526
70.580 21.460016
70.585 21.951021
70.590 21.869547
70.595 21.236721
70.600 21.510302
70.605 20.851921
70.610 20.088821
70.615 19.584505
70.620 18.975889
70.625 19.35845
70.630 19.945742
70.635 19.85387
70.640 19.476908
70.645 18.844507
70.650 18.739052
70.655 19.619846
70.660 19.751839
70.665 19.259552
70.670 18.894058
70.675 19.258938
70.680 20.40414
70.685 20.617125
70.690 20.427719
70.695 20.894314
70.700 20.663635
70.705 20.607594
70.710 20.004395
70.715 20.004528
70.720 19.996302
70.725 19.813692
70.730 19.73131
70.735 20.126776
70.740 19.699732
70.745 19.378567
70.750 18.364399
70.755 18.384722
70.760 18.372501
70.765 18.467155
70.770 18.693693
70.775 19.793613
70.780 20.493849
70.785 20.875519
70.790 20.581821
70.795 19.971571
70.800 19.715366
70.805 20.116486
70.810 20.524233
70.815 20.632357
70.820 21.099197
70.825 21.424589
70.830 21.825512
70.835 22.354002
70.840 21.795616
70.845 20.700542
70.850 21.057283
70.855 21.185522
70.860 20.927866
70.865 21.356153
70.870 21.086792
70.875 21.071856
70.880 21.426775
70.885 20.66444
70.890 20.570972
70.895 20.217525
70.900 19.498903
70.905 19.099483
70.910 18.86412
70.915 18.892639
70.920 18.930759
70.925 18.906343
70.930 19.550762
70.935 19.994799
70.940 20.406748
70.945 20.418989
70.950 20.475864
70.955 20.365509
70.960 19.919697
70.965 19.617346
70.970 19.025785
70.975 18.87055
70.980 19.232922
70.985 19.105549
70.990 18.868776
70.995 19.091394
71.000 19.256283
71.005 19.606066
71.010 19.610973
71.015 19.997425
71.020 19.771704
71.025 19.781527
71.030 18.983009
71.035 18.960199
71.040 19.484358
71.045 18.983896
71.050 18.858824
71.055 18.89432
71.060 19.565302
71.065 20.134117
71.070 19.954296
71.075 20.101585
71.080 20.075867
71.085 19.898888
71.090 19.948135
71.095 19.25675
71.100 19.54084
71.105 18.714016
71.110 18.381962
71.115 18.223867
71.120 18.367023
71.125 18.443113
71.130 18.443916
71.135 17.931702
71.140 18.87011
71.145 19.143604
71.150 19.254984
71.155 18.831511
71.160 18.925879
71.165 19.482815
71.170 19.419596
71.175 19.340429
71.180 18.697819
71.185 18.700251
71.190 19.706417
71.195 20.301363
71.200 20.863264
71.205 21.551208
71.210 21.534092
71.215 22.149403
71.220 22.740545
71.225 21.958748
71.230 20.525932
71.235 19.566704
71.240 19.072304
71.245 18.754158
71.250 18.092806
71.255 17.568911
71.260 17.653585
71.265 18.5508
71.270 18.689993
71.275 18.609766
71.280 18.782154
71.285 18.561403
71.290 18.591681
71.295 18.248207
71.300 17.815678
71.305 17.166718
71.310 16.91053
71.315 17.30493
71.320 17.826513
71.325 17.699877
71.330 17.691458
71.335 17.694185
71.340 18.293535
71.345 18.776445
71.350 18.556341
71.355 18.149374
71.360 18.733515
71.365 18.677505
71.370 18.859894
71.375 18.564558
71.380 18.08391
71.385 18.310568
71.390 18.57892
71.395 17.97617
71.400 18.378521
71.405 18.075163
71.410 18.567366
71.415 19.1931
71.420 19.365963
71.425 19.525112
71.430 19.875767
71.435 19.409132
71.440 19.727018
71.445 19.519663
71.450 19.356651
71.455 19.144392
71.460 19.113491
71.465 18.620914
71.470 19.001303
71.475 18.723362
71.480 18.701378
71.485 18.439047
71.490 17.897825
71.495 17.933247
71.500 18.216743
71.505 18.451536
71.510 18.724407
71.515 18.85902
71.520 19.112913
71.525 19.561689
71.530 19.620274
71.535 19.456816
71.540 19.399305
71.545 18.686424
71.550 18.426477
71.555 18.359783
71.560 18.276743
71.565 18.232895
71.570 18.811829
71.575 18.398289
71.580 18.373999
71.585 17.844383
71.590 17.778528
71.595 17.735451
71.600 18.310453
71.605 18.194571
71.610 18.745918
71.615 19.55098
71.620 20.072268
71.625 20.088791
71.630 20.128872
71.635 19.593443
71.640 19.885103
71.645 20.108477
71.650 19.81209
71.655 20.000355
71.660 20.136492
71.665 20.111105
71.670 20.442259
71.675 20.498138
71.680 20.430574
71.685 20.465324
71.690 20.207796
71.695 19.702812
71.700 19.502089
71.705 18.733446
71.710 18.520403
71.715 18.277481
71.720 17.834742
71.725 17.797968
71.730 17.879745
71.735 18.091986
71.740 18.41226
71.745 18.539412
71.750 18.638676
71.755 19.514704
71.760 20.009741
71.765 20.186081
71.770 20.065149
71.775 19.696707
71.780 19.681564
71.785 19.333105
71.790 18.445448
71.795 17.999422
71.800 17.565992
71.805 17.62818
71.810 17.392458
71.815 17.424181
71.820 17.834944
71.825 18.150337
71.830 18.301592
71.835 18.590166
71.840 19.264935
71.845 19.356024
71.850 18.7714
71.855 18.600008
71.860 18.544189
71.865 19.211988
71.870 19.043457
71.875 19.320902
71.880 19.381315
71.885 19.626509
71.890 19.369249
71.895 19.102913
71.900 18.489756
71.905 17.985308
71.910 17.7535
71.915 18.201908
71.920 18.649977
71.925 19.081835
71.930 18.909182
71.935 18.774607
71.940 18.72065
71.945 18.060682
71.950 17.888126
71.955 17.78281
71.960 17.698612
71.965 18.083969
71.970 18.317959
71.975 18.649696
71.980 18.557077
71.985 18.774698
71.990 19.07515
71.995 18.768744
72.000 19.271048
72.005 20.111301
72.010 20.223848
72.015 20.37446
72.020 19.832254
72.025 19.703882
72.030 19.760906
72.035 18.473719
72.040 17.231642
72.045 16.928537
72.050 16.744976
72.055 16.670271
72.060 16.743437
72.065 16.925135
72.070 17.451488
72.075 17.810467
72.080 18.131805
72.085 18.133118
72.090 18.156555
72.095 18.533478
72.100 18.724417
72.105 18.820219
72.110 18.523983
72.115 18.964798
72.120 20.16514
72.125 20.452898
72.130 19.868704
72.135 19.686897
72.140 19.606491
72.145 19.327366
72.150 18.267103
72.155 17.824656
72.160 17.157797
72.165 17.102116
72.170 16.768881
72.175 16.686186
72.180 17.18187
72.185 17.34845
72.190 17.469767
72.195 17.996683
72.200 18.430309
72.205 19.359011
72.210 19.571943
72.215 19.746929
72.220 19.79644
72.225 19.326729
72.230 19.585461
72.235 19.639521
72.240 19.338737
72.245 19.07873
72.250 19.084892
72.255 19.098072
72.260 19.223349
72.265 19.201458
72.270 18.898483
72.275 18.772011
72.280 19.283157
72.285 19.16243
72.290 19.477974
72.295 18.859201
72.300 18.545208
72.305 18.866982
72.310 18.758406
72.315 18.878536
72.320 18.604492
72.325 18.475994
72.330 18.701904
72.335 19.030697
72.340 19.098522
72.345 18.604795
72.350 18.212429
72.355 18.914328
72.360 18.538586
72.365 18.616381
72.370 18.336527
72.375 18.343817
72.380 18.453203
72.385 17.993484
72.390 17.378595
72.395 17.611969
72.400 17.420633
72.405 17.732317
72.410 18.035839
72.415 18.597042
72.420 19.332275
72.425 19.023722
72.430 18.745003
72.435 18.228329
72.440 17.815842
72.445 17.825016
72.450 17.460392
72.455 17.253084
72.460 17.400131
72.465 17.266182
72.470 17.635977
72.475 17.607725
72.480 17.382751
72.485 17.761265
72.490 17.992821
72.495 18.002174
72.500 17.90589
72.505 17.939814
72.510 17.796427
72.515 18.117136
72.520 17.791313
72.525 17.700226
72.530 18.174578
72.535 17.939739
72.540 18.22628
72.545 17.981741
72.550 18.050303
72.555 18.426836
72.560 18.768852
72.565 18.488781
72.570 18.730839
72.575 18.148897
72.580 17.785358
72.585 17.978657
72.590 18.217796
72.595 18.136135
72.600 17.779058
72.605 17.939604
72.610 18.771952
72.615 18.917744
72.620 18.540821
72.625 18.144878
72.630 18.574486
72.635 18.948038
72.640 18.717472
72.645 18.572712
72.650 18.033663
72.655 18.101398
72.660 18.209387
72.665 17.79039
72.670 17.854332
72.675 17.994778
72.680 18.134758
72.685 17.899237
72.690 17.637541
72.695 17.573095
72.700 17.596476
72.705 17.34454
72.710 16.859034
72.715 17.454279
72.720 17.955221
72.725 17.597115
72.730 17.842262
72.735 17.683901
72.740 17.73509
72.745 17.285522
72.750 16.195503
72.755 16.524303
72.760 16.649012
72.765 16.525772
72.770 16.487818
72.775 16.64819
72.780 17.096664
72.785 17.352911
72.790 16.33173
72.795 16.520977
72.800 17.207451
72.805 17.042528
72.810 17.014418
72.815 16.891289
72.820 17.081974
72.825 17.456051
72.830 16.969271
72.835 16.730871
72.840 16.671356
72.845 17.200136
72.850 17.42491
72.855 17.554562
72.860 17.767405
72.865 17.935041
72.870 17.804834
72.875 17.649313
72.880 17.572464
72.885 17.577486
72.890 17.097408
72.895 17.193918
72.900 17.606335
72.905 17.873295
72.910 17.748503
72.915 17.573242
72.920 17.846544
72.925 17.563972
72.930 17.250555
72.935 17.381342
72.940 17.238111
72.945 17.14637
72.950 16.792032
72.955 17.414272
72.960 17.678852
72.965 18.220737
72.970 18.292471
72.975 18.720287
72.980 19.056753
72.985 18.741159
72.990 18.481874
72.995 18.0376
73.000 17.281866
