!@!!GADDS PLOTSO FILE: Chi integration type
!@!!Title/SampleName: map-188
!@!!Comment: ?
!@!!User: Bruker Instrument Administrator
!@!!Site: University of Illinois Chicago
!@!!Frame: map-188_01_000.gfrm
!@!!Wavelengths    1.54184   1.54056   1.54439
!@!!Frame angles: 2Theta: 63.000 Omega: 50.000 Phi: 0.000 Chi: 90.000
!@!!Integration range: 2Theta: 53.000 to 73.000  Gamma: -105.000 to -75.000
!@!!Integration method: bin normalized
!@!N
!@!SS
!@!M
!@!L 0.0 0.0 0.0 0.0
!@!XDegrees
!@!YCounts
53.000 10.103893
53.005 9.899301
53.010 9.981721
53.015 9.644599
53.020 9.556402
53.025 9.743921
53.030 10.159102
53.035 10.368478
53.040 10.222453
53.045 9.793542
53.050 9.713099
53.055 9.92003
53.060 9.97784
53.065 9.903757
53.070 10.292607
53.075 10.543003
53.080 10.968584
53.085 10.946182
53.090 10.836826
53.095 10.522183
53.100 10.318434
53.105 9.800159
53.110 9.675472
53.115 9.811793
53.120 10.073709
53.125 10.211915
53.130 10.276958
53.135 10.388479
53.140 10.872094
53.145 10.520544
53.150 10.261591
53.155 10.127186
53.160 10.290668
53.165 10.529548
53.170 10.163967
53.175 9.851295
53.180 9.842479
53.185 9.707503
53.190 9.740988
53.195 9.733421
53.200 9.917658
53.205 10.273624
53.210 10.350955
53.215 10.468924
53.220 9.978401
53.225 9.671171
53.230 9.522261
53.235 9.838023
53.240 9.358265
53.245 9.038433
53.250 9.08825
53.255 9.589329
53.260 9.240425
53.265 8.967236
53.270 9.051882
53.275 9.953844
53.280 10.828259
53.285 11.159781
53.290 11.362589
53.295 11.564921
53.300 11.716877
53.305 11.756634
53.310 11.432539
53.315 11.397592
53.320 11.651864
53.325 11.106296
53.330 11.036865
53.335 10.811122
53.340 10.380407
53.345 10.702247
53.350 10.673288
53.355 10.673877
53.360 11.038573
53.365 11.196236
53.370 11.551181
53.375 11.369462
53.380 10.810431
53.385 10.064801
53.390 10.117584
53.395 9.92767
53.400 9.701648
53.405 9.88317
53.410 10.489717
53.415 10.899155
53.420 10.905762
53.425 10.895077
53.430 10.965703
53.435 11.097164
53.440 11.172203
53.445 11.02503
53.450 10.79685
53.455 10.974231
53.460 11.119156
53.465 11.451474
53.470 10.910551
53.475 10.385815
53.480 10.150804
53.485 10.500577
53.490 10.784765
53.495 10.539095
53.500 10.264601
53.505 10.24607
53.510 10.244298
53.515 10.041759
53.520 9.50662
53.525 9.065309
53.530 9.104195
53.535 8.70966
53.540 8.752666
53.545 9.144841
53.550 9.369245
53.555 9.351177
53.560 9.432893
53.565 9.713685
53.570 10.556026
53.575 11.012477
53.580 11.182875
53.585 11.394923
53.590 11.606637
53.595 11.813293
53.600 11.909319
53.605 11.345696
53.610 10.874866
53.615 10.803544
53.620 11.009876
53.625 11.508899
53.630 11.323545
53.635 11.112705
53.640 11.808296
53.645 12.363964
53.650 12.204709
53.655 11.991346
53.660 12.075223
53.665 12.282624
53.670 12.305448
53.675 12.029396
53.680 11.911732
53.685 11.792653
53.690 11.444147
53.695 10.919147
53.700 11.105907
53.705 11.042396
53.710 10.786643
53.715 10.604452
53.720 10.734229
53.725 10.961686
53.730 10.732817
53.735 10.396275
53.740 10.391726
53.745 10.380902
53.750 10.095591
53.755 9.864639
53.760 10.047162
53.765 10.179241
53.770 10.01469
53.775 9.831115
53.780 9.66573
53.785 9.520163
53.790 9.589995
53.795 9.882132
53.800 10.783107
53.805 11.038682
53.810 11.224933
53.815 11.493717
53.820 11.581544
53.825 11.976888
53.830 11.289128
53.835 10.445233
53.840 10.177803
53.845 10.632482
53.850 11.236746
53.855 11.469356
53.860 10.988031
53.865 11.266101
53.870 11.839079
53.875 11.903687
53.880 11.3366
53.885 11.107499
53.890 11.275725
53.895 11.186584
53.900 10.646137
53.905 10.490761
53.910 10.445324
53.915 10.308474
53.920 9.946455
53.925 9.658731
53.930 10.067355
53.935 10.50843
53.940 11.000646
53.945 10.737404
53.950 11.093616
53.955 11.186031
53.960 11.033674
53.965 10.691041
53.970 10.032516
53.975 9.649613
53.980 10.17389
53.985 10.484618
53.990 10.827524
53.995 11.438543
54.000 12.066853
54.005 12.49063
54.010 12.397067
54.015 11.892391
54.020 11.461689
54.025 11.143752
54.030 10.532724
54.035 9.718432
54.040 9.542933
54.045 10.090792
54.050 10.160257
54.055 10.037553
54.060 10.1262
54.065 10.240632
54.070 10.444704
54.075 10.214279
54.080 9.726202
54.085 9.880836
54.090 10.295333
54.095 10.129047
54.100 10.514164
54.105 10.747071
54.110 10.523748
54.115 10.177478
54.120 10.257046
54.125 10.563126
54.130 10.314611
54.135 10.445988
54.140 10.351058
54.145 10.51641
54.150 10.772891
54.155 10.283212
54.160 10.46975
54.165 11.30266
54.170 11.365693
54.175 11.502908
54.180 11.745811
54.185 11.91614
54.190 12.248151
54.195 12.280739
54.200 11.938127
54.205 11.927164
54.210 12.027411
54.215 12.049022
54.220 11.962836
54.225 12.301517
54.230 12.252055
54.235 12.594023
54.240 12.48739
54.245 12.6916
54.250 12.978011
54.255 12.94145
54.260 12.534511
54.265 12.280951
54.270 11.959065
54.275 12.361328
54.280 12.559711
54.285 12.276948
54.290 12.18942
54.295 12.141532
54.300 12.337588
54.305 12.554098
54.310 12.040027
54.315 11.675501
54.320 11.40544
54.325 10.941648
54.330 10.704343
54.335 10.612221
54.340 10.450378
54.345 10.277371
54.350 10.480168
54.355 10.543921
54.360 10.886893
54.365 10.491168
54.370 10.251474
54.375 9.989925
54.380 10.292796
54.385 10.815421
54.390 10.707995
54.395 10.399371
54.400 10.495715
54.405 10.813368
54.410 11.160997
54.415 10.582726
54.420 9.948344
54.425 9.859732
54.430 10.369787
54.435 10.71277
54.440 10.450507
54.445 10.55171
54.450 11.021825
54.455 11.131878
54.460 11.096805
54.465 11.281446
54.470 11.187941
54.475 11.453019
54.480 10.825065
54.485 10.476413
54.490 10.793524
54.495 10.932439
54.500 10.22814
54.505 10.135562
54.510 10.096922
54.515 11.023984
54.520 11.496716
54.525 11.616088
54.530 11.618282
54.535 11.589222
54.540 11.799584
54.545 11.553233
54.550 10.888179
54.555 10.618417
54.560 10.237081
54.565 10.308867
54.570 10.497875
54.575 10.503875
54.580 10.939466
54.585 11.385656
54.590 11.439006
54.595 11.868012
54.600 11.658895
54.605 11.676239
54.610 11.421353
54.615 11.075423
54.620 10.811999
54.625 10.557327
54.630 11.054153
54.635 11.340878
54.640 10.750087
54.645 10.547635
54.650 10.866918
54.655 11.076028
54.660 10.651693
54.665 9.815419
54.670 9.824621
54.675 9.896817
54.680 9.865952
54.685 9.477583
54.690 9.892042
54.695 10.321844
54.700 10.601959
54.705 10.842582
54.710 11.21515
54.715 11.323231
54.720 11.359756
54.725 11.022474
54.730 11.189355
54.735 11.233513
54.740 11.556041
54.745 12.070007
54.750 11.726583
54.755 11.599429
54.760 11.44305
54.765 11.286762
54.770 11.320503
54.775 10.964154
54.780 11.670984
54.785 12.092046
54.790 11.992177
54.795 12.112484
54.800 12.345068
54.805 12.473026
54.810 12.325047
54.815 11.633217
54.820 11.552773
54.825 11.671635
54.830 11.841877
54.835 11.486432
54.840 11.764041
54.845 12.127951
54.850 12.248135
54.855 12.010137
54.860 11.843011
54.865 11.915099
54.870 11.903356
54.875 11.329445
54.880 11.116744
54.885 11.285472
54.890 11.599504
54.895 11.745399
54.900 11.553529
54.905 11.349327
54.910 11.302247
54.915 11.459458
54.920 11.643557
54.925 11.573079
54.930 11.684328
54.935 12.063223
54.940 12.483683
54.945 12.437304
54.950 12.250924
54.955 11.863465
54.960 11.700611
54.965 11.629172
54.970 11.134603
54.975 10.437515
54.980 10.870686
54.985 10.882778
54.990 11.012155
54.995 10.930224
55.000 11.365212
55.005 11.912436
55.010 12.057393
55.015 11.882411
55.020 11.768627
55.025 11.979643
55.030 12.064495
55.035 11.415568
55.040 11.289238
55.045 11.201832
55.050 11.532123
55.055 12.108072
55.060 12.3362
55.065 12.577118
55.070 12.898989
55.075 13.086676
55.080 12.886574
55.085 12.358788
55.090 12.272854
55.095 12.200471
55.100 12.242316
55.105 12.262341
55.110 12.243448
55.115 12.349444
55.120 12.320479
55.125 11.90433
55.130 11.465106
55.135 11.624973
55.140 11.588791
55.145 11.512533
55.150 11.278668
55.155 11.132206
55.160 11.240396
55.165 11.286697
55.170 11.337636
55.175 11.857794
55.180 12.178728
55.185 12.785518
55.190 13.10014
55.195 13.275724
55.200 13.567303
55.205 12.827132
55.210 12.206839
55.215 12.131877
55.220 11.718355
55.225 11.544692
55.230 11.513805
55.235 10.891024
55.240 11.038449
55.245 11.399306
55.250 11.233241
55.255 11.081732
55.260 10.46744
55.265 10.431517
55.270 10.97001
55.275 10.796748
55.280 10.611736
55.285 10.773547
55.290 11.04638
55.295 11.598851
55.300 11.788758
55.305 11.536674
55.310 12.005112
55.315 12.291106
55.320 12.301249
55.325 12.500668
55.330 12.392547
55.335 12.289812
55.340 12.17303
55.345 11.541561
55.350 11.518476
55.355 11.144577
55.360 11.281619
55.365 11.004899
55.370 11.002534
55.375 11.407043
55.380 11.661827
55.385 11.305059
55.390 11.62171
55.395 11.762362
55.400 11.891116
55.405 11.763177
55.410 11.857945
55.415 12.309405
55.420 12.672441
55.425 12.329516
55.430 12.364788
55.435 12.46567
55.440 12.315129
55.445 11.532236
55.450 11.129504
55.455 10.904948
55.460 10.719236
55.465 10.273751
55.470 10.105809
55.475 9.991997
55.480 10.358729
55.485 10.776484
55.490 11.58682
55.495 11.970304
55.500 12.094258
55.505 12.362999
55.510 13.189959
55.515 13.552912
55.520 13.028424
55.525 12.878994
55.530 12.738277
55.535 13.03619
55.540 13.401106
55.545 13.094758
55.550 13.734321
55.555 13.802811
55.560 13.550626
55.565 13.766659
55.570 13.520659
55.575 13.710642
55.580 13.541861
55.585 12.426728
55.590 12.222671
55.595 12.124268
55.600 11.831188
55.605 11.794998
55.610 11.140326
55.615 10.785584
55.620 10.968778
55.625 11.229134
55.630 11.581135
55.635 11.804006
55.640 11.720743
55.645 11.91297
55.650 12.094733
55.655 11.986861
55.660 11.611751
55.665 11.034207
55.670 10.422827
55.675 10.248381
55.680 10.00695
55.685 10.068475
55.690 10.29829
55.695 10.618382
55.700 10.779156
55.705 11.256149
55.710 11.105567
55.715 11.208123
55.720 10.956293
55.725 10.594469
55.730 10.308346
55.735 10.364847
55.740 10.516262
55.745 10.526862
55.750 10.473075
55.755 10.603746
55.760 10.937588
55.765 10.835461
55.770 10.720065
55.775 10.537045
55.780 11.072753
55.785 11.132912
55.790 10.782334
55.795 10.754225
55.800 10.484097
55.805 10.777505
55.810 10.868443
55.815 11.30322
55.820 11.041616
55.825 11.081556
55.830 11.127451
55.835 11.745496
55.840 11.876898
55.845 11.75583
55.850 11.533103
55.855 12.476606
55.860 12.760995
55.865 12.726801
55.870 12.47363
55.875 12.642355
55.880 12.824337
55.885 12.725122
55.890 12.461253
55.895 12.580182
55.900 12.572209
55.905 12.765692
55.910 12.55627
55.915 12.167262
55.920 11.898291
55.925 11.877314
55.930 11.6279
55.935 11.687642
55.940 11.836526
55.945 12.294922
55.950 12.760242
55.955 12.44849
55.960 12.267145
55.965 12.47986
55.970 12.444678
55.975 11.754648
55.980 11.094602
55.985 10.890274
55.990 11.276978
55.995 11.61313
56.000 11.915853
56.005 12.070741
56.010 12.577421
56.015 13.386746
56.020 13.814307
56.025 13.647766
56.030 12.811901
56.035 12.650069
56.040 12.419974
56.045 12.401869
56.050 11.865921
56.055 11.813972
56.060 12.072721
56.065 12.586112
56.070 12.501739
56.075 12.230782
56.080 11.710046
56.085 11.499487
56.090 11.148421
56.095 11.158139
56.100 10.959056
56.105 11.155915
56.110 11.719216
56.115 11.846346
56.120 12.360788
56.125 12.705226
56.130 12.648997
56.135 12.621342
56.140 12.220657
56.145 12.041275
56.150 12.018769
56.155 11.324288
56.160 11.528715
56.165 11.168717
56.170 11.189113
56.175 11.363712
56.180 11.41864
56.185 11.616812
56.190 12.007139
56.195 11.64571
56.200 11.608762
56.205 11.205341
56.210 11.252013
56.215 11.352144
56.220 11.167849
56.225 11.068161
56.230 11.359361
56.235 11.86327
56.240 12.127996
56.245 12.285501
56.250 11.988809
56.255 11.824616
56.260 11.828356
56.265 11.879578
56.270 11.571995
56.275 11.496614
56.280 11.289739
56.285 11.368169
56.290 11.586714
56.295 11.536274
56.300 11.913793
56.305 12.31669
56.310 12.680928
56.315 13.048523
56.320 13.35505
56.325 13.419391
56.330 13.56573
56.335 13.649262
56.340 13.64144
56.345 13.879067
56.350 14.233225
56.355 14.338944
56.360 13.877648
56.365 13.556513
56.370 13.24771
56.375 13.114225
56.380 12.822784
56.385 12.503329
56.390 12.540524
56.395 13.092117
56.400 13.222516
56.405 13.544714
56.410 13.81121
56.415 13.965456
56.420 14.140885
56.425 14.650776
56.430 14.676319
56.435 14.646459
56.440 14.603612
56.445 14.58527
56.450 14.26806
56.455 14.215803
56.460 13.894164
56.465 14.124076
56.470 14.27337
56.475 14.695147
56.480 14.757449
56.485 15.014471
56.490 15.656943
56.495 15.513203
56.500 15.350003
56.505 15.259841
56.510 14.542345
56.515 14.329456
56.520 14.527838
56.525 14.383195
56.530 14.389348
56.535 14.285473
56.540 14.109247
56.545 14.539931
56.550 14.4391
56.555 13.20696
56.560 12.654443
56.565 13.337165
56.570 13.694952
56.575 13.826306
56.580 13.693521
56.585 14.279783
56.590 14.684813
56.595 14.565328
56.600 13.753296
56.605 13.492678
56.610 13.35451
56.615 13.577445
56.620 13.963017
56.625 14.335409
56.630 14.4954
56.635 14.577263
56.640 14.596992
56.645 14.745307
56.650 14.497557
56.655 14.140344
56.660 14.373187
56.665 14.500982
56.670 14.177362
56.675 13.946195
56.680 13.636741
56.685 13.984451
56.690 13.812292
56.695 13.784264
56.700 14.190567
56.705 14.697431
56.710 14.893074
56.715 14.97181
56.720 14.485598
56.725 14.482814
56.730 14.61892
56.735 14.500305
56.740 14.469422
56.745 14.475068
56.750 14.548476
56.755 14.460059
56.760 14.328714
56.765 14.189278
56.770 14.088579
56.775 13.987804
56.780 14.054585
56.785 14.137783
56.790 14.178947
56.795 13.737379
56.800 13.385979
56.805 13.284075
56.810 12.991889
56.815 12.827859
56.820 13.202449
56.825 13.282228
56.830 13.253338
56.835 12.902517
56.840 13.360622
56.845 13.409122
56.850 12.957151
56.855 12.819479
56.860 12.813885
56.865 13.146197
56.870 13.132751
56.875 12.840869
56.880 13.146664
56.885 13.579738
56.890 13.167698
56.895 13.037894
56.900 13.042025
56.905 13.032044
56.910 13.198496
56.915 12.382441
56.920 11.791229
56.925 11.61037
56.930 11.633001
56.935 11.770258
56.940 11.714406
56.945 11.249308
56.950 12.051477
56.955 12.213233
56.960 12.462372
56.965 12.659099
56.970 12.317589
56.975 12.314691
56.980 12.5404
56.985 12.723792
56.990 13.105246
56.995 13.134858
57.000 12.953359
57.005 13.311312
57.010 13.663441
57.015 13.819693
57.020 13.576581
57.025 13.802249
57.030 13.8108
57.035 13.71563
57.040 13.592169
57.045 14.050286
57.050 14.296422
57.055 14.470473
57.060 14.089931
57.065 14.486279
57.070 14.486429
57.075 14.35055
57.080 14.038075
57.085 13.571712
57.090 13.184902
57.095 12.95386
57.100 12.612544
57.105 12.888647
57.110 12.352217
57.115 11.912046
57.120 12.030673
57.125 12.257563
57.130 12.674244
57.135 13.386568
57.140 13.604842
57.145 13.892603
57.150 14.360578
57.155 14.113605
57.160 13.948728
57.165 13.624874
57.170 12.629749
57.175 12.358927
57.180 11.671799
57.185 11.811947
57.190 11.810764
57.195 11.861893
57.200 12.170195
57.205 12.421302
57.210 12.732956
57.215 13.102402
57.220 13.074999
57.225 13.263885
57.230 13.115051
57.235 13.047129
57.240 13.367824
57.245 13.14919
57.250 13.130492
57.255 12.793679
57.260 13.362217
57.265 13.175568
57.270 12.717208
57.275 12.645535
57.280 12.862573
57.285 13.109254
57.290 12.824364
57.295 12.268777
57.300 12.978939
57.305 13.106241
57.310 13.010711
57.315 12.910041
57.320 13.272398
57.325 13.639726
57.330 13.126354
57.335 12.984957
57.340 12.959183
57.345 12.980911
57.350 13.256496
57.355 12.931102
57.360 13.341228
57.365 14.344576
57.370 14.25722
57.375 14.741726
57.380 14.895582
57.385 14.514199
57.390 14.682135
57.395 14.265809
57.400 13.716107
57.405 13.792923
57.410 13.504844
57.415 13.464016
57.420 13.523783
57.425 13.352191
57.430 13.487606
57.435 13.529539
57.440 13.469102
57.445 13.655593
57.450 13.481725
57.455 12.968792
57.460 12.97104
57.465 13.12709
57.470 13.196484
57.475 12.677997
57.480 12.185535
57.485 12.035181
57.490 12.281221
57.495 12.238965
57.500 12.105721
57.505 12.285046
57.510 12.65296
57.515 13.059117
57.520 13.323517
57.525 13.500086
57.530 13.51154
57.535 13.510725
57.540 13.412419
57.545 13.750127
57.550 13.947907
57.555 13.853168
57.560 13.854841
57.565 13.534616
57.570 13.846188
57.575 13.808534
57.580 13.180791
57.585 13.103304
57.590 13.273458
57.595 13.168431
57.600 13.63695
57.605 13.1622
57.610 12.976895
57.615 13.292603
57.620 13.171274
57.625 13.461166
57.630 13.484856
57.635 13.028686
57.640 12.526487
57.645 12.393214
57.650 12.364702
57.655 12.189525
57.660 11.904717
57.665 11.978344
57.670 11.849031
57.675 12.156303
57.680 12.325051
57.685 12.380187
57.690 12.895246
57.695 13.308555
57.700 13.852466
57.705 14.280193
57.710 14.408718
57.715 14.208135
57.720 14.429259
57.725 13.742357
57.730 12.987773
57.735 12.332822
57.740 12.065298
57.745 12.19237
57.750 12.000849
57.755 12.023361
57.760 12.921171
57.765 12.927889
57.770 13.067784
57.775 13.505598
57.780 13.74113
57.785 14.083902
57.790 13.7793
57.795 13.156714
57.800 13.467013
57.805 13.333961
57.810 12.913529
57.815 12.890908
57.820 13.072224
57.825 13.088677
57.830 13.326663
57.835 13.370041
57.840 13.758595
57.845 13.690995
57.850 13.404451
57.855 13.386756
57.860 13.421254
57.865 13.361751
57.870 13.114728
57.875 12.57648
57.880 12.05159
57.885 11.778429
57.890 11.737771
57.895 11.676925
57.900 12.360262
57.905 13.164708
57.910 13.338188
57.915 13.79312
57.920 14.08036
57.925 13.706372
57.930 13.89041
57.935 13.743093
57.940 13.403064
57.945 13.450258
57.950 13.358489
57.955 13.169049
57.960 13.376948
57.965 12.902716
57.970 12.719658
57.975 12.614365
57.980 12.833937
57.985 13.12059
57.990 13.206667
57.995 13.013447
58.000 13.141387
58.005 13.401402
58.010 13.551157
58.015 13.879445
58.020 14.053602
58.025 14.079105
58.030 14.126495
58.035 13.877991
58.040 13.824498
58.045 14.219336
58.050 14.142542
58.055 14.684517
58.060 15.322624
58.065 15.746057
58.070 15.869569
58.075 15.687732
58.080 15.521962
58.085 14.769857
58.090 14.053601
58.095 13.641574
58.100 13.499791
58.105 13.803968
58.110 13.390224
58.115 13.02648
58.120 13.583166
58.125 13.905606
58.130 14.361814
58.135 14.516421
58.140 14.158996
58.145 14.461974
58.150 14.783877
58.155 14.508045
58.160 13.990089
58.165 13.630705
58.170 13.316859
58.175 13.256804
58.180 13.141585
58.185 13.163269
58.190 13.24058
58.195 13.032533
58.200 12.993293
58.205 13.202853
58.210 13.000642
58.215 13.013741
58.220 13.292397
58.225 13.219416
58.230 13.453697
58.235 13.479797
58.240 13.673392
58.245 14.26594
58.250 14.240645
58.255 14.081043
58.260 14.067379
58.265 13.630995
58.270 13.739339
58.275 13.855666
58.280 13.537971
58.285 13.575683
58.290 14.005086
58.295 14.229555
58.300 14.819242
58.305 14.985275
58.310 15.321251
58.315 15.765018
58.320 15.866804
58.325 15.58753
58.330 15.689512
58.335 15.65404
58.340 15.426969
58.345 14.967493
58.350 14.682387
58.355 14.517769
58.360 14.624376
58.365 15.128078
58.370 15.283696
58.375 15.487853
58.380 15.513729
58.385 16.101194
58.390 16.676054
58.395 16.75882
58.400 16.411549
58.405 16.58831
58.410 16.35939
58.415 15.951056
58.420 15.294724
58.425 14.906134
58.430 14.244739
58.435 14.254625
58.440 13.939242
58.445 13.569439
58.450 14.271273
58.455 15.353956
58.460 15.088754
58.465 15.533417
58.470 15.529092
58.475 15.395781
58.480 16.181467
58.485 16.072701
58.490 15.393238
58.495 15.329
58.500 15.748371
58.505 15.646045
58.510 15.970841
58.515 16.112461
58.520 15.90694
58.525 16.325558
58.530 16.887003
58.535 16.336634
58.540 16.370922
58.545 16.700708
58.550 16.590437
58.555 16.428051
58.560 16.098621
58.565 15.834489
58.570 16.302134
58.575 16.442257
58.580 15.985899
58.585 15.943847
58.590 16.082623
58.595 16.70133
58.600 17.089327
58.605 16.986412
58.610 17.094221
58.615 17.464205
58.620 17.517176
58.625 17.924427
58.630 17.998362
58.635 17.663544
58.640 17.575687
58.645 17.373087
58.650 17.377213
58.655 17.607119
58.660 17.259428
58.665 16.99473
58.670 16.653704
58.675 16.442741
58.680 15.847282
58.685 15.571968
58.690 15.401669
58.695 15.895041
58.700 15.836377
58.705 16.145195
58.710 16.523062
58.715 16.796207
58.720 16.752335
58.725 16.756994
58.730 16.049864
58.735 16.106274
58.740 16.360756
58.745 16.158939
58.750 16.207407
58.755 16.035986
58.760 15.891628
58.765 16.030945
58.770 16.453487
58.775 16.376831
58.780 16.537975
58.785 16.208094
58.790 16.140352
58.795 16.380598
58.800 16.209249
58.805 16.548307
58.810 16.528597
58.815 17.16345
58.820 17.5137
58.825 17.789587
58.830 17.486536
58.835 17.709677
58.840 17.123648
58.845 16.801315
58.850 16.845098
58.855 17.365681
58.860 17.580599
58.865 17.67432
58.870 16.878656
58.875 17.125263
58.880 17.127657
58.885 16.686298
58.890 16.295492
58.895 15.561316
58.900 15.582196
58.905 16.313118
58.910 16.477232
58.915 16.716902
58.920 16.119116
58.925 16.190775
58.930 16.291208
58.935 15.589527
58.940 15.233008
58.945 14.976325
58.950 14.780751
58.955 14.520408
58.960 14.121494
58.965 13.925983
58.970 14.089401
58.975 13.805738
58.980 14.058352
58.985 14.043932
58.990 13.978287
58.995 14.21448
59.000 14.677568
59.005 15.185165
59.010 15.722205
59.015 15.518782
59.020 15.608773
59.025 16.069733
59.030 16.04414
59.035 16.044811
59.040 16.439234
59.045 16.269564
59.050 16.319624
59.055 16.376205
59.060 16.559006
59.065 16.895691
59.070 17.442459
59.075 16.926348
59.080 17.354809
59.085 17.719847
59.090 17.961712
59.095 18.417931
59.100 18.306473
59.105 17.905937
59.110 17.694319
59.115 16.860231
59.120 16.19079
59.125 15.781735
59.130 15.863917
59.135 16.066542
59.140 15.745168
59.145 15.956791
59.150 16.115604
59.155 16.03908
59.160 16.515852
59.165 16.208158
59.170 16.346174
59.175 17.003584
59.180 17.232239
59.185 17.261517
59.190 17.401915
59.195 16.984697
59.200 17.207279
59.205 17.191395
59.210 17.209148
59.215 17.693367
59.220 18.198574
59.225 17.948116
59.230 17.791107
59.235 16.815466
59.240 16.436226
59.245 16.725903
59.250 16.384115
59.255 16.665926
59.260 17.059498
59.265 17.069735
59.270 17.389336
59.275 17.756521
59.280 17.172581
59.285 16.828575
59.290 15.983339
59.295 15.527497
59.300 15.619585
59.305 15.590151
59.310 15.205548
59.315 14.915732
59.320 14.684285
59.325 15.065109
59.330 15.463737
59.335 15.60286
59.340 15.270089
59.345 15.484377
59.350 15.980912
59.355 16.457199
59.360 16.665087
59.365 17.385271
59.370 17.923691
59.375 18.717588
59.380 18.847229
59.385 18.583487
59.390 18.657776
59.395 18.223099
59.400 17.562584
59.405 16.922646
59.410 16.107155
59.415 16.404024
59.420 16.379944
59.425 16.021376
59.430 16.259346
59.435 16.3983
59.440 16.674238
59.445 16.83077
59.450 16.64831
59.455 16.785366
59.460 16.886276
59.465 16.642618
59.470 16.895325
59.475 17.076078
59.480 17.000469
59.485 16.62619
59.490 17.110483
59.495 17.603409
59.500 17.23772
59.505 16.852734
59.510 16.705542
59.515 17.155289
59.520 16.981358
59.525 16.18376
59.530 15.390248
59.535 15.379048
59.540 15.32845
59.545 14.768653
59.550 14.220545
59.555 14.498754
59.560 14.900986
59.565 15.827379
59.570 16.087763
59.575 15.772265
59.580 16.062517
59.585 16.062748
59.590 15.709254
59.595 15.482501
59.600 14.896885
59.605 15.168021
59.610 15.64253
59.615 16.230766
59.620 16.422329
59.625 16.362307
59.630 16.256516
59.635 16.203159
59.640 16.138481
59.645 16.428192
59.650 16.327221
59.655 16.448463
59.660 16.451992
59.665 17.059532
59.670 17.382738
59.675 17.113235
59.680 16.47443
59.685 16.821445
59.690 17.151567
59.695 17.549053
59.700 18.079847
59.705 18.027098
59.710 18.301617
59.715 18.167759
59.720 17.549479
59.725 17.617092
59.730 17.712204
59.735 16.934221
59.740 17.039637
59.745 17.540697
59.750 18.255329
59.755 18.371586
59.760 18.309393
59.765 18.400585
59.770 19.093035
59.775 19.318604
59.780 19.01598
59.785 19.123999
59.790 19.349884
59.795 19.451075
59.800 19.514511
59.805 19.06498
59.810 18.691002
59.815 18.494949
59.820 18.057903
59.825 17.817425
59.830 17.7171
59.835 17.603481
59.840 18.03117
59.845 18.895502
59.850 18.977037
59.855 18.901493
59.860 19.029882
59.865 18.770142
59.870 18.197456
59.875 17.65876
59.880 16.663015
59.885 16.650564
59.890 17.052666
59.895 16.65715
59.900 16.427835
59.905 16.560751
59.910 16.285511
59.915 16.566408
59.920 16.569456
59.925 16.001614
59.930 15.784616
59.935 16.046574
59.940 15.91412
59.945 16.074244
59.950 16.376488
59.955 16.218355
59.960 16.673721
59.965 17.383533
59.970 17.35582
59.975 17.417614
59.980 17.253778
59.985 16.832775
59.990 16.773575
59.995 16.429832
60.000 15.637407
60.005 15.180432
60.010 14.740812
60.015 14.751991
60.020 14.987501
60.025 15.047078
60.030 15.222505
60.035 15.231474
60.040 15.609681
60.045 16.031887
60.050 16.294868
60.055 16.214474
60.060 16.126724
60.065 15.91709
60.070 16.080015
60.075 16.107227
60.080 15.954146
60.085 16.401047
60.090 16.428438
60.095 16.207691
60.100 16.181349
60.105 16.61537
60.110 16.412752
60.115 16.52607
60.120 16.405781
60.125 16.739807
60.130 17.130568
60.135 17.167624
60.140 16.663273
60.145 16.904131
60.150 16.661842
60.155 15.970477
60.160 15.311864
60.165 15.050308
60.170 15.468209
60.175 15.694849
60.180 15.581362
60.185 15.476149
60.190 15.287683
60.195 15.320396
60.200 15.32782
60.205 15.069468
60.210 15.689699
60.215 15.724901
60.220 15.548679
60.225 16.0494
60.230 16.652872
60.235 16.319736
60.240 16.099792
60.245 15.459734
60.250 15.875025
60.255 16.095348
60.260 15.392424
60.265 15.545521
60.270 15.614136
60.275 15.414223
60.280 15.320324
60.285 15.074386
60.290 14.943151
60.295 14.804513
60.300 14.646087
60.305 14.716131
60.310 14.594397
60.315 14.968346
60.320 14.678734
60.325 14.851854
60.330 15.058958
60.335 14.687225
60.340 14.735713
60.345 14.949307
60.350 14.387121
60.355 14.483747
60.360 14.100642
60.365 13.428771
60.370 12.730389
60.375 12.884479
60.380 12.940489
60.385 13.198959
60.390 13.412849
60.395 13.670241
60.400 14.099481
60.405 14.562405
60.410 14.564611
60.415 14.645379
60.420 14.556241
60.425 14.311696
60.430 14.33986
60.435 14.492811
60.440 14.752034
60.445 15.458476
60.450 15.5947
60.455 15.459763
60.460 15.515725
60.465 16.056755
60.470 16.28186
60.475 15.936069
60.480 15.14291
60.485 15.296951
60.490 15.39277
60.495 15.285686
60.500 15.464604
60.505 15.169016
60.510 14.973376
60.515 14.763143
60.520 14.486974
60.525 14.597629
60.530 14.278585
60.535 13.350107
60.540 13.768798
60.545 14.171151
60.550 14.226148
60.555 14.111141
60.560 14.017288
60.565 14.065493
60.570 14.070261
60.575 14.151465
60.580 14.215959
60.585 14.092839
60.590 14.433806
60.595 14.822558
60.600 15.522984
60.605 16.415049
60.610 16.493702
60.615 16.861824
60.620 17.008268
60.625 16.728094
60.630 16.42466
60.635 16.019188
60.640 15.52694
60.645 15.368997
60.650 15.059282
60.655 15.011072
60.660 14.799506
60.665 15.012698
60.670 15.108623
60.675 15.154961
60.680 14.888715
60.685 14.479559
60.690 14.271317
60.695 14.489578
60.700 14.410402
60.705 14.343751
60.710 13.77349
60.715 13.615686
60.720 14.22219
60.725 14.150985
60.730 14.039247
60.735 13.907563
60.740 14.458927
60.745 14.96137
60.750 15.117197
60.755 14.755877
60.760 15.308772
60.765 15.748889
60.770 16.034286
60.775 15.380008
60.780 15.191051
60.785 14.983768
60.790 14.470257
60.795 14.561231
60.800 14.195016
60.805 13.635764
60.810 13.888835
60.815 13.83502
60.820 14.223417
60.825 14.376023
60.830 13.938575
60.835 13.342856
60.840 12.990187
60.845 13.384343
60.850 13.830132
60.855 13.575362
60.860 13.352491
60.865 13.243643
60.870 13.79404
60.875 14.224903
60.880 13.501048
60.885 12.949738
60.890 13.087758
60.895 13.457439
60.900 13.454775
60.905 13.5621
60.910 13.704429
60.915 14.053789
60.920 14.406787
60.925 15.032103
60.930 14.844034
60.935 14.746393
60.940 14.061308
60.945 14.322745
60.950 14.470484
60.955 14.392699
60.960 14.04391
60.965 13.948447
60.970 14.40577
60.975 14.987733
60.980 14.416801
60.985 14.204385
60.990 14.009556
60.995 13.659404
61.000 13.717546
61.005 13.240305
61.010 13.532661
61.015 13.671993
61.020 13.830275
61.025 13.850378
61.030 14.112779
61.035 14.280693
61.040 14.441913
61.045 14.362749
61.050 14.343837
61.055 14.199636
61.060 14.212037
61.065 14.330467
61.070 14.415754
61.075 13.769478
61.080 13.523149
61.085 13.721539
61.090 13.508612
61.095 13.670043
61.100 13.500297
61.105 13.76457
61.110 14.33971
61.115 14.507698
61.120 14.351219
61.125 14.910442
61.130 15.273375
61.135 15.488936
61.140 15.592881
61.145 15.304517
61.150 14.658701
61.155 14.702538
61.160 14.416879
61.165 14.216881
61.170 14.226746
61.175 14.146232
61.180 14.009661
61.185 14.328272
61.190 14.472903
61.195 14.785129
61.200 15.383086
61.205 15.225696
61.210 15.078877
61.215 15.564837
61.220 15.760453
61.225 15.967258
61.230 15.219719
61.235 14.559993
61.240 14.784378
61.245 14.472632
61.250 14.222085
61.255 14.104916
61.260 13.794728
61.265 14.025767
61.270 14.224145
61.275 13.997508
61.280 14.416918
61.285 14.894506
61.290 14.969964
61.295 14.989632
61.300 15.525306
61.305 15.230254
61.310 14.962558
61.315 14.74929
61.320 14.160129
61.325 13.987239
61.330 14.059039
61.335 13.520963
61.340 13.69186
61.345 13.789498
61.350 13.869906
61.355 14.012236
61.360 14.286399
61.365 14.345065
61.370 14.198104
61.375 14.048186
61.380 14.315581
61.385 14.50957
61.390 14.101845
61.395 13.24107
61.400 12.536386
61.405 12.781216
61.410 13.195326
61.415 13.407932
61.420 13.816287
61.425 14.444203
61.430 14.691048
61.435 14.879163
61.440 14.431664
61.445 14.090167
61.450 13.92587
61.455 13.16374
61.460 12.874129
61.465 12.854326
61.470 12.877791
61.475 13.027583
61.480 12.698726
61.485 12.253642
61.490 12.359388
61.495 12.120666
61.500 11.989082
61.505 12.581247
61.510 13.137291
61.515 13.804306
61.520 14.375519
61.525 14.795553
61.530 15.768184
61.535 16.291504
61.540 15.898139
61.545 15.905869
61.550 16.009882
61.555 16.238756
61.560 16.060534
61.565 15.388004
61.570 15.537701
61.575 16.15291
61.580 16.001211
61.585 15.821894
61.590 15.423476
61.595 15.226924
61.600 14.857409
61.605 14.422542
61.610 13.558226
61.615 13.292038
61.620 13.360207
61.625 13.368461
61.630 13.715465
61.635 14.234458
61.640 14.559254
61.645 14.496957
61.650 14.12131
61.655 14.11208
61.660 14.007529
61.665 13.955218
61.670 13.892626
61.675 13.416863
61.680 13.521906
61.685 13.908186
61.690 13.360685
61.695 13.433913
61.700 13.147065
61.705 12.954333
61.710 13.281246
61.715 13.369423
61.720 13.286149
61.725 13.529087
61.730 13.558712
61.735 13.960112
61.740 14.040421
61.745 14.359045
61.750 14.713673
61.755 14.850171
61.760 15.030847
61.765 14.863653
61.770 14.986964
61.775 15.476486
61.780 15.619987
61.785 15.448583
61.790 15.305708
61.795 15.250367
61.800 15.324969
61.805 15.08116
61.810 14.691674
61.815 14.310332
61.820 14.624789
61.825 15.085007
61.830 15.249541
61.835 15.166188
61.840 15.05766
61.845 14.873998
61.850 14.753866
61.855 14.430677
61.860 14.29362
61.865 14.385475
61.870 14.576772
61.875 14.921667
61.880 15.148035
61.885 15.048457
61.890 14.88005
61.895 14.708387
61.900 14.588671
61.905 14.618405
61.910 14.916521
61.915 14.771465
61.920 14.495627
61.925 14.364441
61.930 14.362541
61.935 14.268917
61.940 14.283195
61.945 13.890774
61.950 14.214678
61.955 14.007337
61.960 13.53755
61.965 13.301431
61.970 13.278812
61.975 13.339436
61.980 13.099751
61.985 13.289642
61.990 14.092731
61.995 14.706819
62.000 14.676538
62.005 14.810143
62.010 15.120666
62.015 15.043961
62.020 14.843764
62.025 14.537176
62.030 13.865329
62.035 13.504585
62.040 13.002057
62.045 12.904097
62.050 13.062427
62.055 12.677362
62.060 12.565452
62.065 13.572205
62.070 14.427798
62.075 14.028342
62.080 13.78561
62.085 13.964087
62.090 14.63541
62.095 15.21713
62.100 15.038515
62.105 14.793433
62.110 15.059317
62.115 14.492049
62.120 14.468739
62.125 14.419509
62.130 14.525097
62.135 14.665377
62.140 14.971176
62.145 15.032915
62.150 15.247105
62.155 14.605042
62.160 14.317191
62.165 14.072362
62.170 13.938828
62.175 13.971539
62.180 14.37396
62.185 14.023699
62.190 14.554818
62.195 14.64016
62.200 14.709309
62.205 14.537792
62.210 14.064754
62.215 13.806724
62.220 13.874444
62.225 13.733085
62.230 13.827516
62.235 13.683862
62.240 14.303512
62.245 14.658441
62.250 15.104209
62.255 15.674082
62.260 15.252394
62.265 14.797407
62.270 14.696309
62.275 14.113273
62.280 13.845428
62.285 13.545961
62.290 13.582565
62.295 13.782245
62.300 14.194098
62.305 13.738113
62.310 13.891809
62.315 13.499478
62.320 13.682855
62.325 13.533649
62.330 13.800912
62.335 13.417175
62.340 13.650993
62.345 13.769742
62.350 14.710369
62.355 14.692122
62.360 15.036751
62.365 15.255112
62.370 15.840791
62.375 16.007015
62.380 16.220867
62.385 16.070213
62.390 16.492598
62.395 16.588314
62.400 16.407446
62.405 16.173948
62.410 16.593243
62.415 16.593658
62.420 16.677517
62.425 16.069517
62.430 15.450307
62.435 15.19547
62.440 15.063915
62.445 14.620852
62.450 14.400781
62.455 14.2295
62.460 14.311586
62.465 14.756732
62.470 15.117044
62.475 15.210817
62.480 14.974394
62.485 14.62948
62.490 14.559986
62.495 14.250546
62.500 13.84999
62.505 13.677458
62.510 13.625564
62.515 13.944776
62.520 14.266317
62.525 14.339305
62.530 14.694173
62.535 14.442143
62.540 14.219746
62.545 14.263966
62.550 14.158961
62.555 13.980428
62.560 14.12001
62.565 13.902935
62.570 14.093332
62.575 14.727902
62.580 14.770599
62.585 14.071505
62.590 14.18056
62.595 13.940074
62.600 14.116825
62.605 14.043053
62.610 13.258929
62.615 12.893242
62.620 13.525823
62.625 13.531232
62.630 14.660712
62.635 15.152282
62.640 15.589912
62.645 16.144915
62.650 16.43721
62.655 16.770329
62.660 16.958483
62.665 16.033615
62.670 15.735761
62.675 15.472209
62.680 15.571306
62.685 15.654774
62.690 15.312801
62.695 15.187672
62.700 15.041199
62.705 15.114473
62.710 15.513305
62.715 15.902965
62.720 16.488165
62.725 16.627125
62.730 16.451061
62.735 16.796274
62.740 16.7633
62.745 16.935844
62.750 16.42597
62.755 15.903975
62.760 15.768035
62.765 16.016594
62.770 16.228678
62.775 16.055166
62.780 15.835073
62.785 16.265587
62.790 16.144211
62.795 16.52317
62.800 16.403387
62.805 16.371693
62.810 16.513758
62.815 15.908367
62.820 15.785743
62.825 15.521608
62.830 15.590861
62.835 15.339513
62.840 14.778561
62.845 14.454161
62.850 15.044368
62.855 15.074974
62.860 15.319128
62.865 15.050417
62.870 15.414737
62.875 15.440685
62.880 15.655583
62.885 15.571064
62.890 15.824551
62.895 16.020077
62.900 16.480852
62.905 15.987367
62.910 15.9761
62.915 15.987355
62.920 15.208912
62.925 14.522099
62.930 13.792125
62.935 13.01421
62.940 13.438845
62.945 13.808669
62.950 13.925027
62.955 14.148735
62.960 14.010003
62.965 14.096107
62.970 14.867167
62.975 14.834785
62.980 14.484754
62.985 14.423865
62.990 14.751454
62.995 15.592089
63.000 15.740751
63.005 14.870891
63.010 14.818748
63.015 14.857556
63.020 14.936868
63.025 15.156985
63.030 14.66914
63.035 15.175081
63.040 15.306844
63.045 14.918498
63.050 14.998885
63.055 14.935657
63.060 14.715027
63.065 14.889892
63.070 14.996248
63.075 14.947193
63.080 15.633544
63.085 15.414767
63.090 15.513856
63.095 15.266574
63.100 14.863383
63.105 14.75594
63.110 15.257684
63.115 15.025017
63.120 15.653006
63.125 15.693167
63.130 15.540441
63.135 15.957685
63.140 15.802178
63.145 15.216587
63.150 15.080591
63.155 14.499841
63.160 14.280734
63.165 14.633214
63.170 14.583462
63.175 14.566981
63.180 15.128003
63.185 15.336946
63.190 15.234976
63.195 15.270823
63.200 15.201027
63.205 15.366276
63.210 15.277037
63.215 14.633008
63.220 14.26044
63.225 14.391128
63.230 14.190707
63.235 13.862565
63.240 13.538413
63.245 13.901906
63.250 14.433898
63.255 14.898963
63.260 14.70555
63.265 14.886186
63.270 15.069192
63.275 15.072813
63.280 14.833308
63.285 14.762477
63.290 14.909399
63.295 15.248549
63.300 14.92426
63.305 15.177656
63.310 16.005798
63.315 16.428993
63.320 17.306198
63.325 17.217045
63.330 17.04179
63.335 17.567198
63.340 17.344927
63.345 16.767094
63.350 16.286694
63.355 15.316438
63.360 15.667822
63.365 15.617371
63.370 15.486241
63.375 16.171419
63.380 16.24955
63.385 16.362658
63.390 16.602337
63.395 16.512735
63.400 16.678711
63.405 16.395947
63.410 16.465948
63.415 16.059904
63.420 15.863834
63.425 16.049797
63.430 15.981161
63.435 16.235609
63.440 16.298285
63.445 15.816025
63.450 16.323603
63.455 15.612381
63.460 14.691815
63.465 14.901328
63.470 15.104901
63.475 15.52369
63.480 15.728453
63.485 15.914924
63.490 16.926826
63.495 17.678129
63.500 17.453531
63.505 18.032232
63.510 17.158869
63.515 16.200274
63.520 15.501582
63.525 14.688584
63.530 14.171214
63.535 14.381284
63.540 13.795311
63.545 14.148604
63.550 14.659719
63.555 15.10892
63.560 15.347911
63.565 15.563625
63.570 15.366514
63.575 15.043226
63.580 15.151223
63.585 15.478011
63.590 15.649584
63.595 16.331083
63.600 16.18898
63.605 16.069725
63.610 15.865236
63.615 15.899875
63.620 15.886787
63.625 15.6224
63.630 15.438788
63.635 15.620652
63.640 15.930427
63.645 16.612005
63.650 16.786558
63.655 16.58498
63.660 16.801723
63.665 17.113258
63.670 16.687111
63.675 16.374331
63.680 15.9735
63.685 15.940327
63.690 15.836732
63.695 15.886896
63.700 15.515754
63.705 15.655494
63.710 15.882704
63.715 15.553541
63.720 15.473435
63.725 15.773517
63.730 15.656965
63.735 16.10677
63.740 15.862945
63.745 15.802511
63.750 15.890169
63.755 15.379375
63.760 14.998962
63.765 15.059155
63.770 14.107888
63.775 14.498395
63.780 14.66051
63.785 14.820968
63.790 15.442659
63.795 15.297436
63.800 14.765763
63.805 15.090697
63.810 15.14032
63.815 14.977791
63.820 15.092486
63.825 14.605162
63.830 15.085115
63.835 15.570257
63.840 15.70979
63.845 14.9672
63.850 14.436147
63.855 14.579563
63.860 14.557847
63.865 14.064108
63.870 14.180909
63.875 14.064375
63.880 14.985642
63.885 15.383651
63.890 15.091689
63.895 15.039817
63.900 15.528641
63.905 15.052339
63.910 14.933392
63.915 14.337883
63.920 14.303324
63.925 14.337669
63.930 14.32547
63.935 14.44594
63.940 15.14133
63.945 15.507007
63.950 15.473228
63.955 15.27156
63.960 15.745882
63.965 15.914044
63.970 15.310011
63.975 14.684511
63.980 14.56321
63.985 15.311098
63.990 15.640155
63.995 16.173582
64.000 16.576715
64.005 16.72534
64.010 17.179001
64.015 17.083006
64.020 16.995903
64.025 17.227356
64.030 16.947376
64.035 16.465967
64.040 16.507427
64.045 16.284845
64.050 16.249765
64.055 15.979399
64.060 15.243993
64.065 15.129871
64.070 15.458349
64.075 15.924382
64.080 16.411932
64.085 16.955509
64.090 16.848701
64.095 17.064869
64.100 17.072748
64.105 16.539814
64.110 15.906511
64.115 15.470752
64.120 15.463865
64.125 15.509865
64.130 15.703746
64.135 15.892855
64.140 16.454992
64.145 17.002737
64.150 17.419779
64.155 17.516294
64.160 17.555191
64.165 17.635294
64.170 17.869547
64.175 18.335962
64.180 17.745453
64.185 17.54283
64.190 17.93952
64.195 17.884249
64.200 17.831444
64.205 16.851198
64.210 16.434084
64.215 16.212727
64.220 15.84409
64.225 16.366941
64.230 16.428196
64.235 15.866307
64.240 15.960705
64.245 16.04162
64.250 16.820122
64.255 17.141483
64.260 16.377169
64.265 17.252234
64.270 17.231358
64.275 17.600317
64.280 17.483414
64.285 17.083662
64.290 17.035549
64.295 16.309866
64.300 16.198809
64.305 16.97488
64.310 16.805567
64.315 16.869368
64.320 16.781143
64.325 17.288092
64.330 17.309011
64.335 17.096003
64.340 16.918928
64.345 17.955811
64.350 18.071085
64.355 18.791807
64.360 18.295313
64.365 18.264595
64.370 18.35013
64.375 18.201372
64.380 17.741701
64.385 17.269363
64.390 17.011707
64.395 16.70365
64.400 16.763157
64.405 16.799751
64.410 17.282907
64.415 17.474009
64.420 17.788054
64.425 17.489481
64.430 17.346434
64.435 18.072371
64.440 18.307686
64.445 18.151535
64.450 18.065638
64.455 18.06303
64.460 18.519772
64.465 19.499863
64.470 18.947266
64.475 18.574547
64.480 18.896418
64.485 18.883518
64.490 18.677969
64.495 18.677675
64.500 18.723797
64.505 18.885365
64.510 18.789171
64.515 18.53195
64.520 18.929691
64.525 19.345102
64.530 19.139383
64.535 18.860703
64.540 18.722012
64.545 19.041332
64.550 18.895477
64.555 18.678879
64.560 18.340078
64.565 18.007414
64.570 18.024126
64.575 18.191849
64.580 18.230192
64.585 17.763355
64.590 17.871941
64.595 17.944647
64.600 17.940239
64.605 17.553207
64.610 17.65873
64.615 17.394918
64.620 16.829336
64.625 16.282314
64.630 16.03451
64.635 16.195822
64.640 16.705116
64.645 16.32905
64.650 16.836941
64.655 17.129316
64.660 17.368725
64.665 18.130264
64.670 18.458414
64.675 18.153065
64.680 18.250875
64.685 18.385721
64.690 19.076757
64.695 18.71516
64.700 18.50548
64.705 18.419722
64.710 18.6996
64.715 19.116964
64.720 18.733438
64.725 18.7365
64.730 19.382971
64.735 18.912939
64.740 18.823214
64.745 18.066412
64.750 18.144831
64.755 18.386068
64.760 18.255783
64.765 18.06296
64.770 18.35878
64.775 18.4044
64.780 18.685192
64.785 18.465513
64.790 18.64584
64.795 19.11272
64.800 18.840164
64.805 19.231413
64.810 20.037838
64.815 20.361574
64.820 20.494967
64.825 21.033323
64.830 21.282438
64.835 21.395844
64.840 21.302485
64.845 20.97298
64.850 21.155638
64.855 21.069838
64.860 20.407745
64.865 19.816429
64.870 19.95928
64.875 20.065798
64.880 20.818518
64.885 21.177387
64.890 21.625713
64.895 22.084103
64.900 22.711685
64.905 22.855917
64.910 22.675354
64.915 22.590715
64.920 22.561068
64.925 22.149124
64.930 21.557081
64.935 21.497471
64.940 21.520647
64.945 21.643227
64.950 21.732901
64.955 21.320915
64.960 22.049612
64.965 23.018311
64.970 23.085417
64.975 22.988039
64.980 23.410475
64.985 23.438074
64.990 24.156343
64.995 23.765635
65.000 23.522381
65.005 23.540705
65.010 23.877338
65.015 24.015291
65.020 24.350159
65.025 24.332458
65.030 24.65811
65.035 24.66457
65.040 25.05345
65.045 25.623724
65.050 25.419483
65.055 24.808222
65.060 24.415766
65.065 23.787724
65.070 23.698103
65.075 23.913635
65.080 23.361942
65.085 23.33321
65.090 23.706932
65.095 24.441648
65.100 24.974941
65.105 24.56296
65.110 24.19665
65.115 23.79912
65.120 23.825775
65.125 23.814112
65.130 23.00573
65.135 22.805729
65.140 23.073771
65.145 23.348862
65.150 23.734116
65.155 23.629824
65.160 23.801676
65.165 24.317574
65.170 24.430246
65.175 24.277218
65.180 24.479965
65.185 24.564287
65.190 24.494839
65.195 24.333359
65.200 24.352461
65.205 24.056364
65.210 23.821625
65.215 23.228426
65.220 22.860683
65.225 22.497358
65.230 22.394636
65.235 21.726114
65.240 22.157875
65.245 22.254362
65.250 22.332485
65.255 22.473541
65.260 22.890387
65.265 22.598425
65.270 22.416689
65.275 22.52482
65.280 22.693157
65.285 22.472418
65.290 22.447123
65.295 22.22883
65.300 22.803194
65.305 23.141457
65.310 23.052134
65.315 23.393126
65.320 23.277292
65.325 23.003172
65.330 22.983973
65.335 22.672218
65.340 22.978266
65.345 22.950615
65.350 22.641947
65.355 22.955908
65.360 23.318371
65.365 23.107565
65.370 22.56991
65.375 21.250771
65.380 20.996368
65.385 21.129539
65.390 21.063423
65.395 20.778028
65.400 20.733917
65.405 21.306711
65.410 21.725697
65.415 21.61413
65.420 21.198755
65.425 20.994486
65.430 20.499138
65.435 20.25
65.440 20.000677
65.445 20.10251
65.450 19.992908
65.455 19.86953
65.460 20.137444
65.465 20.407249
65.470 20.674053
65.475 20.628883
65.480 20.727577
65.485 20.700407
65.490 20.735632
65.495 21.02454
65.500 21.601152
65.505 21.888622
65.510 21.976587
65.515 21.742092
65.520 21.375536
65.525 21.432245
65.530 21.689356
65.535 21.317047
65.540 21.0816
65.545 21.100298
65.550 21.245886
65.555 21.424435
65.560 21.726002
65.565 21.407578
65.570 21.260571
65.575 21.085737
65.580 21.220585
65.585 21.135571
65.590 21.460812
65.595 21.271807
65.600 20.356186
65.605 20.423431
65.610 20.702099
65.615 20.927067
65.620 21.299646
65.625 21.061352
65.630 21.024206
65.635 21.69141
65.640 22.076494
65.645 22.248295
65.650 22.328016
65.655 21.869108
65.660 21.681175
65.665 21.069881
65.670 20.95437
65.675 20.919327
65.680 20.635544
65.685 20.281059
65.690 20.843077
65.695 21.340456
65.700 22.161613
65.705 22.548939
65.710 22.73065
65.715 23.133444
65.720 22.992926
65.725 23.139965
65.730 23.574804
65.735 23.109337
65.740 22.73237
65.745 22.870533
65.750 22.478577
65.755 23.074423
65.760 23.074863
65.765 23.055529
65.770 22.891195
65.775 22.795832
65.780 22.265804
65.785 22.173399
65.790 22.377737
65.795 22.20141
65.800 21.952175
65.805 22.476645
65.810 22.532681
65.815 22.833643
65.820 23.026503
65.825 22.439394
65.830 23.153156
65.835 23.659189
65.840 23.874762
65.845 23.50794
65.850 23.266251
65.855 23.696697
65.860 24.462488
65.865 24.639004
65.870 24.42757
65.875 24.08802
65.880 24.878288
65.885 25.675608
65.890 25.905804
65.895 24.60527
65.900 24.34506
65.905 24.186392
65.910 24.473881
65.915 24.782585
65.920 23.953314
65.925 23.895473
65.930 25.07408
65.935 25.766489
65.940 25.804123
65.945 25.718395
65.950 25.484215
65.955 26.14941
65.960 26.893581
65.965 26.790276
65.970 26.543276
65.975 27.019625
65.980 27.447613
65.985 27.371626
65.990 27.016329
65.995 26.636999
66.000 26.303846
66.005 25.733837
66.010 25.930519
66.015 25.65777
66.020 26.070238
66.025 26.523357
66.030 26.489035
66.035 26.487431
66.040 26.548748
66.045 26.7715
66.050 26.939104
66.055 26.382185
66.060 26.195057
66.065 26.618443
66.070 26.999975
66.075 27.396078
66.080 27.380524
66.085 27.414602
66.090 27.694216
66.095 27.960865
66.100 27.519224
66.105 27.413273
66.110 27.2953
66.115 26.651983
66.120 25.957493
66.125 26.444937
66.130 27.143167
66.135 27.807081
66.140 27.338852
66.145 26.799828
66.150 27.185675
66.155 27.63875
66.160 26.986107
66.165 27.112061
66.170 26.979656
66.175 27.491695
66.180 28.616285
66.185 29.309753
66.190 29.449726
66.195 29.546337
66.200 28.668972
66.205 28.867716
66.210 29.296097
66.215 28.565924
66.220 28.577898
66.225 29.439293
66.230 29.60368
66.235 29.788033
66.240 29.464649
66.245 29.284893
66.250 29.199396
66.255 28.616028
66.260 27.744688
66.265 26.961718
66.270 26.657339
66.275 26.321604
66.280 25.731981
66.285 25.054201
66.290 24.871834
66.295 24.498655
66.300 25.1343
66.305 24.801422
66.310 24.652386
66.315 25.116764
66.320 25.599283
66.325 25.101368
66.330 25.122458
66.335 25.134417
66.340 25.69619
66.345 25.831213
66.350 25.64403
66.355 25.480045
66.360 26.242519
66.365 26.384014
66.370 25.710293
66.375 24.934116
66.380 24.428444
66.385 24.08869
66.390 23.495052
66.395 22.821188
66.400 22.910521
66.405 22.959866
66.410 22.794237
66.415 23.515409
66.420 23.929787
66.425 24.259642
66.430 24.507126
66.435 24.260258
66.440 24.041277
66.445 24.093054
66.450 23.664587
66.455 23.462381
66.460 23.371683
66.465 23.504126
66.470 23.860838
66.475 24.181551
66.480 23.884548
66.485 23.37851
66.490 22.779615
66.495 22.406668
66.500 22.083042
66.505 21.55393
66.510 20.858387
66.515 21.004171
66.520 20.861195
66.525 20.938251
66.530 21.289555
66.535 21.081102
66.540 21.129976
66.545 21.806475
66.550 21.856588
66.555 22.437403
66.560 22.122238
66.565 21.420261
66.570 21.016321
66.575 20.971247
66.580 20.145012
66.585 18.997974
66.590 18.630695
66.595 18.669973
66.600 18.652296
66.605 18.490639
66.610 17.987139
66.615 18.099403
66.620 18.760334
66.625 19.249039
66.630 19.549692
66.635 20.248039
66.640 20.576113
66.645 20.764912
66.650 20.470585
66.655 19.538715
66.660 18.534176
66.665 18.011301
66.670 17.120222
66.675 16.750658
66.680 16.572817
66.685 16.331045
66.690 16.4293
66.695 16.335976
66.700 15.893899
66.705 16.073812
66.710 16.166395
66.715 16.096888
66.720 16.249149
66.725 16.255684
66.730 16.25746
66.735 16.864408
66.740 16.79542
66.745 16.78652
66.750 16.887228
66.755 17.160486
66.760 17.362696
66.765 17.619581
66.770 17.833158
66.775 17.710234
66.780 17.838566
66.785 17.633818
66.790 17.068468
66.795 16.468924
66.800 16.239294
66.805 15.681341
66.810 15.389375
66.815 15.075392
66.820 15.261384
66.825 15.755141
66.830 16.866648
66.835 16.547865
66.840 16.314342
66.845 16.645262
66.850 16.820972
66.855 17.1378
66.860 16.940304
66.865 16.402527
66.870 16.332796
66.875 16.204514
66.880 15.623009
66.885 15.044749
66.890 15.004399
66.895 15.181204
66.900 15.385493
66.905 15.54292
66.910 15.667975
66.915 16.252924
66.920 16.569166
66.925 15.996298
66.930 15.347927
66.935 15.065871
66.940 15.402289
66.945 16.20742
66.950 16.234009
66.955 16.3885
66.960 16.883657
66.965 17.229794
66.970 17.216923
66.975 16.78236
66.980 16.789648
66.985 17.097597
66.990 17.167719
66.995 16.837181
67.000 16.708735
67.005 17.242355
67.010 17.698927
67.015 17.42293
67.020 16.826946
67.025 16.409058
67.030 16.443277
67.035 16.631348
67.040 16.119318
67.045 16.428078
67.050 16.72904
67.055 16.928572
67.060 17.200502
67.065 17.230591
67.070 17.155733
67.075 17.414934
67.080 17.072981
67.085 16.867067
67.090 16.983841
67.095 16.81831
67.100 16.782858
67.105 16.778173
67.110 16.827017
67.115 17.01791
67.120 17.342627
67.125 17.423058
67.130 17.917065
67.135 18.567982
67.140 18.437559
67.145 18.455254
67.150 17.799963
67.155 17.037235
67.160 17.043304
67.165 16.561708
67.170 16.040764
67.175 16.264999
67.180 16.06212
67.185 16.010309
67.190 16.330605
67.195 16.490664
67.200 16.516457
67.205 16.454327
67.210 16.207029
67.215 16.413279
67.220 16.658792
67.225 16.342829
67.230 16.287374
67.235 16.21652
67.240 16.280394
67.245 16.360695
67.250 16.301985
67.255 16.527195
67.260 16.194748
67.265 15.927041
67.270 16.322031
67.275 16.737883
67.280 17.136576
67.285 17.290834
67.290 17.125452
67.295 17.282303
67.300 17.266001
67.305 17.343313
67.310 17.266962
67.315 16.351851
67.320 16.35984
67.325 16.104074
67.330 16.284945
67.335 16.336435
67.340 15.929227
67.345 15.30043
67.350 15.495415
67.355 15.008744
67.360 15.20865
67.365 14.886404
67.370 14.641153
67.375 14.408846
67.380 14.193595
67.385 14.607448
67.390 14.990234
67.395 15.058624
67.400 14.916033
67.405 14.575104
67.410 15.13077
67.415 15.641942
67.420 15.508522
67.425 15.441159
67.430 15.595297
67.435 16.061226
67.440 16.618923
67.445 16.304249
67.450 16.274797
67.455 16.380266
67.460 17.195881
67.465 17.220303
67.470 16.932474
67.475 16.913166
67.480 16.69055
67.485 17.049082
67.490 16.79121
67.495 16.311302
67.500 16.55632
67.505 16.932812
67.510 16.822359
67.515 17.359921
67.520 17.289719
67.525 17.284588
67.530 17.484825
67.535 17.018064
67.540 17.016647
67.545 17.245361
67.550 16.930794
67.555 16.757545
67.560 16.291939
67.565 16.697145
67.570 16.745079
67.575 16.803741
67.580 16.633713
67.585 16.875006
67.590 17.421206
67.595 17.68578
67.600 17.192259
67.605 17.236509
67.610 17.423496
67.615 17.746113
67.620 17.55106
67.625 17.220821
67.630 16.713736
67.635 16.813124
67.640 16.553673
67.645 16.250908
67.650 16.346071
67.655 16.527279
67.660 16.886015
67.665 16.781843
67.670 16.602753
67.675 16.379313
67.680 16.079887
67.685 15.813655
67.690 15.6287
67.695 15.166114
67.700 15.340285
67.705 15.449888
67.710 15.949231
67.715 16.447216
67.720 16.306061
67.725 15.628668
67.730 15.710718
67.735 16.016991
67.740 16.464352
67.745 16.456705
67.750 16.449392
67.755 16.754633
67.760 17.322277
67.765 17.70199
67.770 17.163681
67.775 17.10006
67.780 17.276066
67.785 17.090977
67.790 16.837677
67.795 16.625257
67.800 16.667068
67.805 17.254915
67.810 17.301949
67.815 17.598623
67.820 17.976051
67.825 18.496113
67.830 18.895933
67.835 19.607851
67.840 19.919353
67.845 19.380936
67.850 19.083906
67.855 18.781574
67.860 18.478876
67.865 18.010553
67.870 16.92267
67.875 16.484583
67.880 16.450903
67.885 16.85742
67.890 17.131176
67.895 17.060678
67.900 16.946867
67.905 17.535887
67.910 17.418186
67.915 17.214144
67.920 16.678986
67.925 16.453697
67.930 16.715536
67.935 17.183191
67.940 17.401239
67.945 18.093611
67.950 17.93675
67.955 17.761789
67.960 17.724436
67.965 17.555668
67.970 17.257298
67.975 16.606045
67.980 16.454052
67.985 16.703709
67.990 17.010769
67.995 17.103035
68.000 16.76116
68.005 17.045311
68.010 17.30257
68.015 17.470303
68.020 17.633114
68.025 17.707792
68.030 18.088432
68.035 18.935419
68.040 18.703379
68.045 18.806849
68.050 18.409225
68.055 18.303926
68.060 17.776129
68.065 16.959606
68.070 16.117126
68.075 15.908647
68.080 15.319159
68.085 15.222207
68.090 15.359991
68.095 16.266445
68.100 17.07567
68.105 16.997051
68.110 17.393215
68.115 17.667652
68.120 17.686014
68.125 17.617447
68.130 17.564974
68.135 17.388693
68.140 17.202581
68.145 17.124445
68.150 17.167845
68.155 17.684196
68.160 17.731623
68.165 17.39887
68.170 17.117334
68.175 17.408932
68.180 16.919724
68.185 16.47331
68.190 16.023289
68.195 15.875525
68.200 16.393396
68.205 17.119413
68.210 17.482677
68.215 17.338556
68.220 18.099358
68.225 18.051416
68.230 17.799517
68.235 17.093611
68.240 16.660362
68.245 16.491913
68.250 16.43918
68.255 16.069597
68.260 16.219963
68.265 16.473913
68.270 16.809416
68.275 16.540016
68.280 16.346298
68.285 16.563295
68.290 16.131624
68.295 15.549941
68.300 15.330705
68.305 15.791429
68.310 16.337872
68.315 16.630365
68.320 16.410212
68.325 16.519163
68.330 16.939814
68.335 16.788757
68.340 16.110117
68.345 15.82303
68.350 15.733837
68.355 16.18174
68.360 16.706688
68.365 16.626949
68.370 16.561182
68.375 16.94664
68.380 17.493088
68.385 17.366858
68.390 16.739939
68.395 16.282907
68.400 15.834381
68.405 15.60838
68.410 15.487184
68.415 15.456347
68.420 15.392802
68.425 15.883995
68.430 15.970294
68.435 16.473909
68.440 16.47373
68.445 16.035475
68.450 16.162333
68.455 16.457844
68.460 16.402128
68.465 15.970167
68.470 15.865005
68.475 15.788341
68.480 16.003365
68.485 15.721766
68.490 16.293772
68.495 16.126913
68.500 16.592693
68.505 16.618977
68.510 16.821663
68.515 16.422901
68.520 15.947671
68.525 15.536872
68.530 15.280773
68.535 15.348775
68.540 15.124975
68.545 14.732882
68.550 14.582066
68.555 14.691522
68.560 15.042347
68.565 15.559287
68.570 15.707323
68.575 16.331799
68.580 16.830385
68.585 17.078051
68.590 17.252493
68.595 16.520908
68.600 16.326694
68.605 16.735718
68.610 16.332315
68.615 16.564293
68.620 16.311962
68.625 16.462101
68.630 17.114216
68.635 17.09593
68.640 16.817348
68.645 16.97345
68.650 16.454432
68.655 16.63661
68.660 16.451294
68.665 16.664913
68.670 16.492004
68.675 16.543945
68.680 16.828115
68.685 17.188087
68.690 17.424894
68.695 17.66259
68.700 17.772888
68.705 18.078636
68.710 17.62974
68.715 17.522299
68.720 17.52169
68.725 17.477575
68.730 17.949442
68.735 18.143393
68.740 18.000162
68.745 18.083368
68.750 18.180653
68.755 17.782906
68.760 17.525257
68.765 16.576065
68.770 16.279705
68.775 16.127634
68.780 16.000042
68.785 16.402458
68.790 17.077682
68.795 17.203888
68.800 17.421507
68.805 17.325033
68.810 17.442453
68.815 17.204168
68.820 17.351904
68.825 17.025541
68.830 16.94688
68.835 16.927608
68.840 17.148096
68.845 17.995661
68.850 18.327106
68.855 18.121971
68.860 18.628765
68.865 18.786392
68.870 18.252155
68.875 18.090134
68.880 18.141222
68.885 17.953575
68.890 18.042875
68.895 18.174128
68.900 18.240877
68.905 18.518997
68.910 18.081343
68.915 17.79303
68.920 18.063181
68.925 17.928881
68.930 17.479675
68.935 17.025686
68.940 17.227514
68.945 17.595852
68.950 17.838795
68.955 17.329861
68.960 17.159456
68.965 17.908909
68.970 18.419653
68.975 18.660809
68.980 18.21842
68.985 18.246418
68.990 18.829203
68.995 18.546972
69.000 18.412029
69.005 18.797991
69.010 19.117834
69.015 19.971977
69.020 19.707352
69.025 19.794649
69.030 20.191343
69.035 19.762983
69.040 19.39819
69.045 19.516846
69.050 19.3074
69.055 19.592346
69.060 19.074566
69.065 18.957689
69.070 19.329741
69.075 19.422466
69.080 19.496639
69.085 19.529434
69.090 20.309156
69.095 21.197029
69.100 21.561651
69.105 21.646294
69.110 21.159023
69.115 20.96174
69.120 20.497513
69.125 19.937248
69.130 19.537916
69.135 19.832792
69.140 20.634342
69.145 21.39731
69.150 21.896238
69.155 22.112759
69.160 21.78429
69.165 21.956537
69.170 21.370691
69.175 20.964321
69.180 20.973667
69.185 20.586271
69.190 20.609808
69.195 20.983385
69.200 21.365404
69.205 21.621111
69.210 21.780325
69.215 21.570555
69.220 22.102423
69.225 22.537872
69.230 22.521255
69.235 22.214594
69.240 22.532038
69.245 22.340921
69.250 22.953293
69.255 22.944506
69.260 21.925627
69.265 22.388285
69.270 22.471012
69.275 22.449022
69.280 22.052366
69.285 21.292927
69.290 21.623055
69.295 21.882854
69.300 21.537218
69.305 21.915621
69.310 21.461473
69.315 21.589922
69.320 21.340042
69.325 21.442934
69.330 21.938046
69.335 22.108328
69.340 21.759792
69.345 22.536783
69.350 23.118681
69.355 22.964766
69.360 22.824823
69.365 22.931105
69.370 22.68413
69.375 22.852308
69.380 22.399891
69.385 22.218992
69.390 22.066422
69.395 21.816891
69.400 21.584307
69.405 21.085125
69.410 21.31345
69.415 21.57272
69.420 22.092627
69.425 22.508343
69.430 22.664316
69.435 23.258635
69.440 23.892017
69.445 24.057383
69.450 24.359983
69.455 24.184477
69.460 23.921761
69.465 23.323488
69.470 23.036022
69.475 22.541142
69.480 22.401163
69.485 22.357904
69.490 22.809847
69.495 23.683125
69.500 24.324524
69.505 24.228647
69.510 24.749762
69.515 25.375862
69.520 25.35429
69.525 25.401457
69.530 25.131138
69.535 25.262537
69.540 25.850967
69.545 26.151665
69.550 25.919678
69.555 26.261356
69.560 26.03969
69.565 25.870241
69.570 25.758848
69.575 26.044542
69.580 25.749256
69.585 25.607529
69.590 25.638367
69.595 25.702135
69.600 25.876289
69.605 24.986298
69.610 24.392328
69.615 24.260979
69.620 24.204651
69.625 23.233196
69.630 23.592323
69.635 23.71101
69.640 24.415146
69.645 24.511501
69.650 24.146133
69.655 24.202517
69.660 24.380907
69.665 23.554623
69.670 22.941486
69.675 22.482689
69.680 22.139038
69.685 22.445465
69.690 22.390989
69.695 22.809965
69.700 23.627224
69.705 23.509769
69.710 23.107168
69.715 22.762348
69.720 22.45126
69.725 21.584419
69.730 21.254311
69.735 21.03323
69.740 21.469175
69.745 21.206352
69.750 20.72135
69.755 20.578611
69.760 21.086525
69.765 20.458311
69.770 20.713594
69.775 20.778851
69.780 21.149134
69.785 22.113518
69.790 22.587051
69.795 22.902866
69.800 23.412249
69.805 22.665773
69.810 22.248907
69.815 22.625345
69.820 22.080082
69.825 22.322371
69.830 21.455528
69.835 21.040068
69.840 20.72275
69.845 20.598717
69.850 19.64081
69.855 19.865156
69.860 19.16094
69.865 18.862137
69.870 19.32472
69.875 19.786842
69.880 20.109865
69.885 20.168718
69.890 19.604778
69.895 20.176304
69.900 20.517389
69.905 20.343168
69.910 20.454006
69.915 20.288473
69.920 20.657436
69.925 20.415434
69.930 19.94869
69.935 19.916262
69.940 19.771479
69.945 19.085804
69.950 19.127235
69.955 19.218632
69.960 18.908091
69.965 17.610678
69.970 16.345194
69.975 15.584465
69.980 16.035814
69.985 15.350011
69.990 14.635495
69.995 15.379382
70.000 16.407206
70.005 17.089005
70.010 17.45657
70.015 17.118834
70.020 17.001308
70.025 16.812164
70.030 16.353712
70.035 15.812754
70.040 15.427766
70.045 15.027226
70.050 15.404593
70.055 15.976213
70.060 16.027378
70.065 16.472307
70.070 17.460657
70.075 17.772514
70.080 17.571487
70.085 17.101782
70.090 17.546946
70.095 17.775618
70.100 17.207293
70.105 16.464556
70.110 16.376465
70.115 16.980017
70.120 17.392756
70.125 17.328756
70.130 17.811295
70.135 17.802458
70.140 18.065714
70.145 18.143045
70.150 17.834202
70.155 17.642056
70.160 17.75091
70.165 17.699823
70.170 17.509729
70.175 17.310684
70.180 17.144672
70.185 17.106962
70.190 16.800318
70.195 16.599266
70.200 16.551214
70.205 16.729074
70.210 16.787022
70.215 17.365479
70.220 17.137276
70.225 16.575041
70.230 16.027142
70.235 16.009382
70.240 16.305204
70.245 15.84833
70.250 15.279106
70.255 15.626613
70.260 16.101652
70.265 16.453968
70.270 16.284801
70.275 16.047709
70.280 15.780931
70.285 15.724847
70.290 15.232926
70.295 15.561912
70.300 15.512937
70.305 15.710723
70.310 16.589354
70.315 17.252481
70.320 17.657522
70.325 17.94084
70.330 16.826202
70.335 16.202745
70.340 16.233257
70.345 15.97575
70.350 16.196157
70.355 16.026455
70.360 16.101854
70.365 16.585012
70.370 16.841274
70.375 15.90658
70.380 15.490014
70.385 14.99854
70.390 14.803894
70.395 15.091668
70.400 15.378379
70.405 15.636811
70.410 16.316637
70.415 16.736624
70.420 17.153803
70.425 17.275291
70.430 17.255697
70.435 17.229694
70.440 17.100565
70.445 16.016489
70.450 15.692379
70.455 15.61542
70.460 15.076043
70.465 14.93797
70.470 15.233959
70.475 15.600943
70.480 16.380884
70.485 16.367596
70.490 16.193024
70.495 16.347052
70.500 16.761972
70.505 16.320789
70.510 16.461855
70.515 16.37962
70.520 16.584078
70.525 16.332762
70.530 16.263132
70.535 15.648215
70.540 15.59708
70.545 15.22481
70.550 15.141137
70.555 15.090665
70.560 15.182152
70.565 14.987432
70.570 15.14159
70.575 14.881567
70.580 14.989799
70.585 15.019176
70.590 15.168495
70.595 15.647532
70.600 15.753012
70.605 15.794477
70.610 16.319698
70.615 16.877117
70.620 16.180305
70.625 16.713947
70.630 16.964382
70.635 17.073605
70.640 17.205385
70.645 16.638845
70.650 16.229736
70.655 16.803541
70.660 16.113913
70.665 15.844906
70.670 15.699122
70.675 16.333376
70.680 16.789682
70.685 17.176521
70.690 17.312275
70.695 18.02162
70.700 18.372913
70.705 17.979
70.710 17.51795
70.715 17.001402
70.720 16.719042
70.725 16.050676
70.730 15.785359
70.735 15.681895
70.740 15.876452
70.745 15.683492
70.750 15.966639
70.755 16.182989
70.760 16.181974
70.765 15.553499
70.770 15.492976
70.775 15.469516
70.780 15.234631
70.785 15.217493
70.790 14.877625
70.795 14.863522
70.800 15.180369
70.805 14.903348
70.810 15.077124
70.815 15.451145
70.820 15.340003
70.825 15.279003
70.830 15.335734
70.835 15.321016
70.840 15.102256
70.845 14.540418
70.850 14.102738
70.855 14.30511
70.860 15.008032
70.865 15.423828
70.870 15.599522
70.875 15.726389
70.880 16.086491
70.885 16.750547
70.890 16.725687
70.895 15.996449
70.900 15.459456
70.905 15.590039
70.910 15.57244
70.915 15.512313
70.920 15.112227
70.925 15.053487
70.930 14.984143
70.935 15.215185
70.940 14.957101
70.945 15.148398
70.950 15.487679
70.955 15.421398
70.960 15.39561
70.965 15.787013
70.970 15.795086
70.975 15.858337
70.980 15.59856
70.985 15.329791
70.990 15.935794
70.995 15.765765
71.000 16.08901
71.005 15.888818
71.010 15.844275
71.015 15.848541
71.020 15.473067
71.025 14.884394
71.030 14.64447
71.035 14.402485
71.040 14.761851
71.045 14.924325
71.050 15.375651
71.055 15.51478
71.060 15.774113
71.065 15.676929
71.070 15.327685
71.075 14.955618
71.080 14.428452
71.085 13.896646
71.090 13.616335
71.095 13.637079
71.100 13.590494
71.105 13.961037
71.110 14.279212
71.115 14.656006
71.120 15.056275
71.125 15.120139
71.130 14.930473
71.135 15.456676
71.140 15.108817
71.145 14.725896
71.150 14.61448
71.155 14.193268
71.160 14.392434
71.165 14.78398
71.170 15.066076
71.175 15.421771
71.180 15.526202
71.185 15.41252
71.190 15.710638
71.195 15.289865
71.200 14.987651
71.205 14.881029
71.210 15.420312
71.215 16.00289
71.220 16.155102
71.225 16.348398
71.230 16.718729
71.235 16.954977
71.240 16.863901
71.245 16.382677
71.250 16.33407
71.255 16.391335
71.260 16.412817
71.265 16.187473
71.270 15.927894
71.275 15.829473
71.280 15.358957
71.285 15.317971
71.290 15.031595
71.295 15.03414
71.300 14.899027
71.305 14.845802
71.310 15.195962
71.315 15.725516
71.320 15.911677
71.325 16.220091
71.330 16.516962
71.335 16.207478
71.340 16.18784
71.345 15.73415
71.350 15.428881
71.355 15.633891
71.360 15.503126
71.365 15.465961
71.370 15.934156
71.375 16.000841
71.380 16.347549
71.385 16.236084
71.390 15.623169
71.395 15.42028
71.400 14.496571
71.405 14.426144
71.410 14.042619
71.415 13.727565
71.420 13.117658
71.425 13.021393
71.430 13.171616
71.435 13.6992
71.440 13.628559
71.445 13.632051
71.450 14.388728
71.455 15.096789
71.460 15.033976
71.465 15.072977
71.470 14.833489
71.475 14.736119
71.480 15.238027
71.485 15.520598
71.490 15.730871
71.495 15.794906
71.500 16.021667
71.505 17.16687
71.510 17.150673
71.515 16.7099
71.520 16.086029
71.525 16.127428
71.530 16.062706
71.535 15.98481
71.540 15.705101
71.545 15.504863
71.550 15.384974
71.555 15.294744
71.560 14.799777
71.565 14.721108
71.570 14.378645
71.575 14.47508
71.580 14.287253
71.585 14.535705
71.590 15.209773
71.595 15.625306
71.600 15.910303
71.605 16.289951
71.610 16.450321
71.615 16.614639
71.620 15.890448
71.625 15.426111
71.630 15.459763
71.635 14.856317
71.640 14.330638
71.645 13.937645
71.650 13.53517
71.655 13.319133
71.660 13.699965
71.665 13.907398
71.670 14.106386
71.675 14.678177
71.680 14.874375
71.685 15.312056
71.690 15.801959
71.695 15.602903
71.700 15.995847
71.705 16.091158
71.710 15.703009
71.715 15.855916
71.720 16.497215
71.725 16.163729
71.730 15.98856
71.735 15.745601
71.740 15.291785
71.745 14.977027
71.750 14.888676
71.755 14.407474
71.760 14.740567
71.765 14.869225
71.770 15.125735
71.775 16.159847
71.780 16.227068
71.785 16.504681
71.790 16.843445
71.795 16.726528
71.800 17.12768
71.805 17.381794
71.810 17.731089
71.815 17.98238
71.820 17.384706
71.825 17.102701
71.830 16.680847
71.835 16.353188
71.840 15.656381
71.845 15.421041
71.850 15.053921
71.855 15.078772
71.860 15.371166
71.865 15.417811
71.870 15.165111
71.875 15.50007
71.880 15.652723
71.885 15.730062
71.890 15.390974
71.895 15.395723
71.900 15.465783
71.905 15.308389
71.910 15.081681
71.915 14.974954
71.920 15.507936
71.925 15.905085
71.930 15.538106
71.935 15.771834
71.940 15.760558
71.945 15.608427
71.950 15.819947
71.955 15.414429
71.960 15.116703
71.965 15.433432
71.970 15.409683
71.975 15.12594
71.980 15.35484
71.985 15.284725
71.990 15.347147
71.995 15.587868
72.000 15.3814
72.005 15.770823
72.010 15.933972
72.015 15.746578
72.020 15.948068
72.025 15.895482
72.030 15.361376
72.035 15.37982
72.040 15.132723
72.045 14.772534
72.050 14.450362
72.055 14.04638
72.060 14.476358
72.065 14.571876
72.070 13.992827
72.075 14.220293
72.080 14.472218
72.085 14.499629
72.090 14.697878
72.095 14.537292
72.100 15.062805
72.105 15.108086
72.110 15.04382
72.115 14.985487
72.120 14.982541
72.125 15.009465
72.130 15.040689
72.135 14.671759
72.140 14.544356
72.145 14.267158
72.150 13.795721
72.155 13.945537
72.160 13.998026
72.165 14.162724
72.170 14.366055
72.175 14.708263
72.180 15.13408
72.185 15.235415
72.190 15.22536
72.195 15.652543
72.200 15.597158
72.205 15.625442
72.210 15.414626
72.215 15.482496
72.220 15.717122
72.225 15.414533
72.230 14.648895
72.235 14.699849
72.240 15.164318
72.245 15.988933
72.250 16.518412
72.255 16.95204
72.260 18.047113
72.265 18.717873
72.270 18.943804
72.275 18.482468
72.280 17.881762
72.285 16.948257
72.290 16.416494
72.295 15.986925
72.300 15.555602
72.305 15.046791
72.310 14.949108
72.315 15.869081
72.320 16.229439
72.325 15.812584
72.330 15.984831
72.335 15.989256
72.340 16.023155
72.345 15.774179
72.350 15.145825
72.355 15.337455
72.360 15.260489
72.365 15.210034
72.370 15.355035
72.375 15.36465
72.380 15.363408
72.385 15.09591
72.390 14.663834
72.395 14.149258
72.400 13.905203
72.405 13.988029
72.410 13.993199
72.415 13.803745
72.420 14.218121
72.425 14.879124
72.430 15.068119
72.435 15.178432
72.440 15.050045
72.445 15.291677
72.450 15.110542
72.455 15.207064
72.460 14.766364
72.465 14.640846
72.470 14.696358
72.475 14.424977
72.480 14.703564
72.485 14.830601
72.490 14.589886
72.495 15.264117
72.500 15.753465
72.505 16.05176
72.510 16.195072
72.515 16.027773
72.520 16.082886
72.525 15.547804
72.530 15.138887
72.535 14.482058
72.540 14.599026
72.545 14.660136
72.550 14.310938
72.555 14.70669
72.560 15.435438
72.565 15.785262
72.570 16.323256
72.575 16.488878
72.580 16.873692
72.585 16.510672
72.590 16.079428
72.595 15.860182
72.600 16.153763
72.605 15.797606
72.610 15.449545
72.615 15.572931
72.620 15.452541
72.625 15.04853
72.630 14.462116
72.635 13.733353
72.640 13.442477
72.645 13.310266
72.650 13.522103
72.655 13.578686
72.660 13.922056
72.665 13.962463
72.670 13.693291
72.675 13.622268
72.680 13.761316
72.685 13.800158
72.690 14.492686
72.695 14.651243
72.700 14.723609
72.705 15.278209
72.710 15.371644
72.715 15.253704
72.720 14.731229
72.725 14.081157
72.730 13.825459
72.735 14.184982
72.740 14.21771
72.745 14.118979
72.750 14.262907
72.755 14.620032
72.760 14.988962
72.765 15.077874
72.770 15.067792
72.775 14.799619
72.780 14.558932
72.785 14.357225
72.790 14.291678
72.795 14.036386
72.800 14.092057
72.805 13.7178
72.810 13.674854
72.815 13.781226
72.820 13.679242
72.825 13.687881
72.830 13.486407
72.835 13.601232
72.840 14.001236
72.845 14.561481
72.850 14.549132
72.855 14.81024
72.860 15.004841
72.865 15.338842
72.870 15.236186
72.875 14.634056
72.880 14.587694
72.885 14.560681
72.890 14.394024
72.895 14.806562
72.900 14.785447
72.905 15.008282
72.910 15.247949
72.915 14.775342
72.920 14.841138
72.925 14.242716
72.930 14.082664
72.935 13.839889
72.940 13.295222
72.945 13.502432
72.950 13.484556
72.955 13.278988
72.960 13.491564
72.965 13.540157
72.970 14.066571
72.975 14.698193
72.980 14.778335
72.985 15.144427
72.990 15.482183
72.995 15.721477
73.000 15.657647
