!@!!GADDS PLOTSO FILE: Chi integration type
!@!!Title/SampleName: map-59
!@!!Comment: ?
!@!!User: Bruker Instrument Administrator
!@!!Site: University of Illinois Chicago
!@!!Frame: map-59_01_000.gfrm
!@!!Wavelengths    1.54184   1.54056   1.54439
!@!!Frame angles: 2Theta: 63.000 Omega: 50.000 Phi: 0.000 Chi: 90.000
!@!!Integration range: 2Theta: 53.000 to 73.000  Gamma: -105.000 to -75.000
!@!!Integration method: bin normalized
!@!N
!@!SS
!@!M
!@!L 0.0 0.0 0.0 0.0
!@!XDegrees
!@!YCounts
53.000 5.558336
53.005 5.288555
53.010 5.155191
53.015 5.397465
53.020 5.436474
53.025 5.280641
53.030 5.577479
53.035 5.916423
53.040 6.45641
53.045 6.546346
53.050 6.201112
53.055 6.485512
53.060 6.385239
53.065 6.220838
53.070 5.971437
53.075 5.863309
53.080 6.134846
53.085 6.216536
53.090 6.23965
53.095 6.592715
53.100 6.898111
53.105 7.186389
53.110 7.252624
53.115 7.03451
53.120 7.24721
53.125 7.564337
53.130 7.353386
53.135 7.311148
53.140 7.360077
53.145 6.920189
53.150 7.005158
53.155 6.72084
53.160 6.962749
53.165 6.820748
53.170 6.755943
53.175 6.658139
53.180 6.725142
53.185 6.934911
53.190 6.67924
53.195 6.700293
53.200 6.925829
53.205 6.840919
53.210 6.733498
53.215 7.066638
53.220 7.39809
53.225 7.348967
53.230 7.028701
53.235 6.952521
53.240 7.0988
53.245 7.196478
53.250 7.094892
53.255 7.163978
53.260 7.296997
53.265 7.317281
53.270 7.289242
53.275 7.145028
53.280 6.991544
53.285 6.431219
53.290 6.448092
53.295 6.637064
53.300 6.785177
53.305 6.519739
53.310 6.566483
53.315 6.661255
53.320 6.601609
53.325 6.262845
53.330 6.308585
53.335 6.460896
53.340 6.595569
53.345 6.635392
53.350 6.530035
53.355 6.778939
53.360 6.840788
53.365 6.757843
53.370 6.777675
53.375 6.764236
53.380 6.671606
53.385 6.726072
53.390 6.75347
53.395 7.09597
53.400 7.44276
53.405 7.509573
53.410 7.370892
53.415 7.964289
53.420 8.001663
53.425 8.013576
53.430 7.601469
53.435 7.299286
53.440 7.288847
53.445 7.197449
53.450 6.692849
53.455 6.811787
53.460 6.342321
53.465 6.215795
53.470 6.72144
53.475 6.937345
53.480 6.990788
53.485 7.278448
53.490 7.116775
53.495 6.827017
53.500 6.761136
53.505 5.980218
53.510 6.084846
53.515 6.043012
53.520 6.025971
53.525 6.45147
53.530 6.953398
53.535 6.916454
53.540 7.115781
53.545 7.439151
53.550 7.553502
53.555 7.137661
53.560 7.166114
53.565 7.221198
53.570 7.312146
53.575 7.147734
53.580 6.964453
53.585 7.038956
53.590 7.57059
53.595 7.822867
53.600 7.986208
53.605 8.215457
53.610 8.291018
53.615 8.052235
53.620 7.829383
53.625 7.408745
53.630 7.30276
53.635 7.473041
53.640 7.757254
53.645 7.92044
53.650 7.965055
53.655 8.033005
53.660 8.561421
53.665 8.156449
53.670 7.588526
53.675 7.598247
53.680 7.467085
53.685 7.408419
53.690 7.324613
53.695 7.322486
53.700 7.450375
53.705 7.398015
53.710 7.319551
53.715 7.340305
53.720 7.59383
53.725 7.553337
53.730 7.375825
53.735 7.277933
53.740 7.238828
53.745 7.529984
53.750 8.058439
53.755 8.306692
53.760 8.689121
53.765 8.981668
53.770 9.024967
53.775 8.808877
53.780 8.473969
53.785 7.818978
53.790 7.431727
53.795 7.209694
53.800 7.198082
53.805 7.116527
53.810 7.140522
53.815 7.377961
53.820 7.447968
53.825 7.014527
53.830 6.686612
53.835 6.585379
53.840 6.938704
53.845 6.661157
53.850 6.672432
53.855 6.684731
53.860 6.896197
53.865 7.344083
53.870 7.74234
53.875 7.936511
53.880 8.345664
53.885 8.255728
53.890 8.019142
53.895 8.279718
53.900 8.088407
53.905 7.538071
53.910 7.141829
53.915 6.95546
53.920 7.554425
53.925 8.017831
53.930 7.623952
53.935 7.798486
53.940 7.762675
53.945 7.845789
53.950 7.888623
53.955 7.294077
53.960 7.157022
53.965 7.081124
53.970 7.010968
53.975 7.667336
53.980 7.60309
53.985 7.789607
53.990 8.091798
53.995 8.393598
54.000 8.699376
54.005 8.316351
54.010 7.813343
54.015 7.498476
54.020 7.165831
54.025 7.112049
54.030 7.050217
54.035 7.729935
54.040 8.183559
54.045 8.69172
54.050 8.473785
54.055 8.106066
54.060 7.892244
54.065 7.680546
54.070 7.142241
54.075 7.003641
54.080 6.874242
54.085 6.95339
54.090 7.320345
54.095 7.142545
54.100 7.19805
54.105 7.077954
54.110 6.987685
54.115 7.406139
54.120 7.896582
54.125 7.869317
54.130 7.704981
54.135 7.341531
54.140 7.406729
54.145 7.123349
54.150 6.619477
54.155 6.944386
54.160 7.264474
54.165 7.631818
54.170 7.843134
54.175 8.033038
54.180 8.351302
54.185 8.467721
54.190 8.373127
54.195 8.160466
54.200 8.369695
54.205 8.477276
54.210 8.708502
54.215 9.007905
54.220 8.578115
54.225 8.464606
54.230 8.218361
54.235 8.153492
54.240 7.885817
54.245 7.578618
54.250 7.386866
54.255 7.652089
54.260 7.624598
54.265 7.816472
54.270 8.001339
54.275 8.067898
54.280 8.102486
54.285 8.289418
54.290 8.318467
54.295 8.356269
54.300 8.327127
54.305 8.405673
54.310 8.764759
54.315 8.76588
54.320 8.895593
54.325 9.167206
54.330 9.399419
54.335 9.623796
54.340 9.389735
54.345 9.243446
54.350 9.41192
54.355 9.188541
54.360 8.940215
54.365 8.761598
54.370 8.644699
54.375 8.480805
54.380 7.962467
54.385 7.776819
54.390 7.693897
54.395 7.866678
54.400 7.745719
54.405 7.603063
54.410 7.582211
54.415 7.853327
54.420 8.049032
54.425 8.329783
54.430 8.203317
54.435 8.234353
54.440 8.709607
54.445 8.596738
54.450 8.490414
54.455 8.185976
54.460 7.703165
54.465 7.510899
54.470 7.492258
54.475 7.424422
54.480 7.508645
54.485 7.781216
54.490 7.983184
54.495 8.127975
54.500 8.336336
54.505 8.922168
54.510 9.407922
54.515 9.447726
54.520 9.374082
54.525 9.548972
54.530 9.840204
54.535 9.63587
54.540 9.127056
54.545 8.814472
54.550 8.734181
54.555 8.592081
54.560 8.467597
54.565 8.446822
54.570 7.995004
54.575 7.870655
54.580 8.123827
54.585 8.02445
54.590 7.90723
54.595 7.998212
54.600 8.08918
54.605 8.479665
54.610 8.596956
54.615 8.781333
54.620 9.300816
54.625 9.347548
54.630 9.128995
54.635 9.062916
54.640 9.174903
54.645 8.976539
54.650 8.811314
54.655 9.265303
54.660 9.455091
54.665 9.41947
54.670 9.998386
54.675 9.894606
54.680 9.816905
54.685 9.254406
54.690 8.348577
54.695 8.209942
54.700 7.907633
54.705 7.662473
54.710 7.941119
54.715 7.562661
54.720 8.05983
54.725 8.716427
54.730 8.933331
54.735 9.433023
54.740 9.543185
54.745 9.660127
54.750 9.890374
54.755 9.584198
54.760 9.376042
54.765 9.074053
54.770 8.935621
54.775 8.94656
54.780 8.793639
54.785 8.641621
54.790 8.709277
54.795 8.418438
54.800 8.576003
54.805 8.10957
54.810 8.014974
54.815 8.302871
54.820 8.123085
54.825 8.211946
54.830 8.318227
54.835 8.271011
54.840 8.492639
54.845 8.050833
54.850 8.654176
54.855 9.120843
54.860 9.273469
54.865 9.382685
54.870 9.660001
54.875 9.790333
54.880 9.922803
54.885 9.09434
54.890 8.719791
54.895 8.695425
54.900 8.529523
54.905 8.393451
54.910 8.282516
54.915 7.991979
54.920 8.198525
54.925 8.565171
54.930 8.687794
54.935 8.360532
54.940 8.258514
54.945 8.799016
54.950 9.510547
54.955 9.697908
54.960 9.527274
54.965 9.493407
54.970 9.761314
54.975 9.631531
54.980 8.883576
54.985 8.524683
54.990 8.280683
54.995 7.939208
55.000 7.786194
55.005 7.917484
55.010 7.921566
55.015 8.090978
55.020 8.560565
55.025 9.057509
55.030 9.407248
55.035 9.532289
55.040 9.419854
55.045 9.331785
55.050 9.168153
55.055 8.852926
55.060 8.640676
55.065 8.440925
55.070 8.261171
55.075 8.225871
55.080 8.722114
55.085 8.707816
55.090 8.8668
55.095 8.671248
55.100 8.703484
55.105 8.768099
55.110 9.012444
55.115 8.818988
55.120 8.412396
55.125 8.317845
55.130 8.81377
55.135 8.934102
55.140 8.941087
55.145 9.095937
55.150 9.269994
55.155 9.205665
55.160 8.903181
55.165 8.858179
55.170 9.016588
55.175 8.936788
55.180 8.782306
55.185 9.192806
55.190 9.415971
55.195 9.477902
55.200 8.716282
55.205 8.617649
55.210 8.461765
55.215 8.250101
55.220 8.132945
55.225 8.382994
55.230 8.579508
55.235 9.115176
55.240 9.116695
55.245 9.607066
55.250 9.56738
55.255 9.822082
55.260 10.160821
55.265 10.493798
55.270 10.714504
55.275 10.766882
55.280 10.563791
55.285 10.65729
55.290 10.47973
55.295 9.865731
55.300 9.216495
55.305 9.009757
55.310 8.743546
55.315 8.374353
55.320 7.976032
55.325 7.756643
55.330 7.911068
55.335 8.315546
55.340 7.760029
55.345 8.224796
55.350 8.651098
55.355 9.027375
55.360 9.014266
55.365 9.382965
55.370 9.729322
55.375 9.897236
55.380 9.956055
55.385 10.115177
55.390 10.414922
55.395 10.271731
55.400 9.339725
55.405 9.010885
55.410 9.251689
55.415 9.239287
55.420 8.763151
55.425 9.053674
55.430 9.471577
55.435 10.136665
55.440 10.908694
55.445 11.015507
55.450 11.22157
55.455 11.12231
55.460 10.816991
55.465 11.079999
55.470 10.607177
55.475 9.862264
55.480 9.650968
55.485 9.250391
55.490 9.491439
55.495 9.040851
55.500 8.9067
55.505 9.497787
55.510 9.998723
55.515 10.20663
55.520 10.166347
55.525 10.035846
55.530 9.869333
55.535 9.855453
55.540 9.191012
55.545 8.808318
55.550 8.871324
55.555 8.871325
55.560 8.641301
55.565 8.495756
55.570 8.117911
55.575 8.290703
55.580 8.006424
55.585 8.082336
55.590 8.921019
55.595 9.092662
55.600 9.516689
55.605 10.247601
55.610 10.360703
55.615 10.465885
55.620 10.214508
55.625 10.27419
55.630 10.58005
55.635 10.896996
55.640 10.821914
55.645 10.857244
55.650 11.039294
55.655 11.051535
55.660 10.737039
55.665 10.603427
55.670 10.490392
55.675 9.978082
55.680 10.142446
55.685 10.047036
55.690 10.622996
55.695 10.887875
55.700 11.215235
55.705 11.126505
55.710 10.998376
55.715 11.190449
55.720 11.278315
55.725 10.751863
55.730 10.224815
55.735 9.84406
55.740 9.916632
55.745 10.446419
55.750 10.573674
55.755 10.179296
55.760 10.403443
55.765 10.648834
55.770 10.78689
55.775 10.670725
55.780 10.433434
55.785 10.329046
55.790 10.410768
55.795 10.253803
55.800 10.101995
55.805 10.250387
55.810 10.255629
55.815 9.96683
55.820 10.225656
55.825 10.430723
55.830 10.380928
55.835 10.421297
55.840 10.304379
55.845 10.734358
55.850 11.230855
55.855 10.86385
55.860 10.497334
55.865 10.362509
55.870 9.885586
55.875 9.598695
55.880 9.014014
55.885 8.355
55.890 8.30683
55.895 8.736866
55.900 8.949192
55.905 9.28631
55.910 9.425588
55.915 9.915064
55.920 10.725156
55.925 10.947331
55.930 10.98246
55.935 11.476382
55.940 11.323155
55.945 11.6045
55.950 11.828149
55.955 11.543207
55.960 11.322512
55.965 11.135977
55.970 10.773522
55.975 10.871213
55.980 10.410265
55.985 9.934603
55.990 10.011067
55.995 10.049467
56.000 10.124065
56.005 10.048348
56.010 10.216587
56.015 10.132107
56.020 10.30781
56.025 10.199051
56.030 10.415584
56.035 10.476033
56.040 10.74045
56.045 10.971935
56.050 11.841711
56.055 12.036251
56.060 11.911233
56.065 11.581382
56.070 11.121475
56.075 10.706484
56.080 10.458246
56.085 10.019081
56.090 9.789667
56.095 10.083775
56.100 10.23169
56.105 10.220205
56.110 10.328599
56.115 10.125355
56.120 9.814794
56.125 9.777722
56.130 9.519243
56.135 9.688634
56.140 9.867483
56.145 10.179263
56.150 10.400558
56.155 10.505486
56.160 10.260396
56.165 10.549319
56.170 10.635492
56.175 10.568476
56.180 10.477366
56.185 10.384284
56.190 10.380257
56.195 10.339117
56.200 10.026152
56.205 10.425164
56.210 10.456804
56.215 10.325702
56.220 9.892831
56.225 9.949382
56.230 10.293552
56.235 10.669715
56.240 10.494052
56.245 10.359002
56.250 10.439552
56.255 10.622739
56.260 10.349349
56.265 9.961729
56.270 9.623882
56.275 9.789423
56.280 9.894011
56.285 9.739905
56.290 9.951532
56.295 10.748323
56.300 10.734
56.305 11.019248
56.310 10.747342
56.315 11.265368
56.320 12.03083
56.325 11.748179
56.330 11.420695
56.335 11.575688
56.340 11.174684
56.345 11.246655
56.350 10.647133
56.355 10.386095
56.360 10.931684
56.365 11.339467
56.370 11.427243
56.375 11.918221
56.380 12.055831
56.385 12.107162
56.390 11.83829
56.395 11.147181
56.400 10.962605
56.405 10.524197
56.410 9.697719
56.415 9.865911
56.420 9.932693
56.425 10.226802
56.430 10.282792
56.435 10.267159
56.440 10.455267
56.445 10.622378
56.450 10.959845
56.455 12.003054
56.460 12.602131
56.465 13.206996
56.470 13.156288
56.475 13.068955
56.480 12.79495
56.485 11.902362
56.490 11.413618
56.495 11.319307
56.500 10.585047
56.505 10.281565
56.510 10.607878
56.515 11.421928
56.520 11.884171
56.525 11.489916
56.530 11.213537
56.535 11.661236
56.540 12.079811
56.545 11.886782
56.550 11.646021
56.555 10.973151
56.560 10.656254
56.565 10.104587
56.570 9.923195
56.575 9.876248
56.580 9.591633
56.585 9.743206
56.590 10.355934
56.595 11.02933
56.600 11.390525
56.605 11.238757
56.610 11.080906
56.615 11.350139
56.620 11.141088
56.625 10.657096
56.630 10.443007
56.635 11.172806
56.640 11.069571
56.645 10.891175
56.650 10.466321
56.655 10.22891
56.660 10.645453
56.665 10.706428
56.670 10.391768
56.675 11.011983
56.680 11.41744
56.685 11.505538
56.690 11.668547
56.695 11.734676
56.700 11.614281
56.705 11.857148
56.710 11.775934
56.715 11.957485
56.720 12.361249
56.725 12.154409
56.730 11.636365
56.735 11.880687
56.740 11.693334
56.745 12.258504
56.750 12.555262
56.755 12.717189
56.760 12.782274
56.765 12.400664
56.770 11.886308
56.775 11.597651
56.780 11.327478
56.785 11.105093
56.790 11.411506
56.795 11.873545
56.800 12.580401
56.805 12.665553
56.810 12.418642
56.815 12.11369
56.820 11.728294
56.825 11.414021
56.830 11.143101
56.835 10.816493
56.840 10.872885
56.845 11.400601
56.850 11.402122
56.855 11.561509
56.860 11.66012
56.865 12.212253
56.870 12.211293
56.875 12.254121
56.880 11.830044
56.885 11.800289
56.890 11.486523
56.895 11.04996
56.900 10.97518
56.905 11.106998
56.910 11.060871
56.915 11.387711
56.920 11.706209
56.925 12.0316
56.930 12.388294
56.935 12.195462
56.940 12.189943
56.945 12.369609
56.950 12.28594
56.955 12.232636
56.960 12.576771
56.965 12.171148
56.970 12.612482
56.975 12.843414
56.980 13.236728
56.985 13.610376
56.990 13.816096
56.995 13.618591
57.000 13.599857
57.005 13.113542
57.010 12.553283
57.015 11.983328
57.020 11.401093
57.025 10.986014
57.030 11.067712
57.035 11.418296
57.040 11.304136
57.045 11.503504
57.050 11.68716
57.055 11.945414
57.060 11.744656
57.065 11.423176
57.070 11.554644
57.075 11.964563
57.080 11.9481
57.085 11.515376
57.090 11.197926
57.095 11.332309
57.100 11.476001
57.105 11.445085
57.110 11.75615
57.115 11.900037
57.120 12.527042
57.125 12.781312
57.130 12.725016
57.135 12.851736
57.140 13.071171
57.145 12.524496
57.150 11.968359
57.155 11.688601
57.160 11.961882
57.165 12.175188
57.170 11.728322
57.175 11.154618
57.180 11.018616
57.185 11.162404
57.190 11.162384
57.195 11.163696
57.200 10.841037
57.205 10.523451
57.210 10.808212
57.215 11.533627
57.220 12.071424
57.225 11.842162
57.230 11.302597
57.235 11.596983
57.240 12.271075
57.245 11.991417
57.250 11.172384
57.255 11.253949
57.260 11.408431
57.265 12.042636
57.270 12.06225
57.275 11.641852
57.280 11.592012
57.285 11.728994
57.290 11.525856
57.295 11.362444
57.300 11.139729
57.305 11.302367
57.310 11.753916
57.315 12.419799
57.320 12.56065
57.325 12.929635
57.330 13.429584
57.335 13.568091
57.340 13.714197
57.345 13.823869
57.350 13.677653
57.355 12.958769
57.360 12.695241
57.365 12.200488
57.370 11.949273
57.375 11.37822
57.380 10.963782
57.385 11.112021
57.390 11.137672
57.395 10.774875
57.400 10.972385
57.405 11.16458
57.410 11.241464
57.415 11.194882
57.420 11.597407
57.425 12.203195
57.430 12.891602
57.435 12.756988
57.440 13.012616
57.445 13.374158
57.450 13.075181
57.455 12.889299
57.460 13.035878
57.465 12.949195
57.470 12.965492
57.475 12.892178
57.480 12.838243
57.485 13.488283
57.490 13.334585
57.495 12.878305
57.500 12.651976
57.505 12.752203
57.510 12.519325
57.515 12.81616
57.520 12.470874
57.525 12.375014
57.530 12.352694
57.535 12.387756
57.540 12.301462
57.545 11.86926
57.550 11.403632
57.555 11.035354
57.560 11.285144
57.565 11.046608
57.570 11.007906
57.575 11.088087
57.580 11.6188
57.585 11.578997
57.590 11.406833
57.595 11.247064
57.600 11.173979
57.605 11.266698
57.610 11.4253
57.615 11.395177
57.620 11.921193
57.625 12.799014
57.630 13.345557
57.635 13.146914
57.640 13.087811
57.645 12.676597
57.650 12.15535
57.655 11.72658
57.660 10.778625
57.665 10.494078
57.670 10.949232
57.675 10.871218
57.680 11.371956
57.685 11.874662
57.690 11.806347
57.695 12.327779
57.700 12.792567
57.705 13.101563
57.710 13.328455
57.715 13.520865
57.720 13.835439
57.725 13.945599
57.730 13.966514
57.735 13.848166
57.740 13.476667
57.745 13.245811
57.750 12.84635
57.755 12.578131
57.760 12.592688
57.765 12.158442
57.770 11.861073
57.775 12.298748
57.780 12.159847
57.785 12.314387
57.790 12.353704
57.795 12.358957
57.800 12.196669
57.805 11.80879
57.810 11.59362
57.815 11.6283
57.820 11.169255
57.825 10.963753
57.830 11.00321
57.835 11.775062
57.840 12.506091
57.845 12.695243
57.850 12.740284
57.855 13.053338
57.860 13.109835
57.865 12.825096
57.870 12.317522
57.875 12.09189
57.880 12.201704
57.885 12.617058
57.890 12.984252
57.895 13.089368
57.900 13.349996
57.905 13.389832
57.910 13.964926
57.915 14.060841
57.920 13.971547
57.925 14.161618
57.930 14.364789
57.935 14.352016
57.940 13.960796
57.945 13.581101
57.950 13.512755
57.955 13.372729
57.960 13.014192
57.965 12.302958
57.970 11.837299
57.975 11.957419
57.980 11.640741
57.985 11.430405
57.990 11.299796
57.995 10.789664
58.000 11.032002
58.005 11.623223
58.010 11.810993
58.015 11.762167
58.020 11.891517
58.025 11.965318
58.030 12.550228
58.035 12.594694
58.040 12.576484
58.045 12.688462
58.050 12.904982
58.055 13.333292
58.060 14.037838
58.065 14.27222
58.070 14.371576
58.075 14.576755
58.080 14.591372
58.085 14.227231
58.090 14.004216
58.095 13.27323
58.100 12.716061
58.105 13.0702
58.110 13.089939
58.115 12.852088
58.120 12.808333
58.125 12.525425
58.130 13.074131
58.135 13.412229
58.140 13.106432
58.145 12.768919
58.150 12.363497
58.155 12.407175
58.160 12.157848
58.165 11.517615
58.170 11.250484
58.175 11.091534
58.180 11.724434
58.185 12.589687
58.190 12.772068
58.195 12.785264
58.200 13.16093
58.205 13.880393
58.210 13.483788
58.215 12.415072
58.220 11.657304
58.225 11.69197
58.230 12.444593
58.235 12.148566
58.240 11.716946
58.245 12.456047
58.250 12.918154
58.255 13.2343
58.260 12.712175
58.265 12.589019
58.270 12.720393
58.275 12.604455
58.280 12.328793
58.285 12.361741
58.290 12.060431
58.295 11.906696
58.300 12.331412
58.305 12.856788
58.310 12.930252
58.315 13.134065
58.320 13.49264
58.325 13.784698
58.330 13.992219
58.335 13.427389
58.340 13.18367
58.345 13.136345
58.350 13.095957
58.355 13.03947
58.360 13.407827
58.365 13.835177
58.370 13.626392
58.375 13.497658
58.380 13.616112
58.385 13.470265
58.390 13.480169
58.395 13.296876
58.400 13.033902
58.405 13.17493
58.410 13.175211
58.415 12.910571
58.420 13.113168
58.425 13.476158
58.430 13.999789
58.435 13.795481
58.440 13.601011
58.445 13.622279
58.450 14.231617
58.455 14.073379
58.460 13.369873
58.465 12.51298
58.470 12.907429
58.475 12.74477
58.480 12.804511
58.485 12.559449
58.490 12.637191
58.495 12.949265
58.500 13.081716
58.505 13.744103
58.510 14.39323
58.515 14.362334
58.520 14.431058
58.525 14.710772
58.530 14.451474
58.535 14.040525
58.540 13.2299
58.545 12.726155
58.550 12.477839
58.555 12.488167
58.560 12.073956
58.565 12.403326
58.570 12.860899
58.575 12.953598
58.580 13.301223
58.585 13.621498
58.590 13.368751
58.595 13.102428
58.600 13.156136
58.605 13.15274
58.610 13.163775
58.615 12.88637
58.620 13.032301
58.625 13.663084
58.630 14.3784
58.635 14.109873
58.640 14.149998
58.645 14.220706
58.650 14.433057
58.655 14.183127
58.660 13.741976
58.665 13.744829
58.670 14.272337
58.675 14.374099
58.680 14.558059
58.685 14.74296
58.690 14.870456
58.695 15.111573
58.700 14.738855
58.705 14.500631
58.710 14.446498
58.715 14.294951
58.720 14.061621
58.725 13.980507
58.730 13.854074
58.735 14.06377
58.740 13.775785
58.745 13.674224
58.750 13.383314
58.755 13.126683
58.760 13.127089
58.765 13.391487
58.770 13.040427
58.775 13.075157
58.780 12.471697
58.785 12.352975
58.790 12.253811
58.795 12.262742
58.800 12.013552
58.805 12.405972
58.810 12.259517
58.815 12.712455
58.820 12.997337
58.825 13.510802
58.830 13.749335
58.835 13.462408
58.840 13.566313
58.845 13.814231
58.850 13.655509
58.855 13.656285
58.860 13.538395
58.865 13.457012
58.870 14.020323
58.875 14.041014
58.880 14.348163
58.885 14.81731
58.890 14.858166
58.895 14.798271
58.900 14.517263
58.905 14.154041
58.910 13.964231
58.915 13.967016
58.920 14.218889
58.925 14.389255
58.930 14.408169
58.935 14.859193
58.940 15.492085
58.945 15.62602
58.950 15.059614
58.955 14.633268
58.960 14.504107
58.965 14.987313
58.970 14.792407
58.975 14.513703
58.980 14.687134
58.985 14.837837
58.990 14.927364
58.995 15.070861
59.000 14.796048
59.005 15.464703
59.010 15.456789
59.015 15.311072
59.020 15.637444
59.025 15.788071
59.030 15.279072
59.035 14.639935
59.040 14.42603
59.045 14.447694
59.050 14.841232
59.055 14.791509
59.060 14.189593
59.065 14.327095
59.070 14.560376
59.075 14.207903
59.080 14.751794
59.085 14.645829
59.090 14.619261
59.095 15.573991
59.100 15.878847
59.105 16.261038
59.110 15.89679
59.115 15.097552
59.120 14.670484
59.125 14.148031
59.130 13.774951
59.135 13.70432
59.140 13.641294
59.145 14.2472
59.150 14.738228
59.155 15.290643
59.160 15.900615
59.165 16.219345
59.170 16.53723
59.175 16.722948
59.180 16.178396
59.185 15.882649
59.190 15.80904
59.195 15.743663
59.200 15.276015
59.205 14.698213
59.210 14.683723
59.215 14.840956
59.220 14.703588
59.225 14.51049
59.230 14.360958
59.235 13.88242
59.240 13.60449
59.245 13.125883
59.250 13.124495
59.255 13.214238
59.260 13.440781
59.265 13.735373
59.270 14.610421
59.275 14.958408
59.280 15.840149
59.285 16.277781
59.290 16.709282
59.295 16.570692
59.300 16.742132
59.305 16.381067
59.310 16.11656
59.315 15.454553
59.320 15.286787
59.325 15.193856
59.330 15.328045
59.335 15.114651
59.340 15.594919
59.345 15.763695
59.350 15.302903
59.355 14.944399
59.360 14.921489
59.365 14.745562
59.370 14.827205
59.375 14.292871
59.380 14.120476
59.385 14.806106
59.390 15.465778
59.395 15.440031
59.400 15.507519
59.405 15.202026
59.410 15.264277
59.415 15.20806
59.420 15.071415
59.425 14.704871
59.430 14.910066
59.435 14.872672
59.440 15.395335
59.445 15.567531
59.450 15.497554
59.455 15.686409
59.460 15.950626
59.465 15.974879
59.470 15.787957
59.475 15.564374
59.480 15.358466
59.485 15.599566
59.490 15.165616
59.495 14.430144
59.500 13.916487
59.505 13.700566
59.510 13.337501
59.515 13.424475
59.520 13.345444
59.525 13.524621
59.530 13.890439
59.535 13.936603
59.540 14.189764
59.545 14.569603
59.550 14.600556
59.555 14.592423
59.560 14.019053
59.565 13.706792
59.570 13.905174
59.575 13.785614
59.580 13.723221
59.585 13.773639
59.590 14.623627
59.595 15.348975
59.600 15.494764
59.605 15.673385
59.610 16.221731
59.615 16.681715
59.620 16.959568
59.625 16.516771
59.630 16.99688
59.635 17.291294
59.640 17.269724
59.645 16.980888
59.650 16.587742
59.655 15.881924
59.660 15.826618
59.665 15.399478
59.670 14.900206
59.675 14.660543
59.680 15.076362
59.685 15.144094
59.690 15.603149
59.695 15.644987
59.700 15.909704
59.705 16.151703
59.710 15.960215
59.715 15.174087
59.720 15.12786
59.725 15.103104
59.730 15.853154
59.735 15.897795
59.740 16.406425
59.745 16.540821
59.750 16.959145
59.755 16.819574
59.760 17.144323
59.765 16.422163
59.770 15.843853
59.775 15.791513
59.780 16.839964
59.785 17.038704
59.790 17.489241
59.795 17.354849
59.800 17.570526
59.805 18.384972
59.810 18.321562
59.815 18.392445
59.820 18.736446
59.825 18.240358
59.830 17.645945
59.835 17.202448
59.840 16.617144
59.845 16.437813
59.850 16.035645
59.855 15.881835
59.860 16.369522
59.865 16.650686
59.870 16.435823
59.875 16.753164
59.880 17.094536
59.885 16.795694
59.890 17.316708
59.895 16.936422
59.900 16.732788
59.905 16.963694
59.910 16.275225
59.915 16.282345
59.920 16.466932
59.925 15.654991
59.930 15.788275
59.935 16.260698
59.940 16.380863
59.945 16.920605
59.950 16.943161
59.955 16.693552
59.960 17.199915
59.965 17.84367
59.970 18.129204
59.975 18.146889
59.980 17.81752
59.985 17.429136
59.990 17.466993
59.995 17.139208
60.000 16.596231
60.005 17.024122
60.010 17.853374
60.015 18.337791
60.020 18.489895
60.025 18.164469
60.030 18.289576
60.035 18.188923
60.040 17.378096
60.045 16.876818
60.050 17.308712
60.055 17.432528
60.060 17.877932
60.065 18.045654
60.070 18.48518
60.075 18.800928
60.080 18.751701
60.085 18.310539
60.090 18.187574
60.095 18.421204
60.100 18.172884
60.105 17.922031
60.110 17.710897
60.115 18.203077
60.120 18.222561
60.125 18.483568
60.130 18.028515
60.135 18.342123
60.140 17.87195
60.145 18.177301
60.150 18.026964
60.155 18.341467
60.160 17.897568
60.165 18.230995
60.170 18.46295
60.175 18.875292
60.180 18.536951
60.185 18.024473
60.190 17.696188
60.195 18.420515
60.200 18.939114
60.205 19.175434
60.210 19.251287
60.215 19.602648
60.220 20.551126
60.225 21.038225
60.230 20.583656
60.235 20.312752
60.240 20.00738
60.245 20.103386
60.250 20.04987
60.255 19.62838
60.260 19.391018
60.265 19.193693
60.270 18.844469
60.275 18.748659
60.280 19.074797
60.285 19.069059
60.290 19.408684
60.295 19.344023
60.300 19.327995
60.305 19.509743
60.310 19.455914
60.315 19.079767
60.320 18.994856
60.325 18.887953
60.330 19.292702
60.335 19.423401
60.340 19.427477
60.345 19.161596
60.350 18.736107
60.355 18.345049
60.360 18.103191
60.365 17.89843
60.370 17.846184
60.375 17.220018
60.380 17.433693
60.385 18.325073
60.390 18.597528
60.395 18.717184
60.400 18.554327
60.405 18.460722
60.410 18.510689
60.415 18.037439
60.420 18.027384
60.425 18.12772
60.430 18.345764
60.435 18.596006
60.440 18.71129
60.445 19.279278
60.450 19.991446
60.455 19.673298
60.460 19.226007
60.465 18.676661
60.470 18.615396
60.475 19.276581
60.480 19.390223
60.485 19.32704
60.490 19.244202
60.495 19.153498
60.500 19.121208
60.505 19.157316
60.510 18.836239
60.515 18.532738
60.520 18.124292
60.525 18.561344
60.530 18.709532
60.535 19.07678
60.540 19.201231
60.545 19.291277
60.550 19.485918
60.555 19.294718
60.560 19.046209
60.565 19.234913
60.570 19.563078
60.575 19.043093
60.580 19.189323
60.585 19.548071
60.590 19.952551
60.595 20.333288
60.600 19.780092
60.605 18.682795
60.610 18.821589
60.615 17.982111
60.620 17.845047
60.625 17.796888
60.630 17.362209
60.635 17.122267
60.640 18.236767
60.645 18.150394
60.650 17.87365
60.655 16.93717
60.660 16.403925
60.665 16.267204
60.670 16.950539
60.675 16.207453
60.680 16.725031
60.685 17.123211
60.690 17.341112
60.695 17.59837
60.700 17.797676
60.705 18.110037
60.710 18.258518
60.715 18.197224
60.720 18.86466
60.725 19.22212
60.730 19.04286
60.735 18.588095
60.740 17.551376
60.745 17.58284
60.750 17.434759
60.755 16.555487
60.760 15.930961
60.765 15.879704
60.770 16.447229
60.775 16.663702
60.780 16.828091
60.785 16.987461
60.790 16.829914
60.795 17.410654
60.800 17.383671
60.805 17.545755
60.810 17.73675
60.815 17.457367
60.820 17.459528
60.825 18.383883
60.830 18.333172
60.835 17.862
60.840 17.032827
60.845 16.593597
60.850 16.311239
60.855 16.733814
60.860 16.140797
60.865 16.049473
60.870 16.518345
60.875 17.253054
60.880 17.967249
60.885 18.241056
60.890 18.006262
60.895 18.155058
60.900 18.450354
60.905 18.819817
60.910 18.088707
60.915 17.535797
60.920 17.330029
60.925 16.921993
60.930 16.40439
60.935 16.300001
60.940 16.11412
60.945 16.204613
60.950 16.614695
60.955 16.637728
60.960 16.523581
60.965 17.002275
60.970 16.943565
60.975 16.896124
60.980 17.091093
60.985 16.636984
60.990 15.998873
60.995 15.754214
61.000 15.840248
61.005 16.128717
61.010 16.271717
61.015 15.8936
61.020 16.111111
61.025 17.014982
61.030 17.628811
61.035 17.402927
61.040 16.912716
61.045 16.365036
61.050 16.655476
61.055 16.637474
61.060 15.916609
61.065 15.30209
61.070 15.261788
61.075 15.754602
61.080 16.446289
61.085 16.369135
61.090 16.061203
61.095 16.520798
61.100 16.619715
61.105 16.069252
61.110 15.825035
61.115 15.822379
61.120 15.672995
61.125 15.510754
61.130 15.472542
61.135 15.680604
61.140 16.315434
61.145 16.499685
61.150 16.054066
61.155 15.947772
61.160 15.613572
61.165 14.988455
61.170 14.614338
61.175 14.198164
61.180 13.895761
61.185 13.971963
61.190 14.144794
61.195 14.464244
61.200 14.936199
61.205 15.600248
61.210 15.658834
61.215 15.327799
61.220 15.601231
61.225 15.65511
61.230 15.927432
61.235 15.764975
61.240 15.361339
61.245 15.343151
61.250 15.446313
61.255 15.050839
61.260 15.137655
61.265 15.419822
61.270 15.572134
61.275 15.928276
61.280 16.207935
61.285 16.639158
61.290 16.95047
61.295 17.200377
61.300 16.683359
61.305 16.622826
61.310 16.285742
61.315 15.565318
61.320 15.457695
61.325 15.150671
61.330 14.197691
61.335 13.700921
61.340 13.619858
61.345 13.724587
61.350 14.055189
61.355 13.972394
61.360 14.307149
61.365 15.179292
61.370 15.876198
61.375 15.990341
61.380 15.82203
61.385 15.6745
61.390 15.450018
61.395 15.06764
61.400 14.707808
61.405 15.073731
61.410 14.512105
61.415 14.874346
61.420 15.425488
61.425 15.617353
61.430 15.615742
61.435 15.400007
61.440 14.741289
61.445 15.157213
61.450 14.455386
61.455 14.253134
61.460 14.462392
61.465 14.757361
61.470 15.24857
61.475 16.038124
61.480 16.340109
61.485 17.007721
61.490 17.252085
61.495 16.873022
61.500 16.927128
61.505 16.682907
61.510 16.373064
61.515 16.179472
61.520 15.977884
61.525 16.003094
61.530 16.361753
61.535 16.667242
61.540 16.726187
61.545 16.790514
61.550 17.139978
61.555 17.4345
61.560 17.444071
61.565 17.30439
61.570 16.717554
61.575 16.906364
61.580 16.860977
61.585 16.376053
61.590 15.799747
61.595 15.069197
61.600 15.103972
61.605 14.935289
61.610 14.854837
61.615 14.773468
61.620 15.235296
61.625 15.59106
61.630 15.946273
61.635 16.341223
61.640 17.025995
61.645 17.578529
61.650 18.039574
61.655 18.00576
61.660 17.888849
61.665 17.739195
61.670 17.032476
61.675 16.817438
61.680 16.260252
61.685 15.505549
61.690 15.111334
61.695 14.808577
61.700 14.971098
61.705 14.927771
61.710 14.23328
61.715 14.482485
61.720 15.141144
61.725 15.225782
61.730 15.163013
61.735 15.195989
61.740 15.314543
61.745 15.411197
61.750 14.379139
61.755 13.667799
61.760 13.434426
61.765 13.559128
61.770 13.522641
61.775 13.820827
61.780 14.295753
61.785 14.74991
61.790 14.957417
61.795 15.232049
61.800 15.809003
61.805 15.675216
61.810 15.622574
61.815 15.587805
61.820 16.108519
61.825 16.548628
61.830 16.892675
61.835 16.706095
61.840 16.921448
61.845 17.137386
61.850 17.089582
61.855 17.046543
61.860 16.703085
61.865 16.274569
61.870 16.066835
61.875 15.994188
61.880 16.253824
61.885 16.33766
61.890 15.902709
61.895 16.110344
61.900 16.193893
61.905 16.667017
61.910 17.017296
61.915 17.144487
61.920 17.777618
61.925 18.077921
61.930 17.92065
61.935 17.728064
61.940 17.058941
61.945 16.955811
61.950 16.597893
61.955 15.935877
61.960 15.424157
61.965 15.340474
61.970 15.233682
61.975 15.549692
61.980 15.368816
61.985 15.013245
61.990 15.00994
61.995 15.110299
62.000 15.615692
62.005 16.03764
62.010 15.77463
62.015 15.545932
62.020 15.738048
62.025 15.910758
62.030 15.500618
62.035 15.014752
62.040 14.729036
62.045 14.573252
62.050 14.533788
62.055 13.923419
62.060 13.418084
62.065 14.108812
62.070 14.300396
62.075 14.653503
62.080 14.530556
62.085 14.421858
62.090 14.741532
62.095 14.983794
62.100 14.447534
62.105 14.464962
62.110 14.685614
62.115 15.510454
62.120 16.054846
62.125 16.458166
62.130 16.734724
62.135 17.164705
62.140 17.325884
62.145 17.202688
62.150 16.544518
62.155 16.29318
62.160 16.366299
62.165 16.904202
62.170 17.683081
62.175 17.580927
62.180 17.504213
62.185 17.832928
62.190 17.427753
62.195 16.943886
62.200 16.318726
62.205 16.421352
62.210 16.694901
62.215 16.175224
62.220 16.188082
62.225 16.562023
62.230 16.609278
62.235 16.260038
62.240 14.930394
62.245 15.026531
62.250 15.684582
62.255 15.723377
62.260 15.71117
62.265 15.634576
62.270 15.983255
62.275 16.175268
62.280 15.330496
62.285 15.032104
62.290 14.810667
62.295 14.59071
62.300 14.515736
62.305 14.306812
62.310 14.607292
62.315 14.830815
62.320 14.5678
62.325 14.38524
62.330 14.673087
62.335 14.944376
62.340 14.964277
62.345 14.753685
62.350 14.947781
62.355 15.403023
62.360 16.336283
62.365 16.614584
62.370 16.469925
62.375 16.314514
62.380 16.507824
62.385 16.704988
62.390 16.791264
62.395 16.719795
62.400 16.539909
62.405 16.701385
62.410 16.473021
62.415 16.498814
62.420 16.284269
62.425 15.555943
62.430 15.267455
62.435 15.143996
62.440 14.961152
62.445 15.658417
62.450 16.155956
62.455 16.502062
62.460 16.44849
62.465 16.591654
62.470 16.770859
62.475 16.844398
62.480 16.922478
62.485 16.276583
62.490 15.747384
62.495 16.455471
62.500 16.310806
62.505 16.273603
62.510 16.748329
62.515 16.761097
62.520 17.070974
62.525 17.173836
62.530 16.747446
62.535 16.915939
62.540 17.100794
62.545 16.644588
62.550 16.256163
62.555 17.485254
62.560 17.669369
62.565 17.755339
62.570 18.13743
62.575 18.234312
62.580 17.950951
62.585 18.306202
62.590 17.251301
62.595 17.142506
62.600 16.730455
62.605 16.057688
62.610 16.199242
62.615 16.75322
62.620 16.838108
62.625 17.13307
62.630 17.520895
62.635 17.752598
62.640 17.950081
62.645 17.509918
62.650 17.30372
62.655 16.392057
62.660 15.779132
62.665 15.880621
62.670 16.228354
62.675 16.19891
62.680 16.075197
62.685 16.045717
62.690 16.228613
62.695 16.502979
62.700 15.759122
62.705 15.681198
62.710 15.539028
62.715 15.826756
62.720 16.118122
62.725 16.229256
62.730 16.215414
62.735 16.787487
62.740 16.699625
62.745 16.725649
62.750 17.022942
62.755 16.696459
62.760 17.259352
62.765 17.196898
62.770 17.110146
62.775 16.373388
62.780 16.22106
62.785 16.266815
62.790 16.503468
62.795 15.780443
62.800 15.660339
62.805 16.297178
62.810 16.923004
62.815 16.798191
62.820 16.449078
62.825 16.250366
62.830 16.373293
62.835 15.987036
62.840 14.976212
62.845 14.922005
62.850 14.982673
62.855 15.282011
62.860 15.287403
62.865 14.896077
62.870 14.898547
62.875 15.262092
62.880 15.022904
62.885 14.590793
62.890 13.883479
62.895 13.360064
62.900 14.15776
62.905 14.570849
62.910 14.245768
62.915 14.124256
62.920 14.687108
62.925 14.953986
62.930 15.733729
62.935 15.714272
62.940 15.459969
62.945 15.900548
62.950 15.940853
62.955 15.572221
62.960 15.427881
62.965 14.925695
62.970 15.5826
62.975 16.208206
62.980 16.569603
62.985 17.412571
62.990 17.592054
62.995 18.308014
63.000 18.537975
63.005 17.760992
63.010 17.609882
63.015 17.275909
63.020 16.474915
63.025 16.496132
63.030 15.86784
63.035 15.480317
63.040 15.00494
63.045 15.202305
63.050 15.693172
63.055 15.946879
63.060 16.01004
63.065 16.733168
63.070 17.203276
63.075 17.066978
63.080 16.587818
63.085 16.494192
63.090 16.5245
63.095 16.629129
63.100 16.266277
63.105 15.733435
63.110 16.271828
63.115 16.236105
63.120 15.964828
63.125 16.323221
63.130 16.520643
63.135 16.775524
63.140 17.42552
63.145 16.969366
63.150 16.754517
63.155 16.549719
63.160 15.824188
63.165 15.709825
63.170 15.47444
63.175 15.289814
63.180 15.740389
63.185 15.798443
63.190 16.1903
63.195 16.598736
63.200 16.535238
63.205 16.152681
63.210 16.284018
63.215 15.720951
63.220 16.147144
63.225 15.899829
63.230 15.861472
63.235 15.744184
63.240 15.973932
63.245 15.54728
63.250 15.857285
63.255 16.023798
63.260 16.170662
63.265 16.29199
63.270 16.822552
63.275 17.403234
63.280 17.479506
63.285 17.680906
63.290 17.403997
63.295 17.420542
63.300 17.592484
63.305 16.794283
63.310 17.007357
63.315 17.922663
63.320 18.290874
63.325 18.704977
63.330 18.444597
63.335 17.983089
63.340 17.620934
63.345 16.82176
63.350 16.568953
63.355 15.995543
63.360 15.865941
63.365 16.212729
63.370 16.19644
63.375 16.652195
63.380 17.062311
63.385 16.670389
63.390 16.334221
63.395 16.367966
63.400 16.379711
63.405 16.654449
63.410 16.46269
63.415 16.286167
63.420 16.162907
63.425 16.353466
63.430 16.464933
63.435 16.212301
63.440 16.399494
63.445 16.170063
63.450 16.091518
63.455 16.445797
63.460 16.478277
63.465 16.103334
63.470 16.161865
63.475 16.024519
63.480 16.534014
63.485 16.755207
63.490 16.441093
63.495 16.219946
63.500 16.406456
63.505 16.669346
63.510 16.408234
63.515 15.844732
63.520 15.75962
63.525 15.657881
63.530 15.695063
63.535 15.737883
63.540 15.768106
63.545 16.044617
63.550 16.172739
63.555 16.166719
63.560 16.851097
63.565 17.225969
63.570 17.010366
63.575 16.877502
63.580 16.910858
63.585 16.909214
63.590 17.03874
63.595 17.163122
63.600 17.041023
63.605 16.985895
63.610 17.290449
63.615 17.16754
63.620 16.924849
63.625 17.021406
63.630 16.336401
63.635 16.466486
63.640 16.40308
63.645 16.314745
63.650 17.078157
63.655 17.408934
63.660 17.287752
63.665 17.485693
63.670 17.052097
63.675 17.017056
63.680 16.717497
63.685 16.403933
63.690 16.28912
63.695 16.450113
63.700 16.834208
63.705 16.994049
63.710 17.063421
63.715 16.875122
63.720 17.006618
63.725 16.663992
63.730 16.486023
63.735 16.276302
63.740 16.305021
63.745 16.256689
63.750 15.660785
63.755 15.443333
63.760 15.826774
63.765 16.27976
63.770 16.582903
63.775 16.318899
63.780 16.450651
63.785 17.260918
63.790 17.192162
63.795 17.075382
63.800 16.91992
63.805 16.679867
63.810 16.785894
63.815 16.935886
63.820 16.978792
63.825 17.095398
63.830 16.936712
63.835 16.639158
63.840 16.718737
63.845 17.06842
63.850 17.300465
63.855 17.089167
63.860 16.451508
63.865 16.446247
63.870 16.112274
63.875 16.273348
63.880 16.319685
63.885 15.781182
63.890 16.040377
63.895 16.323713
63.900 16.568827
63.905 16.499731
63.910 16.009743
63.915 15.939682
63.920 15.919814
63.925 16.12752
63.930 16.701906
63.935 16.785482
63.940 16.957287
63.945 16.957291
63.950 16.832716
63.955 17.811142
63.960 17.584599
63.965 17.945724
63.970 18.365522
63.975 18.628357
63.980 18.421898
63.985 18.372967
63.990 17.962894
63.995 19.035891
64.000 18.560089
64.005 18.044149
64.010 18.543306
64.015 18.957384
64.020 18.597898
64.025 18.292068
64.030 17.225931
64.035 17.837984
64.040 18.323214
64.045 18.379608
64.050 18.892937
64.055 18.978968
64.060 18.668655
64.065 18.565605
64.070 18.282639
64.075 18.540157
64.080 18.385551
64.085 18.069126
64.090 18.172596
64.095 18.341042
64.100 18.13962
64.105 17.792675
64.110 17.026945
64.115 16.694921
64.120 16.608124
64.125 16.852102
64.130 17.038147
64.135 17.132885
64.140 17.348473
64.145 17.881495
64.150 17.66534
64.155 17.428854
64.160 18.127131
64.165 18.416281
64.170 18.443863
64.175 18.182537
64.180 17.840523
64.185 17.612169
64.190 17.591379
64.195 17.218273
64.200 16.721628
64.205 16.411209
64.210 16.812016
64.215 17.226654
64.220 17.873373
64.225 18.10667
64.230 17.729502
64.235 18.227947
64.240 18.8169
64.245 18.236231
64.250 18.095608
64.255 18.025196
64.260 18.070755
64.265 18.531561
64.270 18.404537
64.275 18.198349
64.280 18.39283
64.285 18.453266
64.290 18.471731
64.295 18.103952
64.300 18.243568
64.305 17.945393
64.310 18.052795
64.315 18.12075
64.320 18.143309
64.325 17.797022
64.330 17.994473
64.335 18.104416
64.340 18.233007
64.345 18.079346
64.350 17.900101
64.355 17.527437
64.360 18.083221
64.365 18.247423
64.370 18.194448
64.375 18.186403
64.380 18.606398
64.385 19.089161
64.390 19.040777
64.395 18.482611
64.400 17.808235
64.405 17.641424
64.410 17.678802
64.415 17.426281
64.420 17.284805
64.425 17.555153
64.430 17.537214
64.435 18.203011
64.440 18.546652
64.445 18.780884
64.450 18.732443
64.455 18.644489
64.460 19.182024
64.465 19.908884
64.470 20.314127
64.475 20.183315
64.480 19.537985
64.485 19.656574
64.490 20.065357
64.495 20.201809
64.500 20.315821
64.505 19.486835
64.510 18.804686
64.515 18.673368
64.520 18.558939
64.525 18.197193
64.530 17.309198
64.535 17.097355
64.540 17.509153
64.545 18.371588
64.550 18.687904
64.555 18.887053
64.560 19.361654
64.565 19.390423
64.570 18.974112
64.575 18.679451
64.580 18.450602
64.585 18.146194
64.590 17.955204
64.595 17.678795
64.600 17.868946
64.605 18.17881
64.610 18.611956
64.615 19.200012
64.620 19.722137
64.625 19.363094
64.630 19.382284
64.635 19.251383
64.640 18.70842
64.645 18.947891
64.650 18.912777
64.655 18.618504
64.660 19.070536
64.665 18.859076
64.670 19.268295
64.675 19.362967
64.680 18.751604
64.685 18.256445
64.690 18.300379
64.695 18.155882
64.700 18.006495
64.705 17.927458
64.710 17.625504
64.715 17.744623
64.720 17.928196
64.725 17.951548
64.730 17.773825
64.735 17.826576
64.740 17.768183
64.745 18.054998
64.750 18.29314
64.755 18.586443
64.760 18.660017
64.765 18.729975
64.770 18.395245
64.775 18.356136
64.780 17.84857
64.785 16.970078
64.790 16.638323
64.795 16.891691
64.800 17.183826
64.805 17.765987
64.810 17.988247
64.815 18.448196
64.820 18.715687
64.825 18.533438
64.830 18.268103
64.835 18.081686
64.840 18.205263
64.845 18.492344
64.850 18.471664
64.855 19.063713
64.860 19.611858
64.865 19.617834
64.870 19.86792
64.875 19.446941
64.880 19.221266
64.885 19.542881
64.890 19.709156
64.895 19.66008
64.900 19.118771
64.905 18.987902
64.910 19.514797
64.915 19.402445
64.920 19.199707
64.925 18.898634
64.930 18.792688
64.935 18.734961
64.940 18.310081
64.945 17.777832
64.950 18.427082
64.955 18.413286
64.960 18.15258
64.965 18.88176
64.970 19.867331
64.975 20.823984
64.980 20.779755
64.985 20.623404
64.990 21.136015
64.995 21.442591
65.000 20.777668
65.005 20.370304
65.010 19.576094
65.015 19.651665
65.020 19.717865
65.025 19.25057
65.030 18.482038
65.035 18.21917
65.040 18.181431
65.045 18.495247
65.050 18.613623
65.055 18.381304
65.060 18.497696
65.065 18.64257
65.070 19.222914
65.075 19.502026
65.080 19.395561
65.085 19.30595
65.090 19.052418
65.095 19.128704
65.100 19.790689
65.105 19.540966
65.110 19.230907
65.115 19.424675
65.120 19.043123
65.125 19.701357
65.130 20.330879
65.135 20.537399
65.140 20.78578
65.145 21.033661
65.150 20.994549
65.155 21.383039
65.160 21.100395
65.165 21.378115
65.170 20.992418
65.175 20.362371
65.180 20.053568
65.185 20.346663
65.190 20.923235
65.195 21.412663
65.200 20.485035
65.205 20.658022
65.210 20.889397
65.215 21.038717
65.220 21.516537
65.225 20.941029
65.230 20.758001
65.235 21.184032
65.240 21.256472
65.245 21.695374
65.250 21.584669
65.255 21.473597
65.260 21.586664
65.265 21.665474
65.270 22.137642
65.275 22.762094
65.280 23.386547
65.285 23.552711
65.290 23.666695
65.295 23.917303
65.300 24.087275
65.305 24.280958
65.310 24.041901
65.315 23.940813
65.320 24.14974
65.325 23.947784
65.330 23.519119
65.335 22.632185
65.340 21.993484
65.345 21.532717
65.350 21.49638
65.355 21.692623
65.360 21.597692
65.365 21.821083
65.370 22.020798
65.375 22.297913
65.380 22.676327
65.385 22.57642
65.390 22.593992
65.395 22.486677
65.400 22.524681
65.405 22.435047
65.410 22.074341
65.415 21.985266
65.420 21.574371
65.425 21.693609
65.430 21.960556
65.435 22.631285
65.440 23.248857
65.445 23.321873
65.450 23.231745
65.455 23.236557
65.460 22.596045
65.465 22.390945
65.470 22.003368
65.475 22.423653
65.480 22.817352
65.485 23.200737
65.490 23.260231
65.495 23.689138
65.500 23.876881
65.505 24.081642
65.510 24.06109
65.515 24.03838
65.520 24.03404
65.525 25.012459
65.530 25.294989
65.535 25.674139
65.540 26.022333
65.545 25.888361
65.550 26.704321
65.555 26.419531
65.560 25.563786
65.565 25.404409
65.570 25.088551
65.575 25.426916
65.580 25.515806
65.585 25.282593
65.590 26.091301
65.595 26.563457
65.600 27.179291
65.605 27.608173
65.610 27.285559
65.615 27.387636
65.620 27.657272
65.625 27.968033
65.630 28.095272
65.635 27.821714
65.640 27.8533
65.645 27.98204
65.650 28.116768
65.655 28.054306
65.660 28.003298
65.665 28.563671
65.670 29.426529
65.675 29.31848
65.680 29.601849
65.685 30.408615
65.690 31.163467
65.695 31.760187
65.700 31.899115
65.705 32.387302
65.710 33.36058
65.715 33.325161
65.720 33.15934
65.725 32.213978
65.730 32.262806
65.735 32.154167
65.740 32.279453
65.745 32.324665
65.750 33.18425
65.755 32.795067
65.760 32.868252
65.765 32.519497
65.770 32.106506
65.775 31.95083
65.780 32.275684
65.785 32.392277
65.790 32.843418
65.795 33.710571
65.800 33.889637
65.805 34.326321
65.810 34.693481
65.815 34.618263
65.820 34.402363
65.825 34.364109
65.830 34.400867
65.835 34.252636
65.840 33.991524
65.845 33.776142
65.850 33.43396
65.855 33.988533
65.860 34.719925
65.865 35.111683
65.870 35.893932
65.875 35.426113
65.880 34.805119
65.885 35.377529
65.890 35.752457
65.895 35.668636
65.900 35.687042
65.905 35.488724
65.910 35.891411
65.915 35.761963
65.920 35.619789
65.925 35.673382
65.930 36.147373
65.935 36.262707
65.940 36.402439
65.945 36.355915
65.950 36.545284
65.955 36.429214
65.960 35.727917
65.965 34.326481
65.970 33.631298
65.975 33.461155
65.980 33.833843
65.985 33.24567
65.990 32.91708
65.995 32.807381
66.000 34.035599
66.005 34.60614
66.010 34.561802
66.015 34.419056
66.020 34.546646
66.025 34.718613
66.030 35.511524
66.035 35.018055
66.040 34.908398
66.045 34.988335
66.050 35.645592
66.055 36.021214
66.060 35.444611
66.065 34.869785
66.070 35.272068
66.075 35.62722
66.080 36.155762
66.085 35.598911
66.090 35.390862
66.095 35.599281
66.100 35.095936
66.105 33.807987
66.110 33.201107
66.115 32.624252
66.120 32.647861
66.125 33.315479
66.130 33.825359
66.135 33.97422
66.140 34.388382
66.145 33.515228
66.150 33.325405
66.155 33.634682
66.160 33.285667
66.165 33.297718
66.170 32.985416
66.175 33.208431
66.180 33.381432
66.185 32.192425
66.190 31.211718
66.195 30.729982
66.200 31.099287
66.205 31.270832
66.210 31.28425
66.215 31.302639
66.220 32.182758
66.225 32.619526
66.230 32.269348
66.235 31.151934
66.240 30.192957
66.245 29.496895
66.250 29.732054
66.255 29.725134
66.260 29.978386
66.265 30.660933
66.270 31.753586
66.275 32.46508
66.280 32.884388
66.285 32.126225
66.290 31.69915
66.295 31.401243
66.300 31.297476
66.305 30.47267
66.310 30.533167
66.315 30.831184
66.320 31.86289
66.325 32.669487
66.330 31.750566
66.335 31.325359
66.340 31.511648
66.345 31.335093
66.350 30.708324
66.355 30.495949
66.360 30.542276
66.365 30.897673
66.370 31.009287
66.375 30.128134
66.380 29.594007
66.385 29.445313
66.390 28.839979
66.395 28.077513
66.400 27.688646
66.405 27.406727
66.410 27.610987
66.415 28.657585
66.420 28.777975
66.425 28.45685
66.430 28.239717
66.435 28.132839
66.440 28.014896
66.445 27.613289
66.450 26.749338
66.455 26.657555
66.460 26.414549
66.465 26.707865
66.470 27.27261
66.475 26.662632
66.480 26.948713
66.485 26.694862
66.490 26.036205
66.495 26.506002
66.500 26.416994
66.505 26.42654
66.510 26.952471
66.515 25.955873
66.520 26.208656
66.525 26.275455
66.530 26.239983
66.535 25.509674
66.540 25.015587
66.545 25.070812
66.550 25.437914
66.555 25.032364
66.560 25.263327
66.565 25.124969
66.570 25.215467
66.575 24.733187
66.580 24.196947
66.585 24.629421
66.590 24.572289
66.595 24.220028
66.600 23.800968
66.605 23.326729
66.610 23.332054
66.615 23.749523
66.620 23.077419
66.625 23.092667
66.630 23.732861
66.635 24.078852
66.640 24.842188
66.645 25.060911
66.650 24.640682
66.655 24.896547
66.660 25.046125
66.665 24.658733
66.670 24.943321
66.675 25.074661
66.680 24.971048
66.685 24.511879
66.690 24.232815
66.695 24.061447
66.700 24.219578
66.705 23.537079
66.710 23.146841
66.715 23.632957
66.720 24.385586
66.725 24.624956
66.730 24.373762
66.735 24.420332
66.740 24.127405
66.745 23.597666
66.750 23.407423
66.755 23.199364
66.760 23.043625
66.765 23.388863
66.770 23.200043
66.775 23.484451
66.780 23.148577
66.785 22.325916
66.790 22.65564
66.795 22.187441
66.800 21.24107
66.805 21.232418
66.810 21.431496
66.815 21.849796
66.820 22.246342
66.825 21.428513
66.830 21.538673
66.835 21.685717
66.840 21.26165
66.845 21.236444
66.850 21.15292
66.855 21.044971
66.860 21.892784
66.865 22.066916
66.870 22.010616
66.875 22.979778
66.880 23.145224
66.885 23.131361
66.890 22.874716
66.895 22.699814
66.900 23.132109
66.905 23.954748
66.910 23.709663
66.915 23.542654
66.920 23.589188
66.925 23.524889
66.930 22.734459
66.935 22.324203
66.940 21.996119
66.945 21.328011
66.950 20.835899
66.955 20.508343
66.960 20.738714
66.965 21.066797
66.970 21.212315
66.975 20.996885
66.980 20.975185
66.985 21.278265
66.990 21.31336
66.995 20.794476
67.000 21.321896
67.005 21.484535
67.010 21.662104
67.015 21.700504
67.020 21.532482
67.025 21.59721
67.030 21.383371
67.035 20.718819
67.040 20.310734
67.045 20.114704
67.050 20.591978
67.055 20.67012
67.060 20.719738
67.065 20.798805
67.070 20.893055
67.075 21.489532
67.080 21.704231
67.085 21.416271
67.090 21.44137
67.095 21.34153
67.100 21.1749
67.105 20.837067
67.110 21.036087
67.115 21.347763
67.120 21.746798
67.125 21.858601
67.130 22.461172
67.135 22.539938
67.140 22.206091
67.145 21.81838
67.150 21.334322
67.155 20.963409
67.160 21.298569
67.165 21.532969
67.170 21.318913
67.175 21.467573
67.180 21.879768
67.185 21.976568
67.190 22.424274
67.195 21.856476
67.200 21.509838
67.205 22.060297
67.210 21.835155
67.215 21.500483
67.220 21.707108
67.225 21.518196
67.230 21.74777
67.235 22.001583
67.240 22.275806
67.245 22.111702
67.250 22.137087
67.255 21.789402
67.260 21.218744
67.265 20.967003
67.270 20.218452
67.275 19.820488
67.280 19.993584
67.285 19.998535
67.290 19.898294
67.295 20.220345
67.300 20.59012
67.305 20.872608
67.310 20.725492
67.315 20.199034
67.320 19.375456
67.325 19.537384
67.330 19.789791
67.335 19.393454
67.340 19.738789
67.345 19.569838
67.350 19.689508
67.355 20.149399
67.360 19.805319
67.365 20.338446
67.370 20.581146
67.375 20.334965
67.380 20.213533
67.385 20.508224
67.390 20.710844
67.395 20.394186
67.400 20.173038
67.405 20.122164
67.410 19.97876
67.415 20.20767
67.420 19.558216
67.425 19.512873
67.430 20.01091
67.435 19.798018
67.440 19.643969
67.445 19.970779
67.450 19.904797
67.455 20.092426
67.460 19.984476
67.465 19.525343
67.470 19.312422
67.475 19.181789
67.480 18.754995
67.485 19.779097
67.490 19.932947
67.495 19.542183
67.500 19.950848
67.505 20.340832
67.510 20.830843
67.515 21.401619
67.520 20.690754
67.525 20.037466
67.530 20.037378
67.535 19.265417
67.540 18.681919
67.545 18.652933
67.550 18.866383
67.555 19.461697
67.560 19.768225
67.565 20.154987
67.570 20.958975
67.575 21.387413
67.580 21.770926
67.585 22.507801
67.590 22.673622
67.595 23.11286
67.600 24.07086
67.605 23.854828
67.610 23.5966
67.615 23.160511
67.620 22.374838
67.625 22.436167
67.630 22.564383
67.635 21.586689
67.640 21.807451
67.645 21.752296
67.650 21.693235
67.655 21.652647
67.660 21.843252
67.665 21.406813
67.670 21.35878
67.675 20.810396
67.680 20.302319
67.685 20.242949
67.690 19.181496
67.695 18.390772
67.700 18.503727
67.705 18.655443
67.710 18.982033
67.715 19.921272
67.720 20.457928
67.725 20.961325
67.730 21.218809
67.735 21.383713
67.740 21.176523
67.745 20.747448
67.750 19.925135
67.755 19.795607
67.760 20.344379
67.765 20.249775
67.770 20.253361
67.775 20.387125
67.780 21.317329
67.785 21.046301
67.790 21.676498
67.795 21.91843
67.800 21.908531
67.805 22.397831
67.810 22.706345
67.815 22.235189
67.820 22.577917
67.825 22.140919
67.830 21.775415
67.835 22.027084
67.840 20.972916
67.845 20.732275
67.850 21.053198
67.855 20.71945
67.860 19.958992
67.865 19.845781
67.870 19.415087
67.875 19.981153
67.880 19.662376
67.885 18.963671
67.890 19.065382
67.895 19.463493
67.900 19.613495
67.905 20.126566
67.910 20.348846
67.915 20.938585
67.920 21.485529
67.925 21.721445
67.930 21.571581
67.935 21.077642
67.940 20.877121
67.945 20.269968
67.950 20.164385
67.955 19.798035
67.960 19.267731
67.965 19.405497
67.970 19.816238
67.975 19.448111
67.980 19.670794
67.985 19.62813
67.990 20.172972
67.995 20.582449
68.000 20.091702
68.005 19.849483
68.010 20.553177
68.015 20.746826
68.020 21.252073
68.025 21.357792
68.030 21.371424
68.035 22.375628
68.040 23.107836
68.045 23.495022
68.050 23.704052
68.055 22.894115
68.060 22.255203
68.065 22.106535
68.070 21.608606
68.075 21.237936
68.080 20.962442
68.085 21.164864
68.090 22.403606
68.095 23.233196
68.100 23.573833
68.105 23.503637
68.110 23.31588
68.115 22.789534
68.120 22.596916
68.125 22.200548
68.130 21.470476
68.135 21.022169
68.140 20.677691
68.145 20.492126
68.150 20.184179
68.155 19.900066
68.160 19.839008
68.165 20.24958
68.170 20.562054
68.175 20.653833
68.180 20.468296
68.185 20.855726
68.190 20.686598
68.195 20.408665
68.200 20.175234
68.205 20.039646
68.210 20.038832
68.215 19.985609
68.220 19.667881
68.225 19.70129
68.230 19.214781
68.235 18.992855
68.240 18.483137
68.245 18.758347
68.250 18.316029
68.255 17.652304
68.260 17.199841
68.265 17.597383
68.270 17.898146
68.275 19.152905
68.280 19.775034
68.285 20.186392
68.290 20.184088
68.295 20.29141
68.300 20.09868
68.305 19.908241
68.310 18.973385
68.315 18.319578
68.320 18.615328
68.325 19.25252
68.330 19.449627
68.335 19.354073
68.340 19.373983
68.345 19.650429
68.350 19.926401
68.355 20.638443
68.360 21.027424
68.365 21.087921
68.370 21.683094
68.375 21.599751
68.380 21.404875
68.385 21.966866
68.390 21.195942
68.395 20.606838
68.400 20.524179
68.405 20.326012
68.410 20.369625
68.415 20.039415
68.420 19.4067
68.425 19.203119
68.430 19.713432
68.435 19.824036
68.440 20.229017
68.445 20.005699
68.450 20.590595
68.455 21.318295
68.460 21.848017
68.465 21.891842
68.470 21.617075
68.475 21.149233
68.480 21.544909
68.485 21.725956
68.490 21.379381
68.495 20.992117
68.500 20.682631
68.505 20.400846
68.510 20.372713
68.515 19.956562
68.520 19.312267
68.525 19.523432
68.530 19.658018
68.535 19.708941
68.540 20.158945
68.545 20.159584
68.550 20.194647
68.555 19.748514
68.560 19.226948
68.565 19.463657
68.570 19.772137
68.575 19.676994
68.580 19.822462
68.585 19.856371
68.590 20.092152
68.595 20.00004
68.600 19.835375
68.605 19.412296
68.610 19.122471
68.615 19.359226
68.620 19.186487
68.625 19.064268
68.630 19.277412
68.635 19.771887
68.640 20.545696
68.645 20.492908
68.650 20.57325
68.655 21.431219
68.660 21.513882
68.665 21.46608
68.670 21.025461
68.675 20.526743
68.680 20.657507
68.685 20.360535
68.690 19.636829
68.695 19.59761
68.700 19.170481
68.705 19.225393
68.710 19.210629
68.715 19.036951
68.720 19.175035
68.725 19.730413
68.730 20.7785
68.735 21.159342
68.740 20.953745
68.745 21.319067
68.750 21.399292
68.755 21.284605
68.760 20.692635
68.765 20.18487
68.770 20.383326
68.775 20.14669
68.780 20.011257
68.785 20.30677
68.790 20.6297
68.795 20.337664
68.800 20.029835
68.805 19.99518
68.810 20.687389
68.815 20.713793
68.820 20.371216
68.825 20.700464
68.830 21.973852
68.835 22.431
68.840 22.345051
68.845 22.376865
68.850 22.504354
68.855 23.015581
68.860 23.033682
68.865 22.210506
68.870 22.657835
68.875 22.420864
68.880 22.325754
68.885 22.926777
68.890 22.865179
68.895 22.605165
68.900 22.757935
68.905 22.591475
68.910 22.953749
68.915 22.760794
68.920 22.321972
68.925 22.47645
68.930 22.935823
68.935 22.972456
68.940 22.83297
68.945 22.914127
68.950 23.163805
68.955 23.682661
68.960 23.187763
68.965 23.372463
68.970 23.800316
68.975 24.569727
68.980 24.368927
68.985 24.071321
68.990 23.992561
68.995 24.055305
69.000 23.410898
69.005 23.290127
69.010 23.315504
69.015 24.107765
69.020 24.399319
69.025 23.748043
69.030 23.636086
69.035 23.927542
69.040 23.786987
69.045 23.449736
69.050 23.453985
69.055 23.888693
69.060 24.400911
69.065 24.86698
69.070 25.119856
69.075 24.805454
69.080 24.260105
69.085 23.815748
69.090 23.431129
69.095 23.433041
69.100 23.354496
69.105 23.611311
69.110 24.231157
69.115 24.836054
69.120 24.812191
69.125 24.635063
69.130 24.602211
69.135 24.440733
69.140 24.516899
69.145 24.321379
69.150 24.023365
69.155 24.432337
69.160 24.218897
69.165 24.374355
69.170 24.313271
69.175 23.957699
69.180 24.417557
69.185 23.99074
69.190 24.604565
69.195 24.917013
69.200 24.94598
69.205 24.758139
69.210 25.177452
69.215 25.222975
69.220 25.211767
69.225 24.909502
69.230 24.974422
69.235 24.738653
69.240 24.50263
69.245 24.568712
69.250 24.936474
69.255 25.362925
69.260 25.540894
69.265 25.966543
69.270 26.683119
69.275 26.975643
69.280 26.578381
69.285 26.588575
69.290 26.629124
69.295 26.533686
69.300 26.396809
69.305 26.080215
69.310 26.372564
69.315 26.654863
69.320 26.482496
69.325 26.224852
69.330 26.990179
69.335 27.226105
69.340 27.684381
69.345 28.504648
69.350 28.608362
69.355 28.541225
69.360 28.009884
69.365 27.156677
69.370 26.948477
69.375 26.995022
69.380 26.37648
69.385 26.651743
69.390 26.937754
69.395 27.30171
69.400 27.376699
69.405 26.971558
69.410 26.921186
69.415 27.087772
69.420 26.915102
69.425 27.528866
69.430 27.885839
69.435 28.51606
69.440 28.970688
69.445 29.401865
69.450 29.047781
69.455 28.536312
69.460 27.862541
69.465 27.815769
69.470 27.227385
69.475 26.747377
69.480 26.636425
69.485 26.600603
69.490 27.448963
69.495 27.531332
69.500 27.444046
69.505 28.160065
69.510 28.422359
69.515 27.684458
69.520 27.315516
69.525 26.796816
69.530 27.233135
69.535 27.811476
69.540 27.754288
69.545 27.47114
69.550 28.255974
69.555 28.515219
69.560 27.749081
69.565 26.899088
69.570 25.868448
69.575 25.239191
69.580 25.001553
69.585 24.628819
69.590 24.840416
69.595 25.531685
69.600 26.000772
69.605 25.971897
69.610 25.952053
69.615 25.91811
69.620 25.973425
69.625 26.12289
69.630 26.023157
69.635 26.479408
69.640 26.80777
69.645 27.063568
69.650 27.472483
69.655 27.576494
69.660 27.90403
69.665 27.504963
69.670 26.644239
69.675 26.745998
69.680 26.916796
69.685 26.513033
69.690 26.460672
69.695 26.329388
69.700 26.317623
69.705 25.748592
69.710 25.248081
69.715 25.051374
69.720 25.208271
69.725 24.342134
69.730 24.082853
69.735 23.647228
69.740 24.159023
69.745 24.053186
69.750 24.427612
69.755 24.182058
69.760 24.207397
69.765 23.966251
69.770 24.616631
69.775 25.095966
69.780 24.915749
69.785 24.855169
69.790 24.846678
69.795 24.736414
69.800 24.432444
69.805 24.321091
69.810 23.630972
69.815 23.769449
69.820 23.06354
69.825 23.316853
69.830 23.296137
69.835 23.659269
69.840 23.6304
69.845 24.129271
69.850 24.258738
69.855 24.351969
69.860 24.923203
69.865 25.237059
69.870 24.828491
69.875 24.30657
69.880 23.611448
69.885 23.470243
69.890 23.42659
69.895 22.901482
69.900 22.541021
69.905 22.478981
69.910 23.076366
69.915 23.055254
69.920 22.881332
69.925 22.419607
69.930 22.38208
69.935 22.879389
69.940 22.992476
69.945 22.863773
69.950 23.045305
69.955 23.748852
69.960 23.380445
69.965 23.158894
69.970 22.44824
69.975 22.424988
69.980 22.294533
69.985 21.876472
69.990 21.772413
69.995 21.451044
70.000 21.425373
70.005 21.48469
70.010 20.565063
70.015 20.699144
70.020 20.359707
70.025 19.918369
70.030 20.326
70.035 20.20075
70.040 19.968683
70.045 20.020445
70.050 19.68646
70.055 20.24227
70.060 20.180244
70.065 20.677355
70.070 21.092962
70.075 21.29915
70.080 21.47728
70.085 21.28488
70.090 20.701086
70.095 20.602108
70.100 19.89028
70.105 19.48325
70.110 19.823803
70.115 19.685989
70.120 19.792213
70.125 20.160486
70.130 20.131811
70.135 19.610619
70.140 19.191568
70.145 18.978931
70.150 18.947857
70.155 19.24551
70.160 18.676304
70.165 18.755846
70.170 19.383245
70.175 19.816071
70.180 20.400797
70.185 20.825304
70.190 20.876884
70.195 20.815891
70.200 20.751026
70.205 20.739067
70.210 20.456114
70.215 20.198885
70.220 20.348494
70.225 20.031853
70.230 20.019968
70.235 19.909901
70.240 19.868061
70.245 19.721048
70.250 19.74157
70.255 19.383345
70.260 19.883976
70.265 20.740366
70.270 20.60158
70.275 20.579163
70.280 20.994459
70.285 20.725689
70.290 20.910784
70.295 20.615013
70.300 19.60918
70.305 19.519217
70.310 19.171003
70.315 18.541954
70.320 18.400246
70.325 18.275732
70.330 18.463345
70.335 19.053425
70.340 19.643232
70.345 20.322351
70.350 20.62595
70.355 20.429171
70.360 20.371851
70.365 20.471846
70.370 20.254486
70.375 19.78994
70.380 19.343807
70.385 18.940834
70.390 18.780184
70.395 18.462093
70.400 18.137926
70.405 18.294973
70.410 19.057659
70.415 18.994192
70.420 19.071033
70.425 19.06476
70.430 19.565355
70.435 19.709797
70.440 19.308344
70.445 18.324604
70.450 18.315411
70.455 18.249094
70.460 18.319016
70.465 17.763113
70.470 17.726173
70.475 18.442289
70.480 18.786528
70.485 18.829376
70.490 18.63732
70.495 18.716925
70.500 18.964535
70.505 18.799189
70.510 18.285002
70.515 17.751877
70.520 18.025396
70.525 18.155411
70.530 17.97933
70.535 17.87797
70.540 17.166674
70.545 17.146511
70.550 17.689156
70.555 17.910709
70.560 17.850584
70.565 17.757563
70.570 17.736639
70.575 17.837152
70.580 17.826674
70.585 17.491926
70.590 16.803379
70.595 17.162842
70.600 17.789967
70.605 17.938797
70.610 18.083748
70.615 18.20929
70.620 18.433708
70.625 18.993519
70.630 18.4335
70.635 18.042351
70.640 17.635244
70.645 17.231768
70.650 17.460051
70.655 17.822245
70.660 18.327349
70.665 18.854242
70.670 18.853041
70.675 19.219341
70.680 19.547047
70.685 19.489199
70.690 19.06695
70.695 19.383234
70.700 18.90369
70.705 18.767843
70.710 18.385515
70.715 18.297258
70.720 18.338198
70.725 18.832962
70.730 18.681925
70.735 19.110508
70.740 19.215324
70.745 19.33773
70.750 19.014517
70.755 19.380224
70.760 19.5326
70.765 19.191313
70.770 19.418268
70.775 19.553015
70.780 19.185797
70.785 18.97212
70.790 18.10392
70.795 17.774191
70.800 17.719976
70.805 17.326422
70.810 17.496819
70.815 18.173508
70.820 18.462015
70.825 18.230328
70.830 18.352318
70.835 18.596388
70.840 18.860039
70.845 18.418964
70.850 17.734005
70.855 17.454617
70.860 17.940441
70.865 18.137415
70.870 17.964514
70.875 18.147861
70.880 18.489065
70.885 18.252256
70.890 18.695814
70.895 18.478445
70.900 17.937704
70.905 18.093513
70.910 17.884825
70.915 18.384472
70.920 19.230654
70.925 19.096354
70.930 18.973108
70.935 19.051561
70.940 19.145555
70.945 19.71002
70.950 19.330868
70.955 18.630136
70.960 18.776649
70.965 19.403624
70.970 19.294252
70.975 18.8393
70.980 18.285789
70.985 18.751057
70.990 18.859367
70.995 18.430435
71.000 18.391502
71.005 18.961082
71.010 19.137497
71.015 19.337507
71.020 19.744446
71.025 20.100096
71.030 20.370396
71.035 20.085821
71.040 19.921076
71.045 19.970789
71.050 19.823952
71.055 19.629622
71.060 19.365156
71.065 19.003592
71.070 18.737732
71.075 18.654951
71.080 18.113846
71.085 18.136251
71.090 18.718109
71.095 19.032188
71.100 19.154491
71.105 19.17156
71.110 19.636141
71.115 19.452374
71.120 18.696274
71.125 17.843458
71.130 17.949699
71.135 18.24921
71.140 18.799873
71.145 18.834055
71.150 18.889954
71.155 19.008966
71.160 18.803822
71.165 17.949841
71.170 17.789083
71.175 17.780697
71.180 17.693607
71.185 18.112232
71.190 18.260138
71.195 18.067249
71.200 18.461782
71.205 17.779057
71.210 17.672943
71.215 17.856956
71.220 17.508427
71.225 17.419056
71.230 17.834543
71.235 17.580143
71.240 17.171833
71.245 16.97962
71.250 17.019283
71.255 16.868437
71.260 17.115417
71.265 17.549709
71.270 18.095581
71.275 18.560642
71.280 18.231901
71.285 18.343908
71.290 18.856199
71.295 18.822239
71.300 17.896847
71.305 17.729755
71.310 17.756794
71.315 18.463066
71.320 18.501814
71.325 18.067083
71.330 17.412544
71.335 17.792727
71.340 17.358904
71.345 17.017469
71.350 16.245646
71.355 16.108807
71.360 16.836691
71.365 17.431669
71.370 17.595835
71.375 18.053003
71.380 18.442781
71.385 19.007067
71.390 19.602585
71.395 19.474089
71.400 19.917835
71.405 19.987892
71.410 19.981874
71.415 20.156736
71.420 20.465258
71.425 20.115942
71.430 20.012207
71.435 18.810802
71.440 18.576906
71.445 18.335102
71.450 17.652594
71.455 17.096884
71.460 16.929125
71.465 16.924572
71.470 17.594872
71.475 17.790838
71.480 18.453489
71.485 18.739264
71.490 18.85227
71.495 18.372696
71.500 17.850134
71.505 18.014835
71.510 17.96069
71.515 17.747849
71.520 17.408777
71.525 17.422247
71.530 17.846256
71.535 18.689955
71.540 18.912605
71.545 18.751196
71.550 18.8578
71.555 18.562691
71.560 18.637224
71.565 18.57896
71.570 17.82715
71.575 17.062332
71.580 17.065796
71.585 17.476011
71.590 17.664215
71.595 18.064909
71.600 17.968626
71.605 18.290041
71.610 18.368315
71.615 17.817728
71.620 17.810232
71.625 18.367779
71.630 18.507074
71.635 18.731146
71.640 19.135256
71.645 19.210032
71.650 19.207157
71.655 19.047972
71.660 18.955528
71.665 18.833344
71.670 18.750109
71.675 18.603518
71.680 19.393887
71.685 19.547865
71.690 19.369251
71.695 19.026817
71.700 19.38714
71.705 19.423155
71.710 19.605478
71.715 19.520811
71.720 19.757826
71.725 19.895634
71.730 20.24629
71.735 19.923611
71.740 20.115583
71.745 19.770523
71.750 19.646805
71.755 19.534483
71.760 19.356909
71.765 19.474291
71.770 19.61145
71.775 19.74324
71.780 19.515457
71.785 19.671984
71.790 19.223362
71.795 18.759811
71.800 18.381777
71.805 18.162001
71.810 17.931765
71.815 17.817301
71.820 17.965893
71.825 18.340403
71.830 18.544901
71.835 17.959631
71.840 17.832541
71.845 18.087019
71.850 17.991867
71.855 17.71699
71.860 17.849798
71.865 17.971758
71.870 17.958162
71.875 17.981211
71.880 18.106976
71.885 18.458672
71.890 18.741789
71.895 18.651577
71.900 18.692806
71.905 19.073942
71.910 19.500687
71.915 19.480383
71.920 19.654703
71.925 19.303114
71.930 18.93923
71.935 18.812904
71.940 18.90929
71.945 18.557034
71.950 18.206396
71.955 18.042498
71.960 18.425531
71.965 19.180162
71.970 19.392967
71.975 19.14312
71.980 19.246943
71.985 19.138157
71.990 18.954556
71.995 19.225981
72.000 18.685368
72.005 18.587225
72.010 18.325153
72.015 18.110834
72.020 18.387781
72.025 18.325605
72.030 18.436522
72.035 19.141941
72.040 19.232248
72.045 19.629097
72.050 19.688995
72.055 19.936052
72.060 19.617512
72.065 19.068264
72.070 18.844463
72.075 18.935066
72.080 18.401125
72.085 18.109352
72.090 17.678984
72.095 17.520494
72.100 17.630222
72.105 17.546066
72.110 16.927402
72.115 17.084499
72.120 16.917084
72.125 17.21291
72.130 17.110401
72.135 17.14941
72.140 17.22307
72.145 17.276863
72.150 17.07703
72.155 17.422277
72.160 17.301561
72.165 17.490158
72.170 17.393862
72.175 17.996851
72.180 18.663248
72.185 18.564854
72.190 18.628744
72.195 18.895967
72.200 19.131971
72.205 19.010191
72.210 18.731882
72.215 18.511133
72.220 18.803106
72.225 18.596394
72.230 18.512234
72.235 18.359604
72.240 18.346537
72.245 17.778921
72.250 18.52965
72.255 18.896265
72.260 19.147076
72.265 19.344177
72.270 19.187143
72.275 18.939999
72.280 19.085476
72.285 19.008406
72.290 18.629808
72.295 18.582178
72.300 18.288515
72.305 18.636276
72.310 19.028111
72.315 18.815819
72.320 18.735754
72.325 18.54343
72.330 18.556957
72.335 18.950926
72.340 18.932121
72.345 18.896242
72.350 18.212523
72.355 18.303097
72.360 17.935539
72.365 17.706579
72.370 17.058346
72.375 16.69397
72.380 16.581392
72.385 16.227154
72.390 16.142593
72.395 15.98989
72.400 16.213381
72.405 16.427105
72.410 16.644367
72.415 17.459751
72.420 17.889656
72.425 17.957638
72.430 17.88657
72.435 17.6632
72.440 17.651741
72.445 17.353266
72.450 17.287075
72.455 17.169027
72.460 17.3202
72.465 17.771868
72.470 17.615931
72.475 17.849382
72.480 17.616488
72.485 17.783018
72.490 17.782661
72.495 17.396477
72.500 16.721996
72.505 16.442316
72.510 16.475866
72.515 16.304312
72.520 16.569038
72.525 17.164492
72.530 17.556044
72.535 18.110006
72.540 18.378248
72.545 18.439493
72.550 18.379406
72.555 18.121534
72.560 17.963142
72.565 17.720079
72.570 17.328194
72.575 17.459764
72.580 17.64192
72.585 17.868729
72.590 18.191402
72.595 18.078756
72.600 18.247307
72.605 18.085419
72.610 17.778713
72.615 17.523165
72.620 17.403244
72.625 17.233784
72.630 17.567217
72.635 18.129377
72.640 18.290457
72.645 18.476542
72.650 18.789038
72.655 18.151089
72.660 18.095169
72.665 18.002691
72.670 17.812437
72.675 17.856249
72.680 17.743767
72.685 17.884956
72.690 18.339598
72.695 18.147982
72.700 18.027098
72.705 18.262871
72.710 18.484993
72.715 18.753811
72.720 18.973526
72.725 19.05904
72.730 18.850218
72.735 19.25757
72.740 19.539509
72.745 19.088543
72.750 18.923639
72.755 18.276676
72.760 18.21629
72.765 18.691589
72.770 17.834253
72.775 17.119404
72.780 17.852129
72.785 17.752989
72.790 18.525774
72.795 18.48131
72.800 18.634529
72.805 18.936409
72.810 18.946003
72.815 18.062439
72.820 17.46306
72.825 16.401588
72.830 16.068771
72.835 15.546141
72.840 15.687051
72.845 15.866028
72.850 16.14912
72.855 16.767405
72.860 16.815186
72.865 16.616188
72.870 17.047285
72.875 16.592846
72.880 16.597195
72.885 15.862717
72.890 15.562545
72.895 15.809399
72.900 15.910871
72.905 16.443117
72.910 16.251442
72.915 16.448853
72.920 17.039679
72.925 17.015694
72.930 16.838011
72.935 16.743162
72.940 17.009663
72.945 17.474434
72.950 17.565624
72.955 18.077318
72.960 18.498747
72.965 18.606768
72.970 17.978968
72.975 17.497829
72.980 17.230391
72.985 16.724218
72.990 16.45974
72.995 16.580561
73.000 17.035051
