!@!!GADDS PLOTSO FILE: Chi integration type
!@!!Title/SampleName: map-23
!@!!Comment: ?
!@!!User: Bruker Instrument Administrator
!@!!Site: University of Illinois Chicago
!@!!Frame: map-23_01_000.gfrm
!@!!Wavelengths    1.54184   1.54056   1.54439
!@!!Frame angles: 2Theta: 63.000 Omega: 50.000 Phi: 0.000 Chi: 90.000
!@!!Integration range: 2Theta: 53.000 to 73.000  Gamma: -105.000 to -75.000
!@!!Integration method: bin normalized
!@!N
!@!SS
!@!M
!@!L 0.0 0.0 0.0 0.0
!@!XDegrees
!@!YCounts
53.000 9.029138
53.005 9.076077
53.010 9.081735
53.015 8.961235
53.020 8.620721
53.025 8.589239
53.030 9.031359
53.035 9.06598
53.040 8.666684
53.045 8.677199
53.050 8.616804
53.055 8.762081
53.060 8.627507
53.065 8.720166
53.070 8.875569
53.075 9.027431
53.080 9.154094
53.085 9.453697
53.090 9.467717
53.095 9.292081
53.100 9.123079
53.105 9.65006
53.110 9.84205
53.115 9.622584
53.120 9.270104
53.125 8.934899
53.130 9.249448
53.135 9.023735
53.140 8.65122
53.145 8.51589
53.150 8.786408
53.155 9.097342
53.160 9.382604
53.165 9.086968
53.170 9.150635
53.175 9.517269
53.180 9.707615
53.185 9.911044
53.190 9.797466
53.195 9.219564
53.200 9.211098
53.205 8.881961
53.210 8.585807
53.215 7.910118
53.220 7.734504
53.225 7.948763
53.230 8.524485
53.235 8.785378
53.240 8.784293
53.245 8.559524
53.250 8.810224
53.255 8.675406
53.260 8.871465
53.265 8.73757
53.270 8.777907
53.275 8.786434
53.280 9.145156
53.285 9.011548
53.290 8.910295
53.295 8.918091
53.300 8.557053
53.305 8.539483
53.310 8.773259
53.315 9.224805
53.320 9.658566
53.325 9.659528
53.330 9.644915
53.335 10.063749
53.340 10.08735
53.345 9.796103
53.350 9.614905
53.355 9.851974
53.360 9.783423
53.365 9.883862
53.370 9.937541
53.375 10.51657
53.380 10.508197
53.385 9.963142
53.390 9.665888
53.395 9.864637
53.400 9.641885
53.405 8.976048
53.410 8.493033
53.415 8.476286
53.420 8.535528
53.425 8.607974
53.430 8.255934
53.435 8.37048
53.440 8.239833
53.445 8.193224
53.450 8.245963
53.455 8.353106
53.460 8.04359
53.465 8.490493
53.470 8.946203
53.475 9.463411
53.480 9.45542
53.485 9.849171
53.490 10.444207
53.495 10.514276
53.500 10.212899
53.505 10.430874
53.510 10.492472
53.515 10.675179
53.520 9.975492
53.525 9.806667
53.530 9.718068
53.535 9.130108
53.540 8.935705
53.545 9.028812
53.550 9.313219
53.555 9.565318
53.560 9.119021
53.565 9.390748
53.570 9.576951
53.575 9.749158
53.580 9.897273
53.585 9.848173
53.590 9.92053
53.595 10.584731
53.600 11.055647
53.605 11.393998
53.610 10.800316
53.615 10.671089
53.620 10.853848
53.625 11.454803
53.630 11.392199
53.635 11.062747
53.640 10.794192
53.645 10.951607
53.650 11.104899
53.655 10.883103
53.660 10.702864
53.665 10.353276
53.670 9.994191
53.675 10.120038
53.680 10.261932
53.685 10.092422
53.690 9.698395
53.695 9.509686
53.700 9.688726
53.705 10.126859
53.710 10.302063
53.715 10.160687
53.720 10.009703
53.725 9.786123
53.730 9.738794
53.735 9.968737
53.740 9.65555
53.745 9.222031
53.750 9.049088
53.755 9.046533
53.760 9.537745
53.765 9.668039
53.770 9.574272
53.775 10.119855
53.780 10.340513
53.785 10.442611
53.790 10.742817
53.795 10.654408
53.800 10.579098
53.805 10.464837
53.810 9.916279
53.815 10.169133
53.820 10.537547
53.825 9.806907
53.830 9.718189
53.835 9.667213
53.840 9.793958
53.845 9.775733
53.850 9.592627
53.855 9.484713
53.860 10.161046
53.865 10.093451
53.870 9.911842
53.875 9.874101
53.880 10.003992
53.885 9.988512
53.890 9.345878
53.895 9.208213
53.900 9.118601
53.905 9.46485
53.910 9.480377
53.915 9.417523
53.920 9.368982
53.925 9.404543
53.930 9.210908
53.935 9.618526
53.940 9.831376
53.945 9.999243
53.950 10.107652
53.955 10.21946
53.960 10.245615
53.965 10.547091
53.970 10.15647
53.975 10.254231
53.980 10.285637
53.985 10.415825
53.990 10.918136
53.995 11.178506
54.000 10.987155
54.005 11.228764
54.010 11.138001
54.015 10.969847
54.020 10.926238
54.025 10.918127
54.030 11.192562
54.035 10.855363
54.040 10.675037
54.045 10.966707
54.050 11.122987
54.055 10.902716
54.060 10.776311
54.065 10.62177
54.070 10.764672
54.075 10.494785
54.080 10.758374
54.085 10.601136
54.090 10.562217
54.095 10.749475
54.100 11.407495
54.105 11.913846
54.110 12.147417
54.115 12.103689
54.120 12.069715
54.125 11.903576
54.130 11.520028
54.135 11.741863
54.140 11.583065
54.145 11.544633
54.150 11.076671
54.155 10.829442
54.160 10.41734
54.165 10.244604
54.170 9.402563
54.175 9.159766
54.180 9.161377
54.185 9.560988
54.190 10.01878
54.195 10.384747
54.200 10.321813
54.205 10.195976
54.210 10.207182
54.215 9.832204
54.220 9.490452
54.225 9.273516
54.230 9.621224
54.235 10.101164
54.240 10.138541
54.245 10.170141
54.250 10.250013
54.255 10.457819
54.260 11.269814
54.265 11.250359
54.270 11.253329
54.275 11.543011
54.280 11.842824
54.285 11.81999
54.290 11.37606
54.295 10.968246
54.300 10.655128
54.305 10.170778
54.310 9.809311
54.315 9.834458
54.320 10.174557
54.325 10.165953
54.330 9.895027
54.335 9.499381
54.340 9.845693
54.345 9.758512
54.350 9.778838
54.355 9.795502
54.360 10.029863
54.365 9.939273
54.370 10.696589
54.375 11.021415
54.380 11.011834
54.385 11.022161
54.390 10.678211
54.395 10.927709
54.400 10.720356
54.405 10.554277
54.410 10.50025
54.415 10.349838
54.420 10.081229
54.425 10.458203
54.430 10.462257
54.435 10.643926
54.440 10.041393
54.445 10.235357
54.450 10.495398
54.455 10.87345
54.460 11.163281
54.465 11.010035
54.470 11.377093
54.475 11.877469
54.480 11.503966
54.485 11.312916
54.490 10.45985
54.495 10.333975
54.500 10.193477
54.505 9.669597
54.510 9.730943
54.515 10.125646
54.520 10.243526
54.525 10.580494
54.530 10.623302
54.535 10.850321
54.540 11.032098
54.545 10.894674
54.550 11.023536
54.555 11.217989
54.560 11.000228
54.565 10.760616
54.570 10.326095
54.575 10.022916
54.580 9.550062
54.585 9.41521
54.590 9.363907
54.595 9.357262
54.600 9.103454
54.605 9.145844
54.610 9.166686
54.615 9.41542
54.620 9.259282
54.625 9.434201
54.630 9.810344
54.635 10.443646
54.640 10.671519
54.645 11.002986
54.650 11.470849
54.655 12.062049
54.660 12.399556
54.665 12.086549
54.670 12.030286
54.675 12.271806
54.680 12.29292
54.685 12.238236
54.690 11.791471
54.695 11.723293
54.700 11.91419
54.705 11.794116
54.710 11.616528
54.715 11.652164
54.720 11.431004
54.725 11.046222
54.730 10.783148
54.735 10.470116
54.740 11.097234
54.745 11.484597
54.750 11.909286
54.755 11.768409
54.760 11.922493
54.765 11.776177
54.770 11.71138
54.775 10.550991
54.780 9.753989
54.785 9.31461
54.790 9.583334
54.795 9.857031
54.800 10.441978
54.805 11.100207
54.810 11.597226
54.815 11.565706
54.820 11.07205
54.825 11.153565
54.830 11.420682
54.835 11.349878
54.840 11.525614
54.845 11.744052
54.850 12.134656
54.855 13.049708
54.860 13.041327
54.865 12.693346
54.870 12.644872
54.875 12.535975
54.880 12.034916
54.885 11.422647
54.890 11.118881
54.895 11.399911
54.900 11.061736
54.905 10.438087
54.910 10.530974
54.915 11.281965
54.920 11.762988
54.925 11.132825
54.930 10.724765
54.935 11.043725
54.940 11.486451
54.945 11.561371
54.950 11.518641
54.955 11.411391
54.960 11.230671
54.965 11.215601
54.970 11.145609
54.975 11.320883
54.980 11.115995
54.985 11.228933
54.990 12.029728
54.995 12.55728
55.000 12.084638
55.005 11.703657
55.010 11.277349
55.015 10.918761
55.020 10.547905
55.025 9.779734
55.030 9.418405
55.035 9.691545
55.040 10.04131
55.045 10.165026
55.050 10.315051
55.055 10.112475
55.060 10.339619
55.065 10.586246
55.070 10.489811
55.075 10.697347
55.080 11.179021
55.085 11.778557
55.090 12.419792
55.095 12.716318
55.100 13.068192
55.105 13.177552
55.110 12.909415
55.115 12.693136
55.120 12.281104
55.125 12.035083
55.130 11.567905
55.135 11.258927
55.140 11.141537
55.145 11.251364
55.150 10.962349
55.155 10.781485
55.160 10.794131
55.165 10.769197
55.170 10.524703
55.175 10.563894
55.180 10.415989
55.185 11.10887
55.190 11.594425
55.195 11.359535
55.200 11.715913
55.205 12.089667
55.210 11.960903
55.215 12.170857
55.220 11.450344
55.225 11.185258
55.230 11.299129
55.235 11.148548
55.240 11.104988
55.245 10.905525
55.250 10.601941
55.255 10.519603
55.260 10.151355
55.265 10.388668
55.270 10.42538
55.275 10.823685
55.280 10.937371
55.285 11.168603
55.290 11.564075
55.295 11.935208
55.300 11.73818
55.305 11.706675
55.310 11.759455
55.315 11.943694
55.320 11.997243
55.325 11.601197
55.330 11.215507
55.335 11.818096
55.340 11.912991
55.345 11.562384
55.350 11.510187
55.355 11.564623
55.360 12.066595
55.365 12.094178
55.370 11.423199
55.375 11.5295
55.380 11.678105
55.385 11.568994
55.390 11.401486
55.395 11.02195
55.400 10.915848
55.405 11.184628
55.410 11.24431
55.415 11.20832
55.420 11.663236
55.425 11.918118
55.430 12.148519
55.435 12.517357
55.440 12.58227
55.445 12.446548
55.450 12.257709
55.455 12.034397
55.460 11.872809
55.465 12.237183
55.470 11.549234
55.475 10.921488
55.480 10.837954
55.485 10.502331
55.490 10.369004
55.495 10.210403
55.500 10.327564
55.505 11.375581
55.510 11.593111
55.515 11.679042
55.520 12.040718
55.525 13.020011
55.530 13.337311
55.535 13.126051
55.540 12.816127
55.545 13.316327
55.550 13.415158
55.555 13.009219
55.560 12.357692
55.565 11.85483
55.570 11.485465
55.575 11.457747
55.580 11.273097
55.585 11.459126
55.590 11.634575
55.595 11.407355
55.600 11.654467
55.605 12.053341
55.610 12.012683
55.615 11.620145
55.620 10.970454
55.625 10.812849
55.630 11.013835
55.635 10.541353
55.640 10.492437
55.645 10.440705
55.650 11.168953
55.655 11.895698
55.660 12.142427
55.665 12.374337
55.670 12.641828
55.675 12.450178
55.680 12.469445
55.685 11.969918
55.690 11.43707
55.695 11.241238
55.700 10.833959
55.705 10.50425
55.710 10.350992
55.715 10.311323
55.720 10.655848
55.725 10.602637
55.730 10.518839
55.735 10.399559
55.740 11.139718
55.745 11.683099
55.750 11.647519
55.755 11.297063
55.760 11.989618
55.765 12.528674
55.770 12.404634
55.775 11.832074
55.780 11.476163
55.785 11.640025
55.790 11.337708
55.795 10.766762
55.800 11.077757
55.805 11.528283
55.810 11.97889
55.815 11.838686
55.820 12.002804
55.825 12.77571
55.830 13.053229
55.835 12.539007
55.840 12.127339
55.845 11.707784
55.850 11.748637
55.855 11.837848
55.860 11.888387
55.865 12.323997
55.870 13.040405
55.875 13.564986
55.880 13.994497
55.885 14.301283
55.890 14.107308
55.895 13.924872
55.900 13.752177
55.905 13.910965
55.910 14.291821
55.915 14.305247
55.920 13.980697
55.925 13.602226
55.930 13.222519
55.935 13.209534
55.940 12.464484
55.945 11.998687
55.950 12.072739
55.955 11.971858
55.960 12.161771
55.965 12.008979
55.970 11.990171
55.975 12.65785
55.980 12.7356
55.985 12.628192
55.990 12.902785
55.995 12.869912
56.000 13.077619
56.005 12.674662
56.010 12.235455
56.015 11.798596
56.020 11.635849
56.025 11.894749
56.030 12.154959
56.035 12.273109
56.040 12.366261
56.045 11.975388
56.050 12.231459
56.055 12.070765
56.060 11.542769
56.065 11.064187
56.070 11.07136
56.075 10.835852
56.080 10.375669
56.085 10.268125
56.090 10.294337
56.095 10.952626
56.100 11.293451
56.105 11.072037
56.110 11.510827
56.115 12.320947
56.120 12.835643
56.125 12.814427
56.130 12.14465
56.135 11.897391
56.140 12.235806
56.145 12.200604
56.150 12.21719
56.155 12.325525
56.160 12.568086
56.165 12.893366
56.170 12.922881
56.175 12.90973
56.180 12.831789
56.185 12.705705
56.190 13.063486
56.195 12.994723
56.200 13.084711
56.205 12.913129
56.210 13.06559
56.215 13.126698
56.220 12.731342
56.225 12.48342
56.230 12.805833
56.235 12.361213
56.240 12.651259
56.245 12.560856
56.250 12.780648
56.255 12.835441
56.260 12.624191
56.265 13.102696
56.270 13.153875
56.275 12.667053
56.280 12.739896
56.285 13.103741
56.290 13.351484
56.295 13.249597
56.300 12.854083
56.305 13.192486
56.310 13.775309
56.315 14.005854
56.320 13.720501
56.325 13.357417
56.330 12.861587
56.335 13.30366
56.340 13.226165
56.345 13.430054
56.350 13.196575
56.355 13.12668
56.360 13.475805
56.365 13.701716
56.370 12.816014
56.375 12.566746
56.380 11.893358
56.385 11.876255
56.390 11.79787
56.395 12.185519
56.400 12.898466
56.405 13.687897
56.410 13.844282
56.415 13.655431
56.420 13.185782
56.425 13.469135
56.430 13.461538
56.435 12.833577
56.440 12.58343
56.445 12.596186
56.450 12.821502
56.455 13.305397
56.460 13.156215
56.465 12.825339
56.470 13.101364
56.475 13.610648
56.480 13.840302
56.485 13.270362
56.490 13.049454
56.495 13.147985
56.500 13.000628
56.505 12.808662
56.510 12.698579
56.515 12.679147
56.520 13.278755
56.525 13.26613
56.530 13.249111
56.535 13.507833
56.540 13.810679
56.545 13.388369
56.550 13.596638
56.555 13.568408
56.560 13.415703
56.565 13.318508
56.570 13.362579
56.575 13.06286
56.580 12.744588
56.585 12.523966
56.590 12.25054
56.595 12.710123
56.600 12.735785
56.605 12.615345
56.610 12.704556
56.615 12.923866
56.620 13.422416
56.625 14.026245
56.630 13.917253
56.635 14.090112
56.640 14.002516
56.645 14.02154
56.650 14.523712
56.655 14.200018
56.660 14.226154
56.665 13.789986
56.670 14.242293
56.675 14.791434
56.680 14.838703
56.685 15.061926
56.690 15.190787
56.695 14.98327
56.700 14.963477
56.705 14.06459
56.710 13.843577
56.715 13.578122
56.720 13.534801
56.725 13.316298
56.730 13.470948
56.735 13.890988
56.740 14.125159
56.745 13.769502
56.750 13.928895
56.755 13.602621
56.760 13.586921
56.765 13.364964
56.770 13.122924
56.775 13.240412
56.780 13.406432
56.785 13.292002
56.790 13.471359
56.795 13.636777
56.800 14.058776
56.805 14.564267
56.810 15.088853
56.815 15.212157
56.820 15.122767
56.825 14.96516
56.830 15.225772
56.835 14.978039
56.840 14.577138
56.845 14.038918
56.850 14.072913
56.855 14.369595
56.860 14.408739
56.865 13.845703
56.870 13.804856
56.875 13.374464
56.880 13.513325
56.885 13.12115
56.890 12.605561
56.895 13.119884
56.900 13.608872
56.905 13.91093
56.910 14.333173
56.915 14.309403
56.920 14.996359
56.925 15.172601
56.930 14.534907
56.935 14.285413
56.940 13.734623
56.945 13.505723
56.950 12.984488
56.955 12.897288
56.960 13.054513
56.965 13.486939
56.970 13.468339
56.975 14.261887
56.980 14.743779
56.985 15.172158
56.990 15.219538
56.995 15.113347
57.000 14.974674
57.005 14.604965
57.010 13.664922
57.015 13.690471
57.020 13.563201
57.025 13.545048
57.030 13.338428
57.035 13.163654
57.040 13.438033
57.045 13.201548
57.050 12.828566
57.055 12.340111
57.060 12.270193
57.065 12.228133
57.070 12.478692
57.075 12.932514
57.080 13.243076
57.085 13.220772
57.090 13.997855
57.095 14.102059
57.100 14.588272
57.105 14.360681
57.110 13.973544
57.115 14.043769
57.120 14.502578
57.125 14.565278
57.130 14.616538
57.135 14.418666
57.140 14.391386
57.145 14.049062
57.150 13.847691
57.155 13.175936
57.160 12.439847
57.165 12.261416
57.170 12.684072
57.175 12.79801
57.180 12.964347
57.185 13.186019
57.190 13.680177
57.195 14.193569
57.200 14.278601
57.205 14.20743
57.210 14.441575
57.215 14.97162
57.220 14.89977
57.225 14.090617
57.230 14.118272
57.235 14.283528
57.240 13.678736
57.245 13.505507
57.250 13.703734
57.255 14.073437
57.260 14.760983
57.265 13.752005
57.270 13.696881
57.275 14.01797
57.280 13.44426
57.285 12.852527
57.290 12.53038
57.295 12.260947
57.300 12.331731
57.305 12.309619
57.310 12.338063
57.315 13.059628
57.320 13.666311
57.325 14.199255
57.330 14.582453
57.335 14.9196
57.340 15.071674
57.345 15.648838
57.350 15.285365
57.355 14.653634
57.360 14.576436
57.365 14.41515
57.370 14.26313
57.375 13.707326
57.380 13.252627
57.385 13.221979
57.390 13.591979
57.395 13.229137
57.400 13.286011
57.405 13.842277
57.410 14.543032
57.415 14.489617
57.420 14.711548
57.425 14.456174
57.430 14.492955
57.435 14.598303
57.440 13.901626
57.445 13.347124
57.450 13.381662
57.455 13.168324
57.460 13.379041
57.465 13.620226
57.470 13.952555
57.475 14.368276
57.480 14.285344
57.485 13.745935
57.490 14.191289
57.495 14.105509
57.500 14.10484
57.505 13.827818
57.510 13.589157
57.515 13.873874
57.520 13.891678
57.525 13.662372
57.530 13.685584
57.535 13.524722
57.540 14.115844
57.545 14.280316
57.550 14.367842
57.555 14.924072
57.560 14.992672
57.565 14.983318
57.570 15.171955
57.575 14.600694
57.580 14.88576
57.585 15.175227
57.590 15.195559
57.595 15.342381
57.600 15.443266
57.605 15.035987
57.610 14.997542
57.615 14.455064
57.620 14.267783
57.625 14.159482
57.630 13.88235
57.635 13.727274
57.640 13.868554
57.645 13.617944
57.650 13.584217
57.655 13.586251
57.660 13.750871
57.665 13.614471
57.670 13.559953
57.675 14.072683
57.680 15.14447
57.685 15.147851
57.690 15.223648
57.695 15.75518
57.700 16.305788
57.705 16.484127
57.710 15.88864
57.715 15.36927
57.720 16.165665
57.725 15.992495
57.730 15.11931
57.735 15.102669
57.740 14.81508
57.745 14.700191
57.750 14.511144
57.755 13.806998
57.760 13.89855
57.765 13.644996
57.770 13.492182
57.775 13.418701
57.780 14.015079
57.785 14.693424
57.790 14.923285
57.795 14.69179
57.800 15.306425
57.805 15.304088
57.810 15.651011
57.815 15.2595
57.820 15.236498
57.825 14.969842
57.830 14.453722
57.835 13.985963
57.840 13.991624
57.845 14.518177
57.850 14.518914
57.855 14.079735
57.860 14.784453
57.865 15.914769
57.870 16.396431
57.875 16.391455
57.880 15.696898
57.885 15.398474
57.890 15.999987
57.895 15.96203
57.900 15.319673
57.905 14.741
57.910 14.087568
57.915 14.279378
57.920 13.715243
57.925 13.33097
57.930 13.089111
57.935 13.507617
57.940 14.364199
57.945 14.792025
57.950 15.175863
57.955 15.862996
57.960 15.7327
57.965 16.074291
57.970 16.247364
57.975 16.443365
57.980 16.600378
57.985 16.270996
57.990 16.132877
57.995 16.207603
58.000 16.228201
58.005 15.930918
58.010 15.655405
58.015 15.747714
58.020 15.861942
58.025 15.519819
58.030 15.949598
58.035 15.985518
58.040 15.295937
58.045 15.217047
58.050 15.319366
58.055 15.353007
58.060 15.589576
58.065 14.893056
58.070 14.697625
58.075 15.691718
58.080 15.543185
58.085 15.549484
58.090 15.814001
58.095 15.114488
58.100 15.145327
58.105 15.244425
58.110 14.995197
58.115 15.302571
58.120 15.213688
58.125 14.726633
58.130 15.489998
58.135 15.780481
58.140 16.109417
58.145 16.585962
58.150 16.715044
58.155 17.010769
58.160 17.278645
58.165 17.033268
58.170 17.165436
58.175 17.306202
58.180 16.780277
58.185 16.185053
58.190 15.931053
58.195 15.917219
58.200 15.777456
58.205 15.208175
58.210 13.925417
58.215 13.976608
58.220 14.508555
58.225 14.635702
58.230 14.819947
58.235 15.25398
58.240 15.584077
58.245 16.150808
58.250 15.839314
58.255 15.874441
58.260 16.041855
58.265 16.332769
58.270 15.807492
58.275 15.239479
58.280 14.861964
58.285 14.603207
58.290 14.408045
58.295 13.725276
58.300 13.327627
58.305 14.317214
58.310 14.803099
58.315 15.040861
58.320 15.316134
58.325 15.449226
58.330 15.925666
58.335 15.960375
58.340 15.557198
58.345 15.556775
58.350 15.565903
58.355 15.771689
58.360 16.389833
58.365 16.211075
58.370 16.578335
58.375 16.738169
58.380 17.177456
58.385 17.185083
58.390 17.182491
58.395 16.902952
58.400 17.240215
58.405 16.868834
58.410 16.776377
58.415 17.252659
58.420 17.565443
58.425 17.618898
58.430 18.112045
58.435 18.043602
58.440 17.767305
58.445 17.543829
58.450 16.789476
58.455 15.969811
58.460 15.741278
58.465 15.440897
58.470 15.456299
58.475 15.476506
58.480 15.411528
58.485 15.181603
58.490 15.429043
58.495 14.831601
58.500 14.181925
58.505 13.917146
58.510 14.243572
58.515 13.948802
58.520 14.691889
58.525 15.862126
58.530 16.226131
58.535 16.676126
58.540 17.008156
58.545 16.705198
58.550 16.894693
58.555 16.717594
58.560 16.176971
58.565 16.062447
58.570 15.871501
58.575 15.962178
58.580 16.460789
58.585 16.881496
58.590 16.465498
58.595 16.095854
58.600 16.397646
58.605 16.802658
58.610 16.685646
58.615 16.734421
58.620 16.529322
58.625 16.975275
58.630 17.655966
58.635 18.044771
58.640 18.043489
58.645 17.897001
58.650 17.636669
58.655 17.539047
58.660 17.590265
58.665 17.408125
58.670 17.1367
58.675 16.614841
58.680 16.425961
58.685 16.117813
58.690 16.264366
58.695 16.784998
58.700 16.895559
58.705 17.263176
58.710 17.645365
58.715 18.286572
58.720 18.611662
58.725 18.758247
58.730 18.128304
58.735 18.061508
58.740 17.838202
58.745 17.831221
58.750 17.864737
58.755 17.897104
58.760 17.93907
58.765 18.203192
58.770 18.142059
58.775 18.690588
58.780 18.942801
58.785 18.623865
58.790 19.140917
58.795 18.682831
58.800 18.99839
58.805 19.135332
58.810 18.676451
58.815 18.657732
58.820 18.933487
58.825 18.781046
58.830 18.916588
58.835 18.561316
58.840 18.597008
58.845 18.000692
58.850 17.944345
58.855 17.885712
58.860 17.943424
58.865 18.08069
58.870 17.827148
58.875 18.188847
58.880 19.340076
58.885 19.387051
58.890 18.95083
58.895 18.362963
58.900 18.211863
58.905 18.059608
58.910 17.119965
58.915 16.850447
58.920 16.675341
58.925 16.947315
58.930 17.31179
58.935 17.155254
58.940 17.235163
58.945 17.204063
58.950 16.490284
58.955 16.80624
58.960 16.961882
58.965 17.105173
58.970 16.962332
58.975 17.229439
58.980 17.907429
58.985 18.132023
58.990 18.121128
58.995 17.969557
59.000 17.896557
59.005 18.710054
59.010 19.306749
59.015 19.580526
59.020 19.590862
59.025 19.381718
59.030 18.77207
59.035 18.556349
59.040 18.518431
59.045 17.931719
59.050 17.493261
59.055 17.186617
59.060 17.153622
59.065 17.673094
59.070 17.958401
59.075 17.368973
59.080 16.869625
59.085 16.667753
59.090 16.530361
59.095 16.698364
59.100 16.102018
59.105 16.200325
59.110 16.389164
59.115 16.627714
59.120 16.762068
59.125 17.072628
59.130 17.317646
59.135 17.991081
59.140 17.854679
59.145 17.844696
59.150 17.315445
59.155 17.11536
59.160 16.690279
59.165 16.918049
59.170 16.960642
59.175 16.737728
59.180 16.82481
59.185 16.882666
59.190 17.045261
59.195 17.449633
59.200 17.344442
59.205 17.174999
59.210 17.201967
59.215 17.198673
59.220 17.066099
59.225 17.749323
59.230 17.843542
59.235 17.219091
59.240 17.06539
59.245 17.369562
59.250 17.90126
59.255 17.834578
59.260 17.551327
59.265 17.283819
59.270 17.66629
59.275 17.68421
59.280 16.951897
59.285 16.279335
59.290 16.523226
59.295 16.722773
59.300 17.09656
59.305 16.90074
59.310 16.933041
59.315 17.715769
59.320 17.93269
59.325 17.884916
59.330 17.631372
59.335 17.280369
59.340 17.49659
59.345 17.705151
59.350 16.923321
59.355 17.030859
59.360 17.027103
59.365 16.779058
59.370 17.014177
59.375 17.166992
59.380 16.862471
59.385 17.12635
59.390 17.95615
59.395 18.138681
59.400 18.10108
59.405 18.121378
59.410 17.913334
59.415 17.860157
59.420 18.197945
59.425 18.047262
59.430 18.417015
59.435 18.408957
59.440 18.241278
59.445 18.142223
59.450 18.277681
59.455 18.246412
59.460 17.873268
59.465 17.610516
59.470 17.746664
59.475 17.792187
59.480 18.531773
59.485 18.514959
59.490 18.711828
59.495 18.68329
59.500 18.516706
59.505 18.638519
59.510 18.564398
59.515 18.326744
59.520 18.461987
59.525 17.893826
59.530 17.55666
59.535 17.448847
59.540 16.867464
59.545 17.019012
59.550 17.022905
59.555 17.404593
59.560 17.868567
59.565 18.323448
59.570 18.030609
59.575 18.185165
59.580 18.259083
59.585 18.259705
59.590 17.808399
59.595 17.965189
59.600 17.733276
59.605 18.709005
59.610 18.974903
59.615 19.21899
59.620 19.000475
59.625 18.729088
59.630 18.331535
59.635 18.598005
59.640 18.348658
59.645 18.445515
59.650 17.831358
59.655 17.786129
59.660 17.898411
59.665 17.506893
59.670 17.60486
59.675 17.45186
59.680 17.944618
59.685 18.635422
59.690 19.15007
59.695 19.658342
59.700 20.807693
59.705 20.899134
59.710 21.131231
59.715 20.520872
59.720 20.167242
59.725 19.969555
59.730 20.407032
59.735 20.365072
59.740 19.98461
59.745 19.898954
59.750 19.824448
59.755 19.764828
59.760 19.213751
59.765 18.640455
59.770 18.439741
59.775 19.160213
59.780 19.282942
59.785 19.7735
59.790 20.611301
59.795 20.805281
59.800 20.807383
59.805 20.68104
59.810 20.891708
59.815 21.105106
59.820 21.137009
59.825 21.323666
59.830 22.050392
59.835 22.03447
59.840 22.073013
59.845 21.31934
59.850 20.378483
59.855 20.028952
59.860 19.127968
59.865 18.852337
59.870 18.998465
59.875 18.597885
59.880 19.120556
59.885 20.172598
59.890 20.31193
59.895 20.199297
59.900 20.026173
59.905 19.841421
59.910 19.987305
59.915 19.36215
59.920 18.758076
59.925 18.324526
59.930 18.573689
59.935 18.949877
59.940 19.524424
59.945 19.871742
59.950 19.915274
59.955 20.296457
59.960 20.790442
59.965 20.92091
59.970 20.478662
59.975 20.589752
59.980 20.017822
59.985 19.949005
59.990 20.125549
59.995 20.229635
60.000 20.256472
60.005 20.085859
60.010 20.049814
60.015 20.265514
60.020 20.549921
60.025 20.621794
60.030 19.827435
60.035 19.841631
60.040 19.307552
60.045 19.102318
60.050 19.356279
60.055 19.481312
60.060 19.188126
60.065 19.503561
60.070 19.604429
60.075 20.211197
60.080 20.284447
60.085 20.428562
60.090 20.806911
60.095 21.158203
60.100 21.376335
60.105 21.652798
60.110 21.576962
60.115 21.461329
60.120 21.365351
60.125 21.380093
60.130 21.096853
60.135 21.016119
60.140 20.833979
60.145 21.100418
60.150 21.411997
60.155 21.980932
60.160 22.346224
60.165 22.566086
60.170 22.74402
60.175 23.156012
60.180 23.49295
60.185 23.442732
60.190 22.704327
60.195 21.954479
60.200 22.509789
60.205 22.524956
60.210 21.838734
60.215 21.242039
60.220 21.380777
60.225 22.044624
60.230 21.905495
60.235 21.658554
60.240 22.112278
60.245 22.436926
60.250 22.740921
60.255 22.393888
60.260 22.199141
60.265 22.231943
60.270 21.841129
60.275 21.570139
60.280 21.979736
60.285 21.611912
60.290 21.337112
60.295 20.895405
60.300 21.739016
60.305 21.621244
60.310 21.33621
60.315 20.944523
60.320 21.245728
60.325 21.476583
60.330 20.855331
60.335 19.607222
60.340 19.781401
60.345 19.829153
60.350 19.715147
60.355 19.249289
60.360 19.789745
60.365 21.023577
60.370 21.989353
60.375 22.057041
60.380 22.447346
60.385 22.713184
60.390 23.102682
60.395 23.519117
60.400 23.171255
60.405 22.611961
60.410 21.964842
60.415 21.543793
60.420 21.4867
60.425 21.510605
60.430 20.762861
60.435 20.865864
60.440 21.159353
60.445 21.40328
60.450 21.461517
60.455 21.499903
60.460 20.776197
60.465 20.503702
60.470 20.182121
60.475 19.923424
60.480 20.111416
60.485 20.222895
60.490 20.370367
60.495 20.867939
60.500 20.861685
60.505 20.528194
60.510 20.546902
60.515 21.090164
60.520 20.357386
60.525 20.062675
60.530 20.254576
60.535 19.506628
60.540 19.708607
60.545 19.56164
60.550 18.991493
60.555 19.339018
60.560 18.968969
60.565 18.754353
60.570 19.793921
60.575 19.837065
60.580 20.028019
60.585 20.147017
60.590 20.500668
60.595 20.789347
60.600 20.528109
60.605 19.784227
60.610 20.172546
60.615 20.045145
60.620 19.973669
60.625 19.674803
60.630 19.442732
60.635 19.56245
60.640 18.869867
60.645 18.469358
60.650 18.290474
60.655 17.962021
60.660 17.994392
60.665 17.427832
60.670 17.512615
60.675 18.24362
60.680 18.537817
60.685 18.635487
60.690 18.355265
60.695 18.285137
60.700 19.13385
60.705 19.265656
60.710 19.268341
60.715 18.790491
60.720 18.531919
60.725 18.912237
60.730 18.531118
60.735 18.610952
60.740 18.697779
60.745 18.142508
60.750 17.903969
60.755 17.666103
60.760 17.362511
60.765 17.437651
60.770 17.127123
60.775 16.502916
60.780 16.761993
60.785 17.169067
60.790 17.046141
60.795 16.898642
60.800 16.605293
60.805 16.330915
60.810 17.317976
60.815 17.443888
60.820 16.878239
60.825 17.372839
60.830 17.416519
60.835 17.355358
60.840 16.879242
60.845 16.310131
60.850 16.414755
60.855 16.809282
60.860 16.641596
60.865 17.462215
60.870 17.516085
60.875 17.485941
60.880 17.312191
60.885 17.096254
60.890 17.088203
60.895 17.31959
60.900 17.327646
60.905 17.324673
60.910 17.285862
60.915 16.881945
60.920 16.671738
60.925 16.532175
60.930 16.726992
60.935 16.592827
60.940 17.077328
60.945 17.235626
60.950 17.495155
60.955 17.983273
60.960 17.980097
60.965 17.83086
60.970 18.21381
60.975 18.039
60.980 17.800529
60.985 18.478334
60.990 18.02804
60.995 17.631876
61.000 17.378609
61.005 16.979115
61.010 17.334255
61.015 17.737583
61.020 17.778881
61.025 18.136238
61.030 17.938425
61.035 17.653864
61.040 17.319315
61.045 16.931007
61.050 16.363541
61.055 15.538285
61.060 15.342068
61.065 15.376713
61.070 15.750237
61.075 16.172493
61.080 16.790483
61.085 17.076065
61.090 17.599483
61.095 17.373814
61.100 17.462061
61.105 17.413109
61.110 17.336458
61.115 17.194216
61.120 17.36694
61.125 17.067076
61.130 17.141592
61.135 17.202564
61.140 17.145765
61.145 16.954355
61.150 16.493464
61.155 16.369385
61.160 16.31987
61.165 16.8006
61.170 17.238066
61.175 17.103279
61.180 17.019392
61.185 17.088417
61.190 16.975178
61.195 17.256826
61.200 17.512152
61.205 17.445223
61.210 17.786228
61.215 18.20726
61.220 18.246216
61.225 18.228781
61.230 18.604624
61.235 18.410069
61.240 17.747118
61.245 17.752182
61.250 17.447033
61.255 17.564199
61.260 17.813725
61.265 17.440315
61.270 17.648861
61.275 17.828423
61.280 17.605972
61.285 18.023792
61.290 18.085546
61.295 17.96002
61.300 17.959433
61.305 17.747322
61.310 18.047508
61.315 18.360258
61.320 18.235634
61.325 18.105684
61.330 18.321241
61.335 17.680582
61.340 17.617556
61.345 17.875643
61.350 17.653641
61.355 17.876009
61.360 17.94071
61.365 17.998516
61.370 18.158699
61.375 17.779919
61.380 17.351097
61.385 17.278666
61.390 17.013611
61.395 17.055965
61.400 16.494471
61.405 17.012568
61.410 17.55831
61.415 17.568775
61.420 17.829882
61.425 17.692942
61.430 17.797777
61.435 18.430246
61.440 18.788887
61.445 18.298876
61.450 17.661602
61.455 17.834677
61.460 17.821144
61.465 17.721403
61.470 17.530071
61.475 16.905579
61.480 16.931795
61.485 17.222544
61.490 16.968016
61.495 16.97328
61.500 16.703594
61.505 16.814676
61.510 16.829788
61.515 17.074436
61.520 16.838711
61.525 16.618519
61.530 16.213831
61.535 16.34664
61.540 16.44903
61.545 17.004122
61.550 17.012426
61.555 17.489395
61.560 17.926336
61.565 18.540718
61.570 18.860214
61.575 18.754679
61.580 18.412493
61.585 18.43478
61.590 17.832918
61.595 17.241962
61.600 16.734253
61.605 16.13579
61.610 16.268127
61.615 16.654324
61.620 17.183683
61.625 17.454679
61.630 17.19968
61.635 17.011311
61.640 16.517862
61.645 16.208086
61.650 15.80125
61.655 14.340093
61.660 14.45992
61.665 15.453808
61.670 15.731589
61.675 16.165182
61.680 16.629623
61.685 16.766127
61.690 17.602951
61.695 17.85734
61.700 17.512197
61.705 17.740421
61.710 17.531796
61.715 17.246572
61.720 17.212341
61.725 16.942532
61.730 16.830503
61.735 16.836946
61.740 16.944296
61.745 17.170458
61.750 16.665907
61.755 16.980759
61.760 17.186001
61.765 16.985662
61.770 17.130911
61.775 17.415785
61.780 17.443773
61.785 17.432131
61.790 17.217196
61.795 17.378931
61.800 17.820021
61.805 18.193344
61.810 18.084442
61.815 17.556494
61.820 17.798632
61.825 17.572691
61.830 17.382574
61.835 17.080809
61.840 16.518955
61.845 16.054598
61.850 16.308069
61.855 15.930915
61.860 16.617136
61.865 17.007196
61.870 16.986116
61.875 17.48761
61.880 18.209223
61.885 18.574783
61.890 19.216406
61.895 19.178743
61.900 19.469257
61.905 19.581749
61.910 19.365961
61.915 19.068188
61.920 18.834227
61.925 18.016111
61.930 17.044628
61.935 16.122358
61.940 15.988138
61.945 15.764213
61.950 15.730803
61.955 15.804775
61.960 16.447271
61.965 17.20273
61.970 17.991543
61.975 18.218925
61.980 18.307053
61.985 18.461765
61.990 18.393795
61.995 18.106762
62.000 17.889435
62.005 17.582737
62.010 17.597488
62.015 17.590384
62.020 17.03964
62.025 16.8332
62.030 17.009954
62.035 16.816553
62.040 16.832558
62.045 16.388327
62.050 16.124598
62.055 16.966484
62.060 17.023935
62.065 16.833075
62.070 16.738981
62.075 17.025927
62.080 17.232189
62.085 17.147335
62.090 17.171154
62.095 17.943909
62.100 18.00186
62.105 18.213846
62.110 17.593279
62.115 17.768528
62.120 17.626371
62.125 17.098936
62.130 16.68837
62.135 16.467024
62.140 16.228569
62.145 16.196943
62.150 16.01833
62.155 16.563492
62.160 16.65773
62.165 16.93066
62.170 17.870325
62.175 18.239332
62.180 18.743532
62.185 18.816107
62.190 18.258627
62.195 17.749929
62.200 17.539196
62.205 16.913589
62.210 16.318682
62.215 16.131323
62.220 16.472853
62.225 16.372519
62.230 16.635057
62.235 16.403999
62.240 16.683346
62.245 17.29598
62.250 16.941948
62.255 16.887203
62.260 17.185112
62.265 17.184877
62.270 16.927294
62.275 16.933722
62.280 16.574896
62.285 16.811083
62.290 16.944242
62.295 17.281403
62.300 17.417831
62.305 17.338634
62.310 16.847378
62.315 17.433107
62.320 17.71896
62.325 17.175537
62.330 17.088814
62.335 16.989895
62.340 17.047998
62.345 16.833048
62.350 16.540413
62.355 16.355444
62.360 16.225727
62.365 16.182899
62.370 15.982527
62.375 16.108694
62.380 16.527285
62.385 16.503094
62.390 17.002213
62.395 17.983238
62.400 18.422985
62.405 18.644276
62.410 18.916544
62.415 18.963297
62.420 18.600374
62.425 18.108719
62.430 17.150972
62.435 16.726963
62.440 17.011366
62.445 16.84938
62.450 16.925573
62.455 17.705042
62.460 18.207758
62.465 18.798616
62.470 18.627241
62.475 18.598513
62.480 19.07328
62.485 19.382166
62.490 19.420362
62.495 19.714935
62.500 19.946905
62.505 19.775141
62.510 19.58349
62.515 19.08485
62.520 18.381634
62.525 18.057648
62.530 17.289183
62.535 16.629602
62.540 16.487362
62.545 16.087393
62.550 16.253159
62.555 16.17251
62.560 15.763902
62.565 15.458863
62.570 15.923198
62.575 16.259691
62.580 16.348467
62.585 16.070042
62.590 16.103916
62.595 15.935703
62.600 15.639167
62.605 15.620387
62.610 16.108372
62.615 16.274239
62.620 15.940724
62.625 15.557377
62.630 15.642023
62.635 15.918591
62.640 15.91272
62.645 15.52247
62.650 15.687213
62.655 16.177872
62.660 16.893612
62.665 17.267696
62.670 17.550709
62.675 17.476675
62.680 17.077551
62.685 17.108637
62.690 17.229984
62.695 16.964365
62.700 16.82144
62.705 16.602278
62.710 16.889042
62.715 17.457432
62.720 17.473772
62.725 17.696114
62.730 18.67347
62.735 19.141289
62.740 19.260557
62.745 19.5324
62.750 20.091797
62.755 19.774448
62.760 18.973667
62.765 17.988247
62.770 17.261957
62.775 17.391594
62.780 16.828468
62.785 16.220591
62.790 16.385508
62.795 17.049608
62.800 17.748287
62.805 18.156723
62.810 17.797049
62.815 17.774588
62.820 18.586285
62.825 19.329901
62.830 19.046331
62.835 18.281134
62.840 18.137033
62.845 18.047276
62.850 17.977573
62.855 17.062462
62.860 16.020182
62.865 16.204029
62.870 16.562611
62.875 16.511341
62.880 16.760063
62.885 16.923576
62.890 17.271902
62.895 16.914135
62.900 16.192097
62.905 15.612117
62.910 15.322989
62.915 15.311205
62.920 15.404279
62.925 15.198791
62.930 15.77237
62.935 16.50038
62.940 17.278559
62.945 17.83552
62.950 18.055145
62.955 18.102575
62.960 18.364388
62.965 18.544426
62.970 19.347322
62.975 19.527998
62.980 19.628969
62.985 19.107325
62.990 18.669775
62.995 18.53607
63.000 17.955662
63.005 17.267368
63.010 17.281864
63.015 17.566914
63.020 18.163412
63.025 17.913822
63.030 18.139402
63.035 18.547459
63.040 18.323307
63.045 17.997095
63.050 17.493431
63.055 17.068914
63.060 17.595465
63.065 17.623734
63.070 17.342121
63.075 17.130457
63.080 17.000317
63.085 16.891571
63.090 17.011656
63.095 16.685663
63.100 16.709524
63.105 17.077553
63.110 17.273357
63.115 16.751005
63.120 16.57164
63.125 17.018316
63.130 17.564674
63.135 17.394318
63.140 17.084387
63.145 17.330044
63.150 18.018742
63.155 18.239571
63.160 18.187115
63.165 17.780897
63.170 17.616249
63.175 17.311834
63.180 17.460035
63.185 17.875027
63.190 17.696596
63.195 17.569386
63.200 17.898355
63.205 18.408073
63.210 19.077801
63.215 18.810543
63.220 17.948299
63.225 17.758024
63.230 17.428524
63.235 16.920069
63.240 16.381025
63.245 16.144161
63.250 16.252714
63.255 16.965025
63.260 17.532198
63.265 17.913591
63.270 18.140759
63.275 17.898182
63.280 17.681133
63.285 17.707022
63.290 17.342194
63.295 17.084837
63.300 17.202402
63.305 17.192127
63.310 17.541445
63.315 17.128
63.320 17.01535
63.325 16.967497
63.330 16.512117
63.335 15.960834
63.340 15.898405
63.345 16.196232
63.350 17.06077
63.355 17.343504
63.360 17.450222
63.365 17.703083
63.370 18.102076
63.375 18.091299
63.380 17.669685
63.385 17.058624
63.390 17.312481
63.395 17.56402
63.400 17.637348
63.405 17.910885
63.410 18.337103
63.415 18.809038
63.420 19.046997
63.425 18.990061
63.430 19.167902
63.435 19.119783
63.440 18.459255
63.445 17.921076
63.450 17.804741
63.455 17.932631
63.460 17.709316
63.465 17.727938
63.470 17.946127
63.475 18.463633
63.480 18.733477
63.485 18.845497
63.490 18.244968
63.495 17.380545
63.500 17.395903
63.505 17.434906
63.510 17.138226
63.515 16.731195
63.520 16.963297
63.525 17.349609
63.530 17.497004
63.535 17.752531
63.540 17.783352
63.545 17.671736
63.550 17.895296
63.555 17.623058
63.560 18.007999
63.565 18.268393
63.570 17.80488
63.575 17.657167
63.580 17.858093
63.585 17.576319
63.590 17.448702
63.595 17.352448
63.600 17.469015
63.605 17.446051
63.610 17.766731
63.615 18.48945
63.620 18.718788
63.625 18.642443
63.630 18.682222
63.635 18.764204
63.640 19.20425
63.645 19.211424
63.650 19.025534
63.655 18.975443
63.660 19.129515
63.665 18.983564
63.670 19.028152
63.675 18.747461
63.680 17.918728
63.685 17.567472
63.690 17.667841
63.695 17.644556
63.700 17.332825
63.705 17.076292
63.710 17.104431
63.715 17.968216
63.720 18.060617
63.725 17.597721
63.730 17.403528
63.735 17.579441
63.740 18.239891
63.745 17.828697
63.750 17.60832
63.755 17.550062
63.760 17.97794
63.765 17.939396
63.770 18.035133
63.775 17.988556
63.780 18.335035
63.785 17.907539
63.790 17.388006
63.795 17.472626
63.800 17.727579
63.805 17.362944
63.810 16.57177
63.815 16.878139
63.820 17.432877
63.825 17.97374
63.830 18.288305
63.835 18.379068
63.840 19.060747
63.845 19.155718
63.850 18.704563
63.855 18.005165
63.860 17.943232
63.865 17.803566
63.870 17.51066
63.875 16.979719
63.880 17.045221
63.885 17.204733
63.890 18.164381
63.895 18.470324
63.900 17.728065
63.905 17.50174
63.910 17.976225
63.915 18.431746
63.920 18.371328
63.925 18.412632
63.930 18.41357
63.935 18.396349
63.940 18.40477
63.945 17.516949
63.950 17.01672
63.955 17.037722
63.960 16.646837
63.965 17.341145
63.970 17.642395
63.975 18.27701
63.980 18.497719
63.985 18.881247
63.990 18.92927
63.995 18.9193
64.000 18.544718
64.005 19.023033
64.010 19.303259
64.015 20.120106
64.020 20.171427
64.025 20.122969
64.030 19.584419
64.035 19.233507
64.040 19.196548
64.045 18.633595
64.050 18.405672
64.055 18.043575
64.060 18.23251
64.065 18.474466
64.070 18.760324
64.075 18.605766
64.080 18.76939
64.085 18.330858
64.090 18.363771
64.095 18.829803
64.100 18.951075
64.105 18.787127
64.110 19.040777
64.115 19.180895
64.120 19.687614
64.125 19.840708
64.130 19.229345
64.135 19.268108
64.140 19.296232
64.145 18.869684
64.150 18.4508
64.155 18.465197
64.160 18.641171
64.165 18.891323
64.170 18.743568
64.175 18.547697
64.180 18.38529
64.185 18.782545
64.190 18.602741
64.195 18.230997
64.200 18.216063
64.205 18.524874
64.210 18.63475
64.215 19.225851
64.220 19.255953
64.225 19.308525
64.230 19.577856
64.235 19.875399
64.240 20.001337
64.245 20.483864
64.250 20.370062
64.255 20.049976
64.260 20.517479
64.265 20.714106
64.270 20.277765
64.275 20.185658
64.280 20.0005
64.285 20.281986
64.290 19.680653
64.295 19.206539
64.300 18.825542
64.305 18.669895
64.310 18.351126
64.315 17.848339
64.320 17.315891
64.325 18.02072
64.330 18.435719
64.335 18.517231
64.340 18.990837
64.345 19.26746
64.350 19.746777
64.355 20.62089
64.360 21.474136
64.365 22.007643
64.370 22.086418
64.375 21.362791
64.380 21.396328
64.385 20.871738
64.390 19.789742
64.395 19.004223
64.400 18.20606
64.405 18.825336
64.410 19.495174
64.415 19.772449
64.420 20.157616
64.425 20.9084
64.430 21.239523
64.435 22.008516
64.440 22.491535
64.445 22.698137
64.450 22.91378
64.455 22.889677
64.460 22.349426
64.465 22.121338
64.470 21.905706
64.475 21.554195
64.480 21.583853
64.485 21.042734
64.490 21.056446
64.495 21.332016
64.500 21.430265
64.505 20.725288
64.510 19.88876
64.515 20.164316
64.520 19.922623
64.525 19.552206
64.530 19.548389
64.535 19.730057
64.540 20.943468
64.545 21.531467
64.550 21.65366
64.555 22.509148
64.560 22.539377
64.565 22.194267
64.570 21.344919
64.575 20.240389
64.580 20.20233
64.585 19.68552
64.590 19.361969
64.595 19.720736
64.600 20.421415
64.605 20.758755
64.610 21.262043
64.615 21.268679
64.620 21.152565
64.625 20.606552
64.630 20.292192
64.635 19.540918
64.640 19.1623
64.645 18.891634
64.650 18.770052
64.655 18.789875
64.660 19.204247
64.665 19.707239
64.670 19.827797
64.675 19.660597
64.680 20.342012
64.685 20.262983
64.690 20.599794
64.695 20.629719
64.700 20.737078
64.705 21.463776
64.710 22.080137
64.715 22.033844
64.720 22.592791
64.725 22.458847
64.730 22.493797
64.735 21.607876
64.740 20.880419
64.745 20.786774
64.750 20.68848
64.755 19.841448
64.760 19.829536
64.765 19.700684
64.770 20.060789
64.775 20.609346
64.780 20.756235
64.785 20.343676
64.790 21.034382
64.795 21.162979
64.800 21.20244
64.805 21.370279
64.810 20.887684
64.815 20.717236
64.820 20.029642
64.825 19.585051
64.830 19.617947
64.835 19.860451
64.840 19.846216
64.845 19.931725
64.850 20.281696
64.855 21.044182
64.860 20.969351
64.865 20.661386
64.870 20.408951
64.875 20.284584
64.880 20.761156
64.885 20.458223
64.890 20.592354
64.895 21.16688
64.900 21.207615
64.905 20.978035
64.910 20.720539
64.915 20.43964
64.920 20.335495
64.925 20.325171
64.930 20.041241
64.935 20.285137
64.940 20.847078
64.945 20.781393
64.950 20.786465
64.955 20.820749
64.960 20.988239
64.965 21.270498
64.970 21.004883
64.975 20.701839
64.980 21.276041
64.985 21.126116
64.990 20.892527
64.995 20.720224
65.000 20.088051
65.005 20.40967
65.010 20.984018
65.015 20.865555
65.020 21.588699
65.025 22.04067
65.030 22.368017
65.035 22.468777
65.040 22.388365
65.045 22.22607
65.050 22.128157
65.055 21.807295
65.060 22.317707
65.065 21.802801
65.070 22.156633
65.075 22.171024
65.080 22.1721
65.085 22.118258
65.090 21.751062
65.095 21.556614
65.100 22.124897
65.105 22.398487
65.110 22.609169
65.115 22.589485
65.120 22.452024
65.125 22.787352
65.130 22.099785
65.135 22.187326
65.140 22.402193
65.145 22.649088
65.150 23.38699
65.155 23.513218
65.160 23.474653
65.165 23.471685
65.170 23.434719
65.175 23.271885
65.180 22.909658
65.185 21.962231
65.190 21.677174
65.195 21.511501
65.200 21.835417
65.205 21.765825
65.210 21.314629
65.215 20.686073
65.220 21.138805
65.225 21.747152
65.230 22.405983
65.235 22.160885
65.240 22.358376
65.245 22.658531
65.250 23.289762
65.255 22.940405
65.260 22.87237
65.265 22.612097
65.270 22.902618
65.275 22.841984
65.280 23.327797
65.285 23.567406
65.290 23.592688
65.295 23.524933
65.300 23.460119
65.305 22.983702
65.310 23.150814
65.315 23.033068
65.320 23.034866
65.325 23.204443
65.330 23.25201
65.335 23.009748
65.340 23.289316
65.345 23.236628
65.350 22.870632
65.355 22.792555
65.360 22.816589
65.365 22.914997
65.370 22.718901
65.375 23.31739
65.380 23.520048
65.385 23.994797
65.390 24.548693
65.395 24.749716
65.400 24.491854
65.405 24.764702
65.410 24.477968
65.415 24.627245
65.420 24.354448
65.425 24.339027
65.430 23.7857
65.435 24.483812
65.440 25.186472
65.445 25.279486
65.450 24.970125
65.455 24.405767
65.460 24.070353
65.465 24.662226
65.470 24.353861
65.475 23.829479
65.480 24.042217
65.485 24.336437
65.490 24.694481
65.495 25.262903
65.500 25.961878
65.505 26.290447
65.510 26.178917
65.515 25.922535
65.520 25.753326
65.525 26.419867
65.530 26.720251
65.535 26.506094
65.540 26.952147
65.545 27.527706
65.550 27.639317
65.555 28.042486
65.560 28.15649
65.565 28.067221
65.570 27.932512
65.575 27.531883
65.580 28.244223
65.585 29.002666
65.590 29.494535
65.595 29.723827
65.600 29.568123
65.605 30.136057
65.610 31.184885
65.615 31.095369
65.620 31.061672
65.625 30.988768
65.630 30.643805
65.635 30.625284
65.640 30.220196
65.645 29.796721
65.650 30.207647
65.655 29.794579
65.660 29.603525
65.665 29.627214
65.670 29.284801
65.675 29.065203
65.680 29.488083
65.685 29.369965
65.690 29.9596
65.695 30.819319
65.700 31.432728
65.705 32.221157
65.710 32.682213
65.715 32.861538
65.720 32.904613
65.725 32.663631
65.730 32.831226
65.735 32.533897
65.740 32.496952
65.745 33.067101
65.750 32.458248
65.755 31.752138
65.760 31.915854
65.765 31.982021
65.770 32.696125
65.775 32.840305
65.780 32.633499
65.785 32.853729
65.790 33.408607
65.795 33.405018
65.800 33.395203
65.805 33.22134
65.810 33.175114
65.815 33.78788
65.820 34.55479
65.825 34.503498
65.830 34.931713
65.835 35.786362
65.840 35.890484
65.845 35.864388
65.850 35.351154
65.855 35.073086
65.860 36.244026
65.865 35.964767
65.870 36.004185
65.875 36.059795
65.880 36.506527
65.885 36.601021
65.890 37.169781
65.895 36.909996
65.900 36.835892
65.905 35.809166
65.910 35.610332
65.915 35.832874
65.920 36.77364
65.925 36.484688
65.930 36.484055
65.935 36.964104
65.940 37.109478
65.945 36.965652
65.950 36.662998
65.955 36.619701
65.960 36.897591
65.965 36.973087
65.970 36.948135
65.975 37.742432
65.980 38.570156
65.985 39.349461
65.990 39.521759
65.995 39.064442
66.000 39.39856
66.005 39.886433
66.010 39.122471
66.015 38.387653
66.020 36.553688
66.025 35.898823
66.030 37.175785
66.035 37.44648
66.040 37.739887
66.045 38.623672
66.050 39.667603
66.055 40.598209
66.060 40.403656
66.065 38.814236
66.070 37.758339
66.075 36.60424
66.080 36.400597
66.085 35.669415
66.090 35.438736
66.095 35.550724
66.100 35.775028
66.105 36.549255
66.110 36.895744
66.115 36.580696
66.120 36.339531
66.125 36.318844
66.130 36.75198
66.135 36.604362
66.140 36.651379
66.145 37.117935
66.150 36.75927
66.155 36.694077
66.160 37.551537
66.165 38.408764
66.170 39.507378
66.175 39.665283
66.180 39.489315
66.185 39.42342
66.190 39.576946
66.195 38.915821
66.200 38.201019
66.205 38.285843
66.210 38.005398
66.215 38.295036
66.220 38.952065
66.225 39.243164
66.230 38.584286
66.235 37.947342
66.240 36.961277
66.245 36.308174
66.250 35.689358
66.255 35.783253
66.260 35.468987
66.265 35.499088
66.270 35.113068
66.275 35.599384
66.280 35.764679
66.285 36.540565
66.290 36.005844
66.295 35.822899
66.300 36.066742
66.305 36.680115
66.310 36.398056
66.315 36.531189
66.320 35.728455
66.325 35.227997
66.330 35.492043
66.335 34.977016
66.340 34.081558
66.345 33.387955
66.350 32.954872
66.355 33.435135
66.360 34.14304
66.365 34.305759
66.370 34.510689
66.375 34.872776
66.380 35.051315
66.385 34.482819
66.390 33.4631
66.395 33.038925
66.400 32.583065
66.405 32.798134
66.410 32.909355
66.415 33.21328
66.420 33.508183
66.425 33.707031
66.430 33.438473
66.435 33.255592
66.440 32.62693
66.445 31.789808
66.450 30.844433
66.455 30.608072
66.460 30.442884
66.465 30.75864
66.470 30.824736
66.475 30.144386
66.480 28.880989
66.485 28.018431
66.490 27.289019
66.495 27.275976
66.500 26.718233
66.505 26.662912
66.510 27.127941
66.515 28.321045
66.520 28.57888
66.525 28.718678
66.530 28.8615
66.535 28.459822
66.540 28.233229
66.545 28.189224
66.550 28.672489
66.555 29.490601
66.560 29.28059
66.565 28.697788
66.570 28.460756
66.575 27.935993
66.580 27.412889
66.585 26.570658
66.590 26.306889
66.595 26.2092
66.600 25.431572
66.605 25.678238
66.610 25.83498
66.615 26.145929
66.620 26.585503
66.625 27.308126
66.630 27.806087
66.635 28.45577
66.640 28.186899
66.645 27.944483
66.650 27.655329
66.655 26.747692
66.660 26.346611
66.665 26.263399
66.670 25.999063
66.675 26.024933
66.680 26.142778
66.685 25.737906
66.690 26.14748
66.695 25.586933
66.700 25.015812
66.705 25.113218
66.710 25.358385
66.715 25.52487
66.720 25.765265
66.725 24.916851
66.730 24.493456
66.735 24.634531
66.740 24.464371
66.745 24.404894
66.750 23.972101
66.755 23.567398
66.760 24.054077
66.765 24.392431
66.770 24.957642
66.775 24.93808
66.780 24.591362
66.785 25.115511
66.790 25.634113
66.795 25.350372
66.800 25.167307
66.805 24.496382
66.810 24.260015
66.815 23.391224
66.820 22.605745
66.825 22.006165
66.830 21.598907
66.835 21.078138
66.840 20.920809
66.845 20.947224
66.850 21.481886
66.855 22.059969
66.860 21.928774
66.865 22.162186
66.870 22.974377
66.875 23.475464
66.880 23.35601
66.885 23.025
66.890 21.986675
66.895 21.694324
66.900 21.064724
66.905 20.370451
66.910 20.374256
66.915 20.523088
66.920 21.028458
66.925 21.809624
66.930 22.367441
66.935 23.02113
66.940 23.349197
66.945 23.3454
66.950 23.315178
66.955 22.882242
66.960 22.613297
66.965 22.445379
66.970 22.533716
66.975 22.761408
66.980 22.505949
66.985 22.870853
66.990 23.419155
66.995 23.090166
67.000 22.93376
67.005 22.881407
67.010 23.447792
67.015 23.068073
67.020 22.297832
67.025 22.11318
67.030 22.305685
67.035 22.043156
67.040 21.170315
67.045 20.165836
67.050 20.786406
67.055 20.86725
67.060 20.752966
67.065 21.331911
67.070 21.642485
67.075 21.85574
67.080 22.807007
67.085 23.062778
67.090 23.675806
67.095 23.708492
67.100 23.980375
67.105 24.189611
67.110 23.87266
67.115 23.056314
67.120 22.483517
67.125 22.125139
67.130 22.267378
67.135 21.869379
67.140 21.906193
67.145 22.493484
67.150 22.943052
67.155 23.039043
67.160 23.027664
67.165 22.705301
67.170 22.764423
67.175 22.317606
67.180 21.661451
67.185 21.340227
67.190 21.573439
67.195 21.745201
67.200 21.50066
67.205 21.028683
67.210 21.134567
67.215 21.514725
67.220 21.742144
67.225 21.442623
67.230 21.225679
67.235 20.772615
67.240 20.973434
67.245 21.209068
67.250 21.115328
67.255 21.480947
67.260 21.288069
67.265 21.101643
67.270 21.301193
67.275 20.857088
67.280 20.949614
67.285 21.042782
67.290 20.472626
67.295 21.078506
67.300 21.924171
67.305 22.46315
67.310 22.596663
67.315 22.269304
67.320 21.576452
67.325 21.226511
67.330 20.325706
67.335 19.396059
67.340 19.556919
67.345 19.76693
67.350 19.844452
67.355 20.311926
67.360 20.928476
67.365 21.326918
67.370 21.475367
67.375 21.846977
67.380 23.062849
67.385 22.759871
67.390 22.142424
67.395 21.595026
67.400 21.161325
67.405 20.361612
67.410 19.226072
67.415 17.700672
67.420 17.661823
67.425 17.647526
67.430 17.589579
67.435 17.969687
67.440 18.540466
67.445 19.18849
67.450 19.819384
67.455 20.461916
67.460 20.911633
67.465 21.189697
67.470 21.401655
67.475 21.544403
67.480 21.049301
67.485 20.698303
67.490 20.820272
67.495 21.252222
67.500 22.291378
67.505 22.175756
67.510 22.554235
67.515 22.667652
67.520 22.390461
67.525 22.055098
67.530 21.894068
67.535 21.21129
67.540 21.325348
67.545 20.70056
67.550 21.152651
67.555 22.143526
67.560 22.350939
67.565 21.977909
67.570 22.201614
67.575 22.196648
67.580 22.353664
67.585 21.985037
67.590 21.706089
67.595 21.354071
67.600 21.237967
67.605 20.34593
67.610 20.291916
67.615 20.642061
67.620 20.77194
67.625 20.736809
67.630 20.894028
67.635 20.809341
67.640 21.140224
67.645 20.93866
67.650 20.956413
67.655 20.74836
67.660 20.323763
67.665 20.369251
67.670 20.552013
67.675 21.174294
67.680 21.519819
67.685 21.690317
67.690 21.488884
67.695 22.051899
67.700 22.048136
67.705 21.90954
67.710 21.130671
67.715 20.708139
67.720 20.923624
67.725 21.228268
67.730 20.80929
67.735 20.863747
67.740 21.140469
67.745 21.345621
67.750 21.526108
67.755 21.157286
67.760 21.16526
67.765 21.162655
67.770 21.196173
67.775 21.040209
67.780 20.94603
67.785 21.063465
67.790 21.118885
67.795 20.861929
67.800 20.48118
67.805 20.275511
67.810 20.233089
67.815 20.296282
67.820 19.776596
67.825 19.546597
67.830 19.68298
67.835 20.189981
67.840 19.87541
67.845 19.741312
67.850 19.683208
67.855 20.064417
67.860 19.962149
67.865 19.729668
67.870 19.530224
67.875 19.895163
67.880 20.062056
67.885 20.654112
67.890 20.848848
67.895 21.101879
67.900 21.350443
67.905 21.470758
67.910 21.683609
67.915 21.491001
67.920 21.501844
67.925 21.242046
67.930 21.410112
67.935 21.694946
67.940 21.37561
67.945 21.245829
67.950 21.451792
67.955 20.957609
67.960 20.940229
67.965 20.676859
67.970 20.858461
67.975 21.652292
67.980 22.273933
67.985 22.332512
67.990 22.561483
67.995 22.505373
68.000 21.987883
68.005 20.86371
68.010 20.392069
68.015 19.916397
68.020 19.747536
68.025 19.804365
68.030 20.508553
68.035 21.549915
68.040 22.191875
68.045 21.722933
68.050 21.845041
68.055 22.410555
68.060 22.687601
68.065 22.595905
68.070 22.011908
68.075 21.570641
68.080 21.456671
68.085 21.658905
68.090 20.814539
68.095 20.566214
68.100 20.609457
68.105 21.222775
68.110 21.621906
68.115 21.62299
68.120 21.087414
68.125 21.720448
68.130 21.789436
68.135 21.014566
68.140 20.521328
68.145 20.648046
68.150 21.276567
68.155 21.524618
68.160 21.011681
68.165 21.104147
68.170 21.91765
68.175 21.895462
68.180 21.467461
68.185 20.497437
68.190 20.573002
68.195 20.67429
68.200 20.822952
68.205 20.701464
68.210 20.855043
68.215 21.340431
68.220 21.677719
68.225 21.390459
68.230 21.18158
68.235 20.541508
68.240 20.171829
68.245 20.289476
68.250 19.736324
68.255 19.54719
68.260 18.984627
68.265 18.888895
68.270 19.140991
68.275 19.083389
68.280 19.101624
68.285 19.619608
68.290 19.742599
68.295 19.723379
68.300 19.498569
68.305 19.608231
68.310 20.174091
68.315 20.6341
68.320 20.758726
68.325 20.916307
68.330 21.31229
68.335 21.248392
68.340 21.535187
68.345 21.250679
68.350 21.196356
68.355 21.408283
68.360 21.979616
68.365 22.136787
68.370 22.543348
68.375 22.472767
68.380 22.703918
68.385 22.639425
68.390 21.947102
68.395 21.748955
68.400 21.273819
68.405 21.163708
68.410 20.768948
68.415 20.098499
68.420 18.826378
68.425 18.892534
68.430 18.990536
68.435 18.867197
68.440 18.677591
68.445 18.743509
68.450 18.612183
68.455 18.840593
68.460 18.563482
68.465 18.769934
68.470 19.583031
68.475 19.911295
68.480 20.445818
68.485 21.162024
68.490 22.199951
68.495 22.982361
68.500 22.633268
68.505 21.898636
68.510 21.474075
68.515 21.331936
68.520 21.146915
68.525 20.439985
68.530 19.835032
68.535 20.00136
68.540 20.300205
68.545 20.147497
68.550 19.954027
68.555 19.97467
68.560 20.437489
68.565 20.743099
68.570 20.963144
68.575 21.541601
68.580 21.958448
68.585 21.946367
68.590 22.073154
68.595 21.484901
68.600 21.139387
68.605 20.934851
68.610 20.580366
68.615 20.283375
68.620 20.178982
68.625 20.0226
68.630 20.147617
68.635 20.125914
68.640 19.915787
68.645 19.667624
68.650 19.74408
68.655 20.272955
68.660 20.834702
68.665 21.342768
68.670 21.345448
68.675 20.934238
68.680 21.321999
68.685 21.832443
68.690 21.327555
68.695 20.50075
68.700 20.434975
68.705 20.854271
68.710 20.986506
68.715 20.376879
68.720 19.520836
68.725 20.236832
68.730 20.878239
68.735 20.871382
68.740 21.053247
68.745 21.2892
68.750 21.673132
68.755 21.903448
68.760 21.585981
68.765 21.367697
68.770 21.216066
68.775 21.21876
68.780 20.797749
68.785 20.895231
68.790 21.37965
68.795 21.863279
68.800 22.038984
68.805 22.217457
68.810 22.40629
68.815 22.524708
68.820 22.262098
68.825 21.939938
68.830 21.581415
68.835 21.545385
68.840 21.954157
68.845 22.377733
68.850 23.20713
68.855 23.365204
68.860 23.453714
68.865 24.141705
68.870 24.236097
68.875 23.46067
68.880 22.876648
68.885 22.507893
68.890 22.363142
68.895 22.582952
68.900 22.085831
68.905 22.272562
68.910 22.78087
68.915 22.73642
68.920 22.743721
68.925 22.720795
68.930 22.346262
68.935 22.369442
68.940 22.160307
68.945 22.577074
68.950 23.276075
68.955 23.483994
68.960 24.132809
68.965 24.426895
68.970 24.46875
68.975 24.448753
68.980 24.426315
68.985 24.201351
68.990 23.959536
68.995 23.568472
69.000 23.552332
69.005 23.667961
69.010 23.36758
69.015 22.548923
69.020 22.410601
69.025 22.43586
69.030 22.488686
69.035 22.423769
69.040 22.358704
69.045 22.708466
69.050 22.546032
69.055 22.75692
69.060 22.914074
69.065 23.25066
69.070 23.00959
69.075 23.02244
69.080 22.941919
69.085 24.317102
69.090 24.510914
69.095 24.918169
69.100 24.952278
69.105 26.377232
69.110 26.878466
69.115 26.903427
69.120 26.219934
69.125 26.633156
69.130 26.478306
69.135 25.867107
69.140 24.958939
69.145 25.146746
69.150 25.15469
69.155 25.627504
69.160 25.865906
69.165 26.67214
69.170 27.297993
69.175 27.39576
69.180 27.460835
69.185 28.270914
69.190 27.831757
69.195 27.178116
69.200 26.662033
69.205 26.796167
69.210 27.14068
69.215 27.075909
69.220 27.15848
69.225 28.412468
69.230 29.190912
69.235 29.522797
69.240 29.80962
69.245 30.567362
69.250 31.062119
69.255 30.663813
69.260 30.089647
69.265 29.893862
69.270 29.909153
69.275 29.373468
69.280 28.694759
69.285 28.281755
69.290 27.902218
69.295 27.48361
69.300 27.61063
69.305 27.804684
69.310 28.464756
69.315 28.296099
69.320 29.074701
69.325 29.850534
69.330 30.610947
69.335 30.118221
69.340 29.741076
69.345 29.710983
69.350 30.37701
69.355 29.727055
69.360 29.254332
69.365 29.187403
69.370 29.397427
69.375 30.053892
69.380 30.346643
69.385 30.130526
69.390 31.211185
69.395 31.196259
69.400 31.011253
69.405 30.59724
69.410 30.169607
69.415 30.04874
69.420 30.243181
69.425 29.427494
69.430 29.646036
69.435 30.239494
69.440 31.168365
69.445 31.680626
69.450 32.130516
69.455 32.256092
69.460 33.102222
69.465 33.490395
69.470 33.604343
69.475 32.903446
69.480 32.500248
69.485 32.21888
69.490 32.721146
69.495 32.374603
69.500 31.846962
69.505 31.992781
69.510 31.97496
69.515 31.895487
69.520 32.121052
69.525 31.869432
69.530 32.419762
69.535 32.966835
69.540 33.100349
69.545 33.64854
69.550 33.983669
69.555 33.20924
69.560 32.697456
69.565 31.618542
69.570 31.188854
69.575 30.971592
69.580 30.610386
69.585 30.6453
69.590 30.883934
69.595 31.32375
69.600 31.360559
69.605 31.164774
69.610 31.007545
69.615 30.901173
69.620 29.990486
69.625 29.930653
69.630 30.232698
69.635 30.688969
69.640 30.487139
69.645 30.538986
69.650 31.0051
69.655 31.504879
69.660 31.15654
69.665 30.515144
69.670 30.334339
69.675 30.997513
69.680 31.724773
69.685 31.343075
69.690 30.716599
69.695 30.781473
69.700 31.019478
69.705 30.372837
69.710 29.403013
69.715 28.722433
69.720 28.858246
69.725 29.158773
69.730 28.52907
69.735 28.354546
69.740 29.311142
69.745 29.69301
69.750 30.084154
69.755 29.318035
69.760 29.172272
69.765 29.139698
69.770 28.968277
69.775 29.037964
69.780 28.987522
69.785 28.891941
69.790 29.12681
69.795 29.186926
69.800 29.137102
69.805 28.407276
69.810 27.327188
69.815 27.206329
69.820 26.480963
69.825 25.816225
69.830 25.343822
69.835 25.535246
69.840 25.567598
69.845 25.603855
69.850 25.090628
69.855 25.820736
69.860 26.33024
69.865 25.691881
69.870 25.31028
69.875 25.297812
69.880 25.005133
69.885 24.76436
69.890 24.161692
69.895 24.465933
69.900 24.152166
69.905 24.126732
69.910 24.408281
69.915 24.389898
69.920 24.065247
69.925 23.92955
69.930 23.738686
69.935 23.834705
69.940 23.229752
69.945 23.002651
69.950 23.087851
69.955 23.817537
69.960 23.693575
69.965 23.945665
69.970 24.25753
69.975 24.90556
69.980 24.686218
69.985 24.332518
69.990 23.623402
69.995 23.428646
70.000 23.10955
70.005 22.698845
70.010 22.036369
70.015 21.952477
70.020 22.131435
70.025 22.260494
70.030 22.018196
70.035 21.849222
70.040 22.042894
70.045 22.138605
70.050 21.768339
70.055 22.050156
70.060 22.178528
70.065 22.440657
70.070 22.195847
70.075 21.659151
70.080 21.880816
70.085 22.630793
70.090 22.735798
70.095 22.891058
70.100 22.454229
70.105 22.391579
70.110 21.931511
70.115 21.310242
70.120 21.102884
70.125 20.20676
70.130 20.32045
70.135 21.030981
70.140 21.428339
70.145 21.388643
70.150 21.554283
70.155 21.533232
70.160 21.921904
70.165 21.897844
70.170 21.082876
70.175 21.029093
70.180 21.261271
70.185 21.144974
70.190 20.67728
70.195 20.337921
70.200 20.180477
70.205 20.38806
70.210 20.049576
70.215 20.841339
70.220 20.974461
70.225 21.174404
70.230 21.206846
70.235 20.711884
70.240 20.80209
70.245 21.420958
70.250 21.265398
70.255 21.089251
70.260 20.708534
70.265 20.732931
70.270 20.652903
70.275 20.407654
70.280 20.105505
70.285 20.138752
70.290 20.109278
70.295 20.192678
70.300 20.488213
70.305 20.808983
70.310 21.256769
70.315 20.925282
70.320 20.743979
70.325 21.178089
70.330 21.294067
70.335 20.589523
70.340 19.704397
70.345 18.750225
70.350 18.600481
70.355 18.407951
70.360 18.024651
70.365 18.298071
70.370 18.561052
70.375 18.784409
70.380 18.975657
70.385 19.258471
70.390 18.924768
70.395 18.601004
70.400 18.580759
70.405 19.00882
70.410 19.262264
70.415 18.621323
70.420 18.495716
70.425 18.705256
70.430 19.082216
70.435 18.857597
70.440 18.967489
70.445 19.547112
70.450 20.617348
70.455 20.685755
70.460 20.555433
70.465 20.597208
70.470 21.066183
70.475 21.092964
70.480 20.605986
70.485 19.536758
70.490 19.303043
70.495 19.403353
70.500 19.389839
70.505 19.766806
70.510 20.573099
70.515 20.98752
70.520 21.876041
70.525 22.856041
70.530 22.78294
70.535 22.048481
70.540 21.4039
70.545 20.683609
70.550 20.69558
70.555 20.599245
70.560 20.077576
70.565 20.261932
70.570 20.599785
70.575 19.839363
70.580 19.873734
70.585 19.740927
70.590 19.947197
70.595 20.663328
70.600 20.663383
70.605 21.013382
70.610 21.525316
70.615 21.019604
70.620 20.581594
70.625 19.9758
70.630 19.07052
70.635 19.064209
70.640 18.9352
70.645 19.242931
70.650 19.735289
70.655 19.703245
70.660 19.397573
70.665 19.203129
70.670 19.126179
70.675 19.337891
70.680 19.340748
70.685 18.598276
70.690 18.893799
70.695 19.75078
70.700 19.740469
70.705 19.434299
70.710 19.036175
70.715 19.49139
70.720 20.299076
70.725 19.736544
70.730 19.113306
70.735 19.491652
70.740 19.744904
70.745 20.034723
70.750 19.506176
70.755 19.063328
70.760 18.720026
70.765 18.717512
70.770 18.75864
70.775 18.082853
70.780 18.081448
70.785 18.080029
70.790 18.200193
70.795 18.372044
70.800 18.371376
70.805 18.131121
70.810 18.147694
70.815 17.840981
70.820 18.598448
70.825 18.984146
70.830 19.118277
70.835 18.951448
70.840 19.075943
70.845 19.731398
70.850 20.021084
70.855 19.371544
70.860 19.770218
70.865 20.082586
70.870 20.354706
70.875 20.666958
70.880 20.01787
70.885 19.436575
70.890 19.187391
70.895 18.773035
70.900 18.913418
70.905 19.104233
70.910 18.755169
70.915 18.957783
70.920 19.373684
70.925 19.382904
70.930 19.225719
70.935 18.903423
70.940 19.069864
70.945 19.258633
70.950 19.642578
70.955 19.677065
70.960 19.676332
70.965 19.85994
70.970 20.032911
70.975 19.985682
70.980 20.05485
70.985 19.47533
70.990 18.823353
70.995 18.591175
71.000 18.153177
71.005 17.829613
71.010 17.609211
71.015 17.968111
71.020 18.126802
71.025 19.342989
71.030 19.311441
71.035 19.675373
71.040 20.36627
71.045 20.136267
71.050 20.072296
71.055 20.876642
71.060 20.78751
71.065 20.828896
71.070 20.669512
71.075 20.500084
71.080 20.418264
71.085 19.973047
71.090 18.727072
71.095 19.183001
71.100 19.399639
71.105 18.943663
71.110 18.635777
71.115 18.483816
71.120 18.87129
71.125 18.652897
71.130 18.072653
71.135 18.634422
71.140 19.093578
71.145 19.158195
71.150 18.92853
71.155 18.926807
71.160 19.582228
71.165 19.589525
71.170 19.590479
71.175 19.361193
71.180 19.517332
71.185 19.836292
71.190 19.689537
71.195 19.451641
71.200 19.889109
71.205 20.245489
71.210 20.526648
71.215 21.119181
71.220 21.38707
71.225 21.400782
71.230 21.907457
71.235 21.148504
71.240 20.396223
71.245 20.408504
71.250 20.119747
71.255 20.366875
71.260 20.279741
71.265 20.413631
71.270 20.793962
71.275 20.329853
71.280 19.574442
71.285 19.437498
71.290 19.487951
71.295 19.404844
71.300 18.825882
71.305 18.715992
71.310 19.030165
71.315 19.274448
71.320 18.675138
71.325 18.157383
71.330 18.102825
71.335 18.465445
71.340 19.595497
71.345 20.357422
71.350 21.023787
71.355 21.264105
71.360 21.289333
71.365 20.821705
71.370 20.275713
71.375 19.633194
71.380 19.411247
71.385 18.748507
71.390 18.68791
71.395 18.932892
71.400 18.827585
71.405 18.825634
71.410 18.949291
71.415 19.138433
71.420 19.468275
71.425 19.182325
71.430 18.78026
71.435 18.345179
71.440 17.944433
71.445 17.541922
71.450 17.15782
71.455 17.704384
71.460 18.479595
71.465 18.591194
71.470 18.945284
71.475 19.534483
71.480 19.953493
71.485 19.953894
71.490 19.2792
71.495 19.303984
71.500 19.820885
71.505 20.001064
71.510 19.425348
71.515 18.775608
71.520 19.123539
71.525 18.582743
71.530 18.489433
71.535 18.664419
71.540 18.617144
71.545 18.559721
71.550 18.466839
71.555 18.467793
71.560 19.308556
71.565 19.276503
71.570 18.587557
71.575 18.875856
71.580 19.251053
71.585 19.812998
71.590 19.909086
71.595 19.421598
71.600 19.400919
71.605 19.252518
71.610 18.716654
71.615 18.486137
71.620 17.860418
71.625 17.909906
71.630 18.039631
71.635 18.655266
71.640 19.221373
71.645 19.324533
71.650 19.630804
71.655 19.293196
71.660 19.050251
71.665 19.083805
71.670 18.761826
71.675 18.282488
71.680 18.266981
71.685 18.884247
71.690 19.428932
71.695 19.534956
71.700 19.344711
71.705 19.591787
71.710 20.130907
71.715 19.961273
71.720 19.32139
71.725 19.093706
71.730 19.233023
71.735 19.085236
71.740 18.989801
71.745 18.900663
71.750 19.014593
71.755 19.004311
71.760 19.286724
71.765 19.176777
71.770 19.344166
71.775 19.18255
71.780 18.871481
71.785 18.742437
71.790 17.925079
71.795 17.584412
71.800 17.525425
71.805 17.623272
71.810 18.399246
71.815 18.598083
71.820 18.68606
71.825 19.321196
71.830 19.492765
71.835 19.771875
71.840 19.37851
71.845 19.053999
71.850 18.953678
71.855 19.138737
71.860 18.689783
71.865 18.53183
71.870 18.362967
71.875 18.730171
71.880 18.712341
71.885 18.887827
71.890 19.539919
71.895 20.344007
71.900 20.507051
71.905 19.87809
71.910 19.642992
71.915 19.547626
71.920 19.376432
71.925 19.07336
71.930 18.460451
71.935 18.636013
71.940 18.897657
71.945 18.795225
71.950 18.460491
71.955 17.459927
71.960 16.842066
71.965 16.773533
71.970 17.116188
71.975 17.241995
71.980 16.917694
71.985 17.363691
71.990 18.417301
71.995 19.080397
72.000 18.712954
72.005 18.428827
72.010 17.926924
72.015 18.749306
72.020 19.611641
72.025 19.039429
72.030 18.937786
72.035 19.139288
72.040 18.820599
72.045 19.446941
72.050 18.568617
72.055 18.273733
72.060 18.531944
72.065 18.471312
72.070 18.226892
72.075 18.099546
72.080 18.004969
72.085 18.197762
72.090 17.564573
72.095 17.696789
72.100 18.45228
72.105 18.676987
72.110 18.678782
72.115 18.517401
72.120 18.083273
72.125 18.197016
72.130 17.841518
72.135 17.071121
72.140 16.82283
72.145 16.920757
72.150 17.410122
72.155 18.248968
72.160 18.390472
72.165 18.635344
72.170 19.432224
72.175 19.535643
72.180 18.647327
72.185 18.515793
72.190 18.311583
72.195 18.003504
72.200 17.715096
72.205 17.32518
72.210 17.907858
72.215 17.811165
72.220 17.375105
72.225 17.053394
72.230 17.603739
72.235 18.201742
72.240 18.664316
72.245 18.793703
72.250 19.44842
72.255 19.322163
72.260 19.482347
72.265 19.082882
72.270 18.656191
72.275 18.5186
72.280 18.475441
72.285 19.000694
72.290 19.355495
72.295 19.021107
72.300 19.190687
72.305 18.875338
72.310 18.632277
72.315 18.449881
72.320 17.727882
72.325 17.830925
72.330 18.090277
72.335 18.020018
72.340 18.365265
72.345 18.282866
72.350 17.983625
72.355 18.295553
72.360 17.762894
72.365 18.095749
72.370 18.077526
72.375 17.83902
72.380 18.111572
72.385 18.043961
72.390 18.014214
72.395 18.314926
72.400 17.537277
72.405 17.48967
72.410 17.855984
72.415 18.053806
72.420 18.116119
72.425 18.012299
72.430 18.130125
72.435 18.484724
72.440 18.230778
72.445 17.931057
72.450 18.323351
72.455 19.072163
72.460 19.403896
72.465 18.947685
72.470 18.892735
72.475 18.703661
72.480 18.774008
72.485 18.137249
72.490 17.968805
72.495 17.637411
72.500 17.561455
72.505 17.47135
72.510 17.384457
72.515 16.859919
72.520 16.653154
72.525 17.492205
72.530 17.720982
72.535 18.463171
72.540 18.833115
72.545 18.739687
72.550 19.376875
72.555 19.37903
72.560 18.534683
72.565 18.065414
72.570 17.344376
72.575 16.974859
72.580 17.204498
72.585 16.992605
72.590 16.965031
72.595 16.687189
72.600 17.363745
72.605 17.825287
72.610 18.431562
72.615 18.320421
72.620 17.811705
72.625 18.113728
72.630 18.122189
72.635 18.187054
72.640 18.184528
72.645 18.410757
72.650 18.653912
72.655 19.082901
72.660 19.072926
72.665 18.877251
72.670 18.872978
72.675 19.016867
72.680 18.460684
72.685 18.111891
72.690 17.76063
72.695 17.871607
72.700 17.960747
72.705 18.02059
72.710 18.364388
72.715 17.952923
72.720 17.889246
72.725 18.182831
72.730 17.653728
72.735 17.786484
72.740 17.219889
72.745 17.237989
72.750 17.509636
72.755 17.154058
72.760 16.532745
72.765 16.386341
72.770 16.597654
72.775 16.749237
72.780 16.930235
72.785 17.289236
72.790 17.372908
72.795 17.920172
72.800 18.184776
72.805 17.83486
72.810 18.019079
72.815 18.114408
72.820 17.743668
72.825 18.019741
72.830 18.126308
72.835 18.190523
72.840 18.141455
72.845 18.131166
72.850 17.971344
72.855 18.170872
72.860 18.529072
72.865 18.213655
72.870 18.444918
72.875 17.833681
72.880 17.801439
72.885 18.405497
72.890 18.486912
72.895 17.931683
72.900 17.851032
72.905 17.280275
72.910 17.343843
72.915 16.94067
72.920 16.078899
72.925 16.680784
72.930 17.084991
72.935 17.015007
72.940 17.520229
72.945 17.501402
72.950 17.881901
72.955 17.640982
72.960 16.670067
72.965 16.501434
72.970 16.419025
72.975 16.176493
72.980 16.22872
72.985 16.108067
72.990 16.411242
72.995 16.313467
73.000 16.21147
