!@!!GADDS PLOTSO FILE: Chi integration type
!@!!Title/SampleName: map-116
!@!!Comment: ?
!@!!User: Bruker Instrument Administrator
!@!!Site: University of Illinois Chicago
!@!!Frame: map-116_01_000.gfrm
!@!!Wavelengths    1.54184   1.54056   1.54439
!@!!Frame angles: 2Theta: 63.000 Omega: 50.000 Phi: 0.000 Chi: 90.000
!@!!Integration range: 2Theta: 53.000 to 73.000  Gamma: -105.000 to -75.000
!@!!Integration method: bin normalized
!@!N
!@!SS
!@!M
!@!L 0.0 0.0 0.0 0.0
!@!XDegrees
!@!YCounts
53.000 7.924792
53.005 7.750951
53.010 7.808431
53.015 7.771235
53.020 7.448613
53.025 7.456028
53.030 7.615583
53.035 7.811468
53.040 7.957758
53.045 8.108067
53.050 8.202779
53.055 8.26256
53.060 8.653181
53.065 8.537509
53.070 8.667662
53.075 8.483472
53.080 8.322518
53.085 8.357094
53.090 8.613052
53.095 8.682286
53.100 8.754649
53.105 8.785165
53.110 8.815256
53.115 9.396549
53.120 9.548126
53.125 9.460492
53.130 9.397179
53.135 8.958004
53.140 8.99478
53.145 9.223063
53.150 8.955006
53.155 8.490833
53.160 8.129203
53.165 7.949466
53.170 8.043084
53.175 7.719809
53.180 7.695832
53.185 7.696568
53.190 8.075212
53.195 8.136006
53.200 8.545024
53.205 9.23852
53.210 9.308548
53.215 9.335662
53.220 9.424819
53.225 9.486845
53.230 9.346746
53.235 8.608195
53.240 7.831265
53.245 7.245718
53.250 7.458797
53.255 6.966608
53.260 7.126443
53.265 7.762943
53.270 8.263062
53.275 8.640015
53.280 8.805458
53.285 8.292009
53.290 8.689734
53.295 8.430568
53.300 8.219255
53.305 8.214722
53.310 8.340682
53.315 8.564319
53.320 8.981758
53.325 9.036598
53.330 9.036314
53.335 8.564642
53.340 8.352017
53.345 8.003851
53.350 7.800808
53.355 7.280876
53.360 7.309497
53.365 7.566022
53.370 8.043133
53.375 8.446716
53.380 8.751636
53.385 8.592811
53.390 8.583828
53.395 8.349286
53.400 8.192519
53.405 8.093455
53.410 8.023246
53.415 8.19448
53.420 8.643834
53.425 8.794474
53.430 8.788998
53.435 8.698723
53.440 8.761422
53.445 8.482101
53.450 8.404413
53.455 8.461556
53.460 8.281119
53.465 8.328141
53.470 8.801961
53.475 8.708289
53.480 8.944737
53.485 8.970521
53.490 8.787278
53.495 8.913651
53.500 8.794882
53.505 8.700982
53.510 8.88075
53.515 8.906121
53.520 8.669553
53.525 8.551394
53.530 8.772161
53.535 8.986141
53.540 8.610463
53.545 8.353452
53.550 8.039936
53.555 7.903556
53.560 7.644835
53.565 7.579822
53.570 7.553641
53.575 7.601748
53.580 7.912036
53.585 8.221472
53.590 8.396183
53.595 8.260513
53.600 8.074027
53.605 7.920567
53.610 8.037705
53.615 7.984404
53.620 8.148431
53.625 8.331549
53.630 8.523683
53.635 8.915443
53.640 9.382793
53.645 9.423404
53.650 9.048705
53.655 8.963417
53.660 9.027633
53.665 9.284845
53.670 8.841149
53.675 8.952226
53.680 8.646229
53.685 8.950307
53.690 8.921975
53.695 8.742645
53.700 8.735002
53.705 8.717846
53.710 8.816807
53.715 9.282282
53.720 9.152072
53.725 9.45707
53.730 8.968559
53.735 8.867825
53.740 8.841418
53.745 8.528074
53.750 8.292415
53.755 8.40406
53.760 8.837077
53.765 9.420719
53.770 9.679598
53.775 9.724447
53.780 9.963921
53.785 9.935385
53.790 9.799219
53.795 9.345878
53.800 8.8345
53.805 8.415716
53.810 8.063822
53.815 8.112128
53.820 8.060397
53.825 8.1903
53.830 8.230824
53.835 8.830917
53.840 8.949094
53.845 8.915866
53.850 8.742326
53.855 8.826495
53.860 9.088358
53.865 9.002205
53.870 8.911857
53.875 9.291104
53.880 9.388053
53.885 9.21344
53.890 9.146277
53.895 9.088967
53.900 8.995915
53.905 8.418442
53.910 8.03507
53.915 8.007199
53.920 8.00741
53.925 7.866215
53.930 8.044781
53.935 8.35094
53.940 8.886258
53.945 9.384754
53.950 9.381208
53.955 9.065445
53.960 8.705086
53.965 8.8522
53.970 8.774699
53.975 8.60129
53.980 8.691833
53.985 8.976585
53.990 9.415091
53.995 9.344369
54.000 8.802689
54.005 8.560396
54.010 8.212916
54.015 8.106729
54.020 8.485077
54.025 8.574965
54.030 8.784422
54.035 8.930657
54.040 8.960621
54.045 8.846103
54.050 8.522883
54.055 8.117205
54.060 8.067041
54.065 8.141848
54.070 8.362976
54.075 8.126983
54.080 8.189016
54.085 7.90179
54.090 8.100082
54.095 7.92778
54.100 7.519328
54.105 7.526109
54.110 7.789906
54.115 7.793145
54.120 7.849766
54.125 7.67521
54.130 7.971807
54.135 8.212512
54.140 8.706991
54.145 9.036508
54.150 9.15392
54.155 9.105152
54.160 8.977869
54.165 8.740884
54.170 8.926256
54.175 8.911763
54.180 8.749583
54.185 8.996016
54.190 9.534899
54.195 9.602516
54.200 9.81918
54.205 9.557069
54.210 9.399841
54.215 9.486191
54.220 9.089542
54.225 8.895456
54.230 9.025379
54.235 8.845468
54.240 8.291404
54.245 8.028463
54.250 7.555444
54.255 7.43466
54.260 7.667206
54.265 8.166835
54.270 8.520802
54.275 8.771446
54.280 9.324097
54.285 9.719504
54.290 9.85695
54.295 9.480888
54.300 8.893509
54.305 8.828361
54.310 8.777121
54.315 8.65107
54.320 8.994798
54.325 9.088898
54.330 9.051448
54.335 9.635365
54.340 10.022027
54.345 10.14299
54.350 9.865122
54.355 9.625467
54.360 9.622103
54.365 9.635862
54.370 8.978988
54.375 8.656806
54.380 8.406505
54.385 8.412421
54.390 8.473629
54.395 8.577288
54.400 8.553552
54.405 8.489104
54.410 8.743481
54.415 9.149505
54.420 9.285759
54.425 9.251897
54.430 9.194236
54.435 9.200802
54.440 9.218994
54.445 8.61909
54.450 8.333965
54.455 7.91692
54.460 7.7131
54.465 7.638876
54.470 7.539083
54.475 7.416036
54.480 7.687668
54.485 7.675997
54.490 7.967532
54.495 8.030681
54.500 8.209682
54.505 8.160846
54.510 8.363372
54.515 8.315757
54.520 8.507151
54.525 8.574566
54.530 8.372942
54.535 8.188745
54.540 8.255909
54.545 8.633346
54.550 8.903691
54.555 9.021219
54.560 9.196405
54.565 8.94151
54.570 8.835859
54.575 8.59595
54.580 8.304708
54.585 8.44873
54.590 8.319138
54.595 8.313024
54.600 8.903212
54.605 9.325047
54.610 9.470175
54.615 9.802446
54.620 9.914094
54.625 9.822579
54.630 9.57325
54.635 9.42152
54.640 9.265831
54.645 8.844076
54.650 8.36526
54.655 8.182934
54.660 8.799882
54.665 9.207566
54.670 8.97671
54.675 9.251904
54.680 9.809858
54.685 9.763015
54.690 9.451438
54.695 8.986311
54.700 8.751655
54.705 8.92018
54.710 8.732072
54.715 8.326365
54.720 8.367578
54.725 8.588449
54.730 8.719327
54.735 8.986263
54.740 8.833885
54.745 8.590648
54.750 9.026264
54.755 9.209062
54.760 9.13868
54.765 9.090025
54.770 9.166439
54.775 9.545699
54.780 9.612652
54.785 9.589005
54.790 9.169464
54.795 9.01053
54.800 9.244663
54.805 9.358581
54.810 9.460782
54.815 9.324137
54.820 9.270706
54.825 9.722419
54.830 9.640211
54.835 9.373965
54.840 9.594316
54.845 9.599329
54.850 9.638875
54.855 9.488653
54.860 9.570414
54.865 9.723722
54.870 9.838135
54.875 9.64043
54.880 9.655253
54.885 9.465983
54.890 9.56277
54.895 9.601988
54.900 9.78572
54.905 10.03313
54.910 10.39645
54.915 10.517309
54.920 11.150617
54.925 10.854844
54.930 10.507885
54.935 9.960541
54.940 9.033025
54.945 8.86533
54.950 9.134094
54.955 8.966219
54.960 8.822762
54.965 8.624451
54.970 8.669756
54.975 8.916031
54.980 8.765804
54.985 8.849823
54.990 8.547819
54.995 8.759664
55.000 8.917164
55.005 9.320819
55.010 9.547776
55.015 9.429183
55.020 9.081263
55.025 9.456276
55.030 9.993099
55.035 10.293709
55.040 10.128963
55.045 9.915669
55.050 10.336374
55.055 10.488962
55.060 10.561879
55.065 9.813064
55.070 9.815268
55.075 9.643399
55.080 9.430777
55.085 8.823842
55.090 8.751092
55.095 8.490988
55.100 8.638972
55.105 8.685556
55.110 8.902713
55.115 9.443016
55.120 9.42478
55.125 9.57412
55.130 9.779963
55.135 9.898417
55.140 9.871552
55.145 9.689569
55.150 9.517746
55.155 9.226046
55.160 9.016506
55.165 9.456731
55.170 9.388487
55.175 9.383203
55.180 9.509526
55.185 9.611444
55.190 10.105608
55.195 10.230312
55.200 9.88064
55.205 9.881835
55.210 9.778549
55.215 9.544912
55.220 9.286368
55.225 8.775917
55.230 8.533652
55.235 8.553532
55.240 8.684642
55.245 8.84676
55.250 8.564002
55.255 8.782109
55.260 9.231658
55.265 9.435712
55.270 9.687544
55.275 9.702567
55.280 10.051233
55.285 10.155496
55.290 9.873291
55.295 10.093285
55.300 10.071416
55.305 9.639384
55.310 9.352609
55.315 8.953751
55.320 9.323786
55.325 9.474981
55.330 9.354905
55.335 9.479736
55.340 9.552374
55.345 9.432085
55.350 9.386966
55.355 9.795893
55.360 9.584291
55.365 9.544125
55.370 9.890922
55.375 10.184332
55.380 10.427764
55.385 10.246388
55.390 9.848212
55.395 9.516883
55.400 8.80373
55.405 8.531687
55.410 8.912604
55.415 9.153635
55.420 9.504253
55.425 9.69173
55.430 9.836236
55.435 10.340049
55.440 10.401002
55.445 10.135757
55.450 9.381689
55.455 8.913166
55.460 9.489861
55.465 9.949948
55.470 9.989037
55.475 9.534657
55.480 9.203858
55.485 9.524792
55.490 9.604986
55.495 9.144588
55.500 8.813715
55.505 8.365005
55.510 9.088293
55.515 9.350709
55.520 9.389157
55.525 9.562508
55.530 9.536958
55.535 9.788287
55.540 9.670187
55.545 9.19182
55.550 9.335839
55.555 9.401856
55.560 9.050326
55.565 9.287192
55.570 9.075788
55.575 9.135183
55.580 9.239236
55.585 9.367566
55.590 9.020323
55.595 9.266452
55.600 9.086379
55.605 9.368351
55.610 9.181151
55.615 9.10364
55.620 9.158753
55.625 9.553566
55.630 9.790507
55.635 9.388002
55.640 9.271705
55.645 9.367395
55.650 9.056288
55.655 8.806383
55.660 8.290388
55.665 7.640305
55.670 7.501674
55.675 7.656571
55.680 7.664271
55.685 7.675938
55.690 8.183585
55.695 8.805982
55.700 9.399863
55.705 9.605782
55.710 9.69848
55.715 9.864239
55.720 9.478756
55.725 9.406251
55.730 9.64143
55.735 9.431876
55.740 9.568862
55.745 9.27981
55.750 9.232513
55.755 9.517722
55.760 9.35782
55.765 8.942898
55.770 8.99173
55.775 9.235443
55.780 9.42103
55.785 9.645612
55.790 9.31559
55.795 9.193398
55.800 9.296057
55.805 9.232051
55.810 9.211442
55.815 9.461957
55.820 9.820409
55.825 10.265022
55.830 10.638309
55.835 11.334466
55.840 11.527235
55.845 11.606875
55.850 11.516252
55.855 11.21602
55.860 10.841961
55.865 10.530728
55.870 9.757906
55.875 9.418112
55.880 9.205546
55.885 9.359532
55.890 9.527396
55.895 9.297
55.900 9.218317
55.905 9.765838
55.910 10.012332
55.915 10.054809
55.920 10.249044
55.925 10.426924
55.930 10.558199
55.935 10.756547
55.940 10.457402
55.945 10.587604
55.950 10.913494
55.955 10.861123
55.960 11.122177
55.965 11.039357
55.970 10.963579
55.975 11.100637
55.980 10.715312
55.985 10.034153
55.990 9.740853
55.995 9.289121
56.000 8.906957
56.005 9.027322
56.010 8.942546
56.015 9.336567
56.020 9.2054
56.025 9.211833
56.030 9.569002
56.035 9.763187
56.040 9.311217
56.045 9.212758
56.050 8.761086
56.055 9.18982
56.060 9.665805
56.065 9.927602
56.070 10.179646
56.075 10.238974
56.080 10.804874
56.085 11.031303
56.090 10.513251
56.095 10.357805
56.100 9.953312
56.105 10.059943
56.110 10.177135
56.115 9.823668
56.120 9.650223
56.125 9.487951
56.130 9.200528
56.135 9.244262
56.140 9.008748
56.145 8.833024
56.150 8.693088
56.155 8.632485
56.160 8.802308
56.165 9.212251
56.170 9.397871
56.175 9.326552
56.180 8.891808
56.185 8.83275
56.190 8.882352
56.195 8.927197
56.200 8.848747
56.205 8.701242
56.210 9.097898
56.215 9.94585
56.220 10.280709
56.225 10.500615
56.230 11.190888
56.235 11.169629
56.240 11.29022
56.245 11.413884
56.250 11.365876
56.255 11.552064
56.260 11.280415
56.265 10.781051
56.270 10.887897
56.275 10.497301
56.280 10.354238
56.285 10.534269
56.290 10.507775
56.295 10.482661
56.300 10.228005
56.305 9.914697
56.310 10.55936
56.315 10.757218
56.320 10.666717
56.325 10.621817
56.330 10.801038
56.335 11.021811
56.340 11.379136
56.345 11.144616
56.350 10.836284
56.355 10.789615
56.360 10.627613
56.365 10.601575
56.370 10.531784
56.375 10.149364
56.380 9.846792
56.385 10.100746
56.390 9.70118
56.395 9.398809
56.400 9.091556
56.405 8.804651
56.410 8.831711
56.415 8.751404
56.420 8.629484
56.425 8.875559
56.430 9.399278
56.435 9.907405
56.440 10.873524
56.445 11.868633
56.450 12.283266
56.455 12.472041
56.460 12.270025
56.465 12.327443
56.470 12.095103
56.475 11.360441
56.480 10.884637
56.485 11.127729
56.490 11.579702
56.495 12.161497
56.500 12.094865
56.505 12.004089
56.510 12.145178
56.515 11.683595
56.520 11.147992
56.525 10.740915
56.530 10.403294
56.535 10.520269
56.540 10.818096
56.545 11.517663
56.550 11.706779
56.555 11.683827
56.560 11.509952
56.565 11.203136
56.570 10.790697
56.575 10.466246
56.580 9.689063
56.585 9.762677
56.590 9.88507
56.595 9.980157
56.600 10.366751
56.605 10.562446
56.610 10.688416
56.615 11.17852
56.620 11.012418
56.625 10.965903
56.630 10.88166
56.635 10.743693
56.640 10.754415
56.645 10.208219
56.650 10.471884
56.655 10.649728
56.660 10.918367
56.665 11.644478
56.670 11.935111
56.675 11.909636
56.680 11.854164
56.685 11.544434
56.690 11.604249
56.695 11.338139
56.700 11.007381
56.705 10.935629
56.710 11.092587
56.715 11.907323
56.720 11.965466
56.725 12.312868
56.730 12.755246
56.735 12.764227
56.740 12.820375
56.745 12.628521
56.750 12.165859
56.755 12.029626
56.760 11.723798
56.765 11.074971
56.770 11.09224
56.775 10.596298
56.780 10.981215
56.785 11.150146
56.790 11.010386
56.795 11.008294
56.800 10.959509
56.805 11.094423
56.810 11.129808
56.815 10.401369
56.820 9.991061
56.825 9.592482
56.830 9.17188
56.835 9.158954
56.840 8.662127
56.845 8.888889
56.850 9.130226
56.855 9.478765
56.860 9.50237
56.865 9.637772
56.870 9.704152
56.875 10.092433
56.880 10.246367
56.885 9.844244
56.890 9.762134
56.895 9.597741
56.900 9.52618
56.905 9.48628
56.910 9.172572
56.915 8.963932
56.920 9.107942
56.925 9.06834
56.930 9.417826
56.935 9.791991
56.940 9.836129
56.945 10.09897
56.950 10.217549
56.955 10.327672
56.960 10.638196
56.965 10.407388
56.970 10.134103
56.975 10.336671
56.980 9.990062
56.985 10.339508
56.990 10.424382
56.995 10.339102
57.000 10.279592
57.005 9.991902
57.010 10.029075
57.015 10.104117
57.020 9.600011
57.025 9.780659
57.030 9.994832
57.035 10.564768
57.040 10.883945
57.045 11.131752
57.050 11.208567
57.055 11.203614
57.060 11.290899
57.065 10.961342
57.070 10.893876
57.075 10.612473
57.080 10.496988
57.085 10.690466
57.090 10.45189
57.095 10.118304
57.100 10.145866
57.105 9.968486
57.110 9.800362
57.115 9.211745
57.120 8.976504
57.125 9.163661
57.130 9.474001
57.135 9.563237
57.140 9.687245
57.145 9.740823
57.150 9.740935
57.155 10.499867
57.160 10.852342
57.165 10.783
57.170 10.801367
57.175 10.957429
57.180 11.707184
57.185 12.074487
57.190 11.993595
57.195 12.057178
57.200 12.245519
57.205 12.417114
57.210 12.248364
57.215 12.26654
57.220 12.447881
57.225 12.352324
57.230 12.067559
57.235 12.232073
57.240 12.272444
57.245 11.865704
57.250 11.146468
57.255 10.637531
57.260 10.084427
57.265 9.939857
57.270 9.62978
57.275 9.48644
57.280 10.250062
57.285 10.756379
57.290 10.834488
57.295 10.597623
57.300 10.33112
57.305 10.653584
57.310 10.55907
57.315 10.141727
57.320 10.06051
57.325 10.142192
57.330 10.694205
57.335 11.125894
57.340 10.787331
57.345 10.54424
57.350 10.297382
57.355 10.471822
57.360 10.579003
57.365 10.523827
57.370 10.340949
57.375 10.483402
57.380 10.863245
57.385 11.267574
57.390 11.521876
57.395 11.762109
57.400 12.138664
57.405 12.365324
57.410 12.461323
57.415 12.145749
57.420 11.759604
57.425 11.251627
57.430 11.015112
57.435 10.442793
57.440 10.063549
57.445 9.953049
57.450 10.215315
57.455 10.197681
57.460 10.03836
57.465 10.075876
57.470 10.032458
57.475 10.066052
57.480 10.236736
57.485 9.985225
57.490 10.386735
57.495 11.011228
57.500 10.512435
57.505 10.504591
57.510 10.761937
57.515 10.98821
57.520 11.080588
57.525 10.74453
57.530 10.49079
57.535 10.913154
57.540 11.256908
57.545 11.087161
57.550 10.920149
57.555 10.69336
57.560 10.566397
57.565 10.311394
57.570 10.183714
57.575 10.226295
57.580 10.291161
57.585 10.372046
57.590 10.73136
57.595 10.944429
57.600 11.552786
57.605 11.831559
57.610 11.612584
57.615 11.32824
57.620 11.515856
57.625 11.418133
57.630 11.031027
57.635 10.569433
57.640 10.428934
57.645 10.728724
57.650 11.201599
57.655 11.024468
57.660 10.761868
57.665 10.903754
57.670 11.090313
57.675 11.411389
57.680 11.397865
57.685 11.196464
57.690 11.385861
57.695 11.730584
57.700 11.532792
57.705 11.472607
57.710 11.204109
57.715 10.839073
57.720 10.666437
57.725 10.735786
57.730 10.552184
57.735 10.548339
57.740 10.615308
57.745 10.554531
57.750 10.64519
57.755 10.675042
57.760 10.583864
57.765 11.513115
57.770 11.854261
57.775 12.155428
57.780 12.47727
57.785 12.694851
57.790 12.848364
57.795 12.200533
57.800 11.433105
57.805 11.322002
57.810 11.191642
57.815 10.984142
57.820 10.751769
57.825 10.812459
57.830 11.214544
57.835 11.791301
57.840 11.847466
57.845 11.465376
57.850 11.035646
57.855 11.014395
57.860 10.93716
57.865 11.188943
57.870 10.787511
57.875 10.582987
57.880 10.877053
57.885 11.362143
57.890 11.474117
57.895 11.679249
57.900 11.386813
57.905 11.201818
57.910 11.166778
57.915 11.332479
57.920 11.059799
57.925 10.734272
57.930 10.759148
57.935 10.706934
57.940 10.760197
57.945 11.000293
57.950 10.8309
57.955 10.675587
57.960 10.521672
57.965 10.688678
57.970 10.97517
57.975 11.061351
57.980 11.149194
57.985 11.317261
57.990 11.836541
57.995 11.750801
58.000 11.311756
58.005 11.149122
58.010 11.060349
58.015 11.337966
58.020 11.76354
58.025 11.493211
58.030 11.370111
58.035 11.565712
58.040 11.880415
58.045 12.114991
58.050 12.077201
58.055 11.653301
58.060 11.759634
58.065 12.106338
58.070 12.237203
58.075 11.928524
58.080 11.669136
58.085 11.223861
58.090 11.388658
58.095 11.208087
58.100 11.14921
58.105 10.579109
58.110 10.782717
58.115 11.289765
58.120 11.664
58.125 11.808199
58.130 11.639777
58.135 11.692797
58.140 12.125935
58.145 11.564162
58.150 11.129817
58.155 11.006266
58.160 11.223645
58.165 11.900608
58.170 12.250724
58.175 12.472083
58.180 12.678881
58.185 12.568739
58.190 12.555564
58.195 12.406325
58.200 12.296241
58.205 12.28255
58.210 12.299129
58.215 12.574027
58.220 12.8032
58.225 12.560223
58.230 12.405146
58.235 12.311163
58.240 12.228598
58.245 12.383327
58.250 12.882799
58.255 13.423971
58.260 13.902833
58.265 14.191276
58.270 14.070354
58.275 14.117236
58.280 13.871831
58.285 13.518041
58.290 13.053284
58.295 13.011909
58.300 12.78616
58.305 13.087819
58.310 13.184145
58.315 13.223137
58.320 13.271364
58.325 13.749131
58.330 13.810029
58.335 14.386888
58.340 14.562792
58.345 14.850273
58.350 15.330882
58.355 15.622319
58.360 15.853774
58.365 15.918836
58.370 15.809173
58.375 16.127224
58.380 15.982471
58.385 16.318083
58.390 16.194061
58.395 16.109003
58.400 16.664818
58.405 16.548622
58.410 16.402813
58.415 16.570904
58.420 16.79998
58.425 16.673647
58.430 16.472
58.435 16.52565
58.440 16.570942
58.445 16.587116
58.450 16.416609
58.455 16.329342
58.460 16.732975
58.465 17.217497
58.470 16.967165
58.475 16.903809
58.480 17.213436
58.485 17.511206
58.490 17.547829
58.495 17.778919
58.500 17.19986
58.505 17.33996
58.510 17.147068
58.515 16.69544
58.520 16.511015
58.525 16.77873
58.530 17.3211
58.535 17.714548
58.540 18.21908
58.545 18.493086
58.550 18.770988
58.555 19.11688
58.560 18.814983
58.565 18.316492
58.570 17.855595
58.575 17.473392
58.580 17.641827
58.585 17.387922
58.590 16.647839
58.595 16.666336
58.600 16.438602
58.605 16.118114
58.610 15.623267
58.615 15.491442
58.620 16.055403
58.625 17.050917
58.630 17.5023
58.635 17.914469
58.640 18.350348
58.645 18.922735
58.650 19.000179
58.655 19.126944
58.660 18.431879
58.665 17.804117
58.670 17.262257
58.675 17.209044
58.680 17.233643
58.685 16.720505
58.690 16.120453
58.695 15.974736
58.700 15.490326
58.705 15.722329
58.710 15.958317
58.715 16.362303
58.720 16.402399
58.725 16.526768
58.730 16.427141
58.735 16.657204
58.740 16.437365
58.745 16.24144
58.750 15.57758
58.755 15.29139
58.760 14.968675
58.765 14.51012
58.770 13.96291
58.775 13.487637
58.780 13.276576
58.785 13.490641
58.790 13.761367
58.795 13.450276
58.800 13.780885
58.805 14.402408
58.810 14.461285
58.815 13.993681
58.820 13.609713
58.825 13.28722
58.830 13.303571
58.835 13.22426
58.840 12.874573
58.845 13.408248
58.850 13.62301
58.855 13.678481
58.860 13.711539
58.865 13.948497
58.870 13.528443
58.875 13.197444
58.880 12.820355
58.885 12.6475
58.890 12.409461
58.895 12.180164
58.900 12.199912
58.905 12.450007
58.910 12.534384
58.915 12.416844
58.920 12.525265
58.925 12.950486
58.930 13.098621
58.935 13.145924
58.940 13.269475
58.945 13.336286
58.950 13.035497
58.955 12.932222
58.960 13.494947
58.965 13.490273
58.970 13.154556
58.975 13.173962
58.980 13.731135
58.985 14.0535
58.990 13.60172
58.995 12.622576
59.000 12.702909
59.005 12.722319
59.010 12.258726
59.015 11.482438
59.020 11.942395
59.025 12.496051
59.030 12.788761
59.035 12.597293
59.040 12.91958
59.045 13.156011
59.050 13.462898
59.055 12.702082
59.060 12.438124
59.065 12.367774
59.070 12.093691
59.075 11.641195
59.080 11.652507
59.085 11.621349
59.090 11.914529
59.095 11.965707
59.100 12.258996
59.105 12.537786
59.110 12.727452
59.115 13.033084
59.120 13.019777
59.125 12.816745
59.130 12.951466
59.135 13.172327
59.140 13.340027
59.145 13.486752
59.150 12.751904
59.155 12.506711
59.160 12.566053
59.165 12.037367
59.170 11.408027
59.175 11.294289
59.180 11.062014
59.185 11.03009
59.190 11.191402
59.195 11.349957
59.200 11.214576
59.205 11.526819
59.210 11.729768
59.215 11.257552
59.220 11.358797
59.225 11.093834
59.230 11.477372
59.235 11.844452
59.240 11.325123
59.245 11.425899
59.250 11.913097
59.255 12.139787
59.260 12.079395
59.265 11.547669
59.270 11.227285
59.275 11.381363
59.280 11.244578
59.285 11.576365
59.290 11.852605
59.295 11.828723
59.300 11.848783
59.305 12.103683
59.310 11.69414
59.315 11.747825
59.320 11.433926
59.325 11.458415
59.330 11.230903
59.335 11.143301
59.340 11.026607
59.345 11.187413
59.350 10.745235
59.355 10.276152
59.360 10.040098
59.365 10.378083
59.370 10.764875
59.375 10.822575
59.380 10.734125
59.385 10.848475
59.390 11.337252
59.395 11.348992
59.400 11.515847
59.405 11.896109
59.410 11.87398
59.415 11.986588
59.420 12.307462
59.425 12.034113
59.430 12.059457
59.435 11.83654
59.440 12.162736
59.445 12.686613
59.450 12.778295
59.455 12.465574
59.460 12.70028
59.465 12.556837
59.470 12.529662
59.475 12.14202
59.480 12.213647
59.485 12.126436
59.490 11.747641
59.495 11.442683
59.500 11.364105
59.505 10.760097
59.510 10.36638
59.515 10.021497
59.520 9.940659
59.525 10.239107
59.530 10.725595
59.535 10.785168
59.540 11.175189
59.545 11.005734
59.550 11.057185
59.555 11.373455
59.560 11.328649
59.565 10.784005
59.570 10.696946
59.575 10.872532
59.580 11.08997
59.585 10.997983
59.590 11.06931
59.595 11.441838
59.600 11.492113
59.605 11.356648
59.610 11.387498
59.615 11.574715
59.620 11.610832
59.625 11.408086
59.630 11.302693
59.635 11.612386
59.640 11.621305
59.645 10.791903
59.650 10.11167
59.655 10.248703
59.660 10.854465
59.665 10.956254
59.670 10.348308
59.675 10.657302
59.680 11.277449
59.685 11.745932
59.690 11.760736
59.695 11.393763
59.700 11.794244
59.705 12.372545
59.710 12.075914
59.715 12.332404
59.720 11.921072
59.725 11.612708
59.730 11.303381
59.735 11.15594
59.740 10.984725
59.745 10.896447
59.750 10.315328
59.755 10.250518
59.760 10.128614
59.765 10.363195
59.770 10.228148
59.775 10.570382
59.780 11.430884
59.785 12.207585
59.790 12.603838
59.795 12.764015
59.800 12.502599
59.805 12.512638
59.810 12.496475
59.815 12.189401
59.820 12.014599
59.825 12.197844
59.830 12.554203
59.835 12.564166
59.840 12.162895
59.845 11.890364
59.850 11.378458
59.855 11.304319
59.860 10.802833
59.865 10.713497
59.870 10.95775
59.875 11.191567
59.880 11.320023
59.885 11.802937
59.890 12.190643
59.895 12.266981
59.900 12.340525
59.905 12.376507
59.910 12.159925
59.915 12.200196
59.920 12.192203
59.925 12.44828
59.930 12.505227
59.935 12.233757
59.940 12.370933
59.945 12.782462
59.950 12.643763
59.955 12.428926
59.960 12.026887
59.965 12.124708
59.970 11.946181
59.975 11.131755
59.980 10.78623
59.985 10.936915
59.990 10.767573
59.995 10.694463
60.000 10.431058
60.005 10.731881
60.010 11.333082
60.015 11.340819
60.020 10.921998
60.025 11.072021
60.030 10.761683
60.035 10.586131
60.040 9.880785
60.045 10.051573
60.050 10.433573
60.055 10.553304
60.060 10.262016
60.065 10.042136
60.070 10.270834
60.075 10.379451
60.080 10.536561
60.085 10.911271
60.090 11.066733
60.095 10.893328
60.100 11.392873
60.105 11.559713
60.110 11.902
60.115 11.702648
60.120 11.464722
60.125 11.496524
60.130 11.902397
60.135 11.816483
60.140 11.871686
60.145 11.620703
60.150 11.005212
60.155 11.09808
60.160 11.138865
60.165 10.93038
60.170 11.387708
60.175 11.600743
60.180 12.06121
60.185 12.505192
60.190 12.773169
60.195 12.942314
60.200 13.259059
60.205 12.601864
60.210 12.265615
60.215 12.040271
60.220 12.275447
60.225 11.981663
60.230 11.683633
60.235 11.682312
60.240 11.880117
60.245 11.985822
60.250 12.022729
60.255 11.583782
60.260 11.562049
60.265 11.497525
60.270 11.726797
60.275 11.560799
60.280 11.373174
60.285 11.22165
60.290 10.966698
60.295 10.801624
60.300 10.984191
60.305 10.68928
60.310 10.890858
60.315 11.17652
60.320 11.228781
60.325 11.088366
60.330 11.250704
60.335 11.21059
60.340 10.947234
60.345 11.11791
60.350 10.687355
60.355 10.778469
60.360 10.958902
60.365 11.140696
60.370 11.268746
60.375 11.521505
60.380 11.555073
60.385 12.2139
60.390 12.134604
60.395 11.940327
60.400 11.377018
60.405 11.100289
60.410 11.089099
60.415 11.115929
60.420 10.919081
60.425 10.793681
60.430 10.750061
60.435 10.461061
60.440 10.329663
60.445 10.327995
60.450 10.629247
60.455 10.813812
60.460 11.669141
60.465 12.136181
60.470 12.886433
60.475 13.591813
60.480 13.594554
60.485 13.309235
60.490 12.66753
60.495 11.963408
60.500 12.110264
60.505 12.363266
60.510 11.928688
60.515 11.722775
60.520 11.501339
60.525 12.052208
60.530 12.492166
60.535 11.817356
60.540 11.458431
60.545 11.389703
60.550 11.284259
60.555 11.170657
60.560 10.628205
60.565 10.325229
60.570 10.570599
60.575 10.204734
60.580 10.250767
60.585 10.535159
60.590 10.615101
60.595 10.677552
60.600 10.682607
60.605 10.86034
60.610 11.125521
60.615 11.315499
60.620 11.804314
60.625 12.315483
60.630 12.360789
60.635 12.229459
60.640 12.254336
60.645 12.253724
60.650 12.39396
60.655 11.861362
60.660 11.636618
60.665 11.469787
60.670 11.34871
60.675 11.254424
60.680 11.338809
60.685 11.308849
60.690 11.243942
60.695 10.955292
60.700 11.237789
60.705 12.256516
60.710 12.049159
60.715 12.038791
60.720 11.927163
60.725 11.817332
60.730 12.333272
60.735 12.208955
60.740 11.669722
60.745 12.669333
60.750 12.501063
60.755 12.340439
60.760 12.77992
60.765 13.15288
60.770 13.572002
60.775 13.484167
60.780 13.010646
60.785 13.380697
60.790 13.930208
60.795 13.690228
60.800 13.365251
60.805 12.924419
60.810 12.583698
60.815 12.588113
60.820 12.559324
60.825 12.078763
60.830 12.116717
60.835 11.806582
60.840 11.754349
60.845 12.26302
60.850 11.980641
60.855 11.357018
60.860 10.991261
60.865 11.017904
60.870 11.325891
60.875 11.677523
60.880 11.460359
60.885 11.420385
60.890 11.472526
60.895 11.943406
60.900 11.809752
60.905 11.649151
60.910 11.247693
60.915 10.954537
60.920 11.112219
60.925 11.532691
60.930 11.594598
60.935 11.209358
60.940 10.945179
60.945 11.280897
60.950 11.903886
60.955 11.915137
60.960 11.734662
60.965 11.493663
60.970 11.737118
60.975 12.075748
60.980 11.753376
60.985 11.047224
60.990 11.07308
60.995 11.17425
61.000 11.413997
61.005 11.549767
61.010 11.227866
61.015 11.330343
61.020 11.49495
61.025 11.497789
61.030 11.27473
61.035 10.943762
61.040 10.768139
61.045 10.725605
61.050 10.849781
61.055 10.39056
61.060 10.126076
61.065 10.305661
61.070 10.431938
61.075 10.850642
61.080 11.21831
61.085 10.99035
61.090 11.77489
61.095 12.866045
61.100 13.005169
61.105 12.794537
61.110 12.722111
61.115 12.9533
61.120 13.303853
61.125 13.083738
61.130 12.437764
61.135 12.712172
61.140 12.884083
61.145 12.429491
61.150 12.242463
61.155 12.281778
61.160 12.015967
61.165 11.519683
61.170 11.584264
61.175 11.869571
61.180 12.51732
61.185 12.899541
61.190 12.676124
61.195 12.768746
61.200 13.023511
61.205 12.601195
61.210 12.661132
61.215 12.427707
61.220 12.174314
61.225 12.559733
61.230 12.849655
61.235 12.728293
61.240 12.359823
61.245 11.789685
61.250 11.712483
61.255 11.80468
61.260 11.759068
61.265 11.95082
61.270 12.035167
61.275 12.478415
61.280 12.379653
61.285 12.230928
61.290 11.787943
61.295 11.439916
61.300 11.041978
61.305 11.124413
61.310 11.141756
61.315 11.57737
61.320 11.803106
61.325 11.797177
61.330 11.829134
61.335 12.02843
61.340 11.973508
61.345 11.656898
61.350 11.176064
61.355 11.185578
61.360 11.424623
61.365 11.747828
61.370 11.186206
61.375 11.106684
61.380 11.806981
61.385 12.324785
61.390 12.312212
61.395 12.401936
61.400 11.822483
61.405 12.153809
61.410 12.366114
61.415 11.947991
61.420 11.690402
61.425 11.282451
61.430 11.125493
61.435 11.355261
61.440 11.65309
61.445 11.706669
61.450 11.788172
61.455 11.747108
61.460 11.962167
61.465 11.884867
61.470 12.004579
61.475 11.720524
61.480 11.321557
61.485 11.53173
61.490 11.814189
61.495 11.490854
61.500 11.419901
61.505 11.282316
61.510 11.398169
61.515 11.729096
61.520 11.522764
61.525 11.816296
61.530 12.5333
61.535 13.178267
61.540 13.751393
61.545 14.455983
61.550 14.926725
61.555 15.273976
61.560 15.619753
61.565 15.21115
61.570 14.580463
61.575 13.834171
61.580 13.20458
61.585 12.49408
61.590 12.268595
61.595 11.701746
61.600 12.087478
61.605 12.313495
61.610 13.050614
61.615 13.527464
61.620 13.588635
61.625 13.303964
61.630 13.149158
61.635 12.649471
61.640 12.689878
61.645 12.164635
61.650 11.543795
61.655 11.449793
61.660 11.701739
61.665 11.753054
61.670 12.046695
61.675 12.034605
61.680 12.432201
61.685 13.163939
61.690 13.670377
61.695 13.481084
61.700 13.631573
61.705 13.552857
61.710 13.360196
61.715 13.248346
61.720 13.113244
61.725 13.078757
61.730 13.265048
61.735 13.1895
61.740 12.924359
61.745 13.152197
61.750 12.661101
61.755 12.298413
61.760 12.544767
61.765 12.160284
61.770 12.180927
61.775 12.245108
61.780 12.149471
61.785 12.355874
61.790 12.374488
61.795 12.016206
61.800 12.145559
61.805 12.514464
61.810 13.01957
61.815 13.755477
61.820 14.200381
61.825 14.582203
61.830 14.417703
61.835 14.44129
61.840 14.419608
61.845 14.156823
61.850 13.316191
61.855 12.658117
61.860 11.986717
61.865 12.113652
61.870 12.539003
61.875 12.178401
61.880 12.403394
61.885 12.707001
61.890 12.991899
61.895 13.365825
61.900 13.687802
61.905 13.42518
61.910 13.95931
61.915 13.618859
61.920 13.149753
61.925 12.732806
61.930 12.942931
61.935 12.769256
61.940 12.019098
61.945 11.642796
61.950 11.730227
61.955 12.265492
61.960 12.262491
61.965 11.349427
61.970 11.255708
61.975 11.956021
61.980 11.833182
61.985 11.914532
61.990 11.90885
61.995 12.49571
62.000 13.21715
62.005 13.061189
62.010 12.805739
62.015 12.772447
62.020 12.714477
62.025 12.414174
62.030 11.806327
62.035 11.357285
62.040 11.397993
62.045 11.45337
62.050 11.057755
62.055 10.724495
62.060 10.773421
62.065 10.762703
62.070 11.161521
62.075 11.461902
62.080 11.429633
62.085 12.07386
62.090 12.513197
62.095 12.798034
62.100 13.291292
62.105 13.008078
62.110 13.059246
62.115 13.112767
62.120 13.014772
62.125 12.89154
62.130 12.748054
62.135 12.173252
62.140 11.895967
62.145 11.7079
62.150 11.951264
62.155 12.453612
62.160 12.711135
62.165 12.961181
62.170 13.671787
62.175 14.348582
62.180 14.539913
62.185 14.384523
62.190 13.753923
62.195 13.66286
62.200 13.733485
62.205 13.493446
62.210 13.524191
62.215 13.34174
62.220 13.305322
62.225 13.278228
62.230 13.138656
62.235 12.688192
62.240 12.255875
62.245 12.239104
62.250 12.409981
62.255 12.496655
62.260 12.076945
62.265 11.84932
62.270 12.022273
62.275 12.329103
62.280 12.232815
62.285 12.141278
62.290 11.882621
62.295 12.547234
62.300 12.896925
62.305 12.97533
62.310 12.770339
62.315 12.650115
62.320 12.29189
62.325 12.13198
62.330 11.797025
62.335 11.518571
62.340 11.375981
62.345 11.273268
62.350 11.224084
62.355 12.062356
62.360 12.537177
62.365 12.210402
62.370 12.534764
62.375 13.119955
62.380 13.374577
62.385 13.648752
62.390 13.369745
62.395 13.593525
62.400 14.056087
62.405 13.842672
62.410 13.209785
62.415 13.392065
62.420 12.912165
62.425 12.8682
62.430 12.528015
62.435 12.747561
62.440 12.822145
62.445 12.741631
62.450 12.32946
62.455 12.944837
62.460 12.91316
62.465 13.151739
62.470 13.172631
62.475 13.251749
62.480 13.669205
62.485 14.160194
62.490 14.069633
62.495 14.201419
62.500 14.192494
62.505 14.062878
62.510 14.15313
62.515 13.691256
62.520 12.693073
62.525 12.089041
62.530 12.040215
62.535 11.927775
62.540 11.859595
62.545 12.04273
62.550 12.271815
62.555 13.40105
62.560 13.762125
62.565 13.60995
62.570 13.585569
62.575 13.681699
62.580 13.600912
62.585 13.584232
62.590 13.600163
62.595 13.477252
62.600 13.308198
62.605 13.135794
62.610 13.177125
62.615 12.988614
62.620 13.566529
62.625 13.079108
62.630 12.71108
62.635 12.893324
62.640 12.675377
62.645 12.408338
62.650 12.182345
62.655 11.95465
62.660 12.26813
62.665 12.426596
62.670 12.593808
62.675 12.922385
62.680 12.848837
62.685 12.73777
62.690 12.941751
62.695 13.275851
62.700 13.437443
62.705 13.415502
62.710 13.82724
62.715 14.40041
62.720 14.912273
62.725 14.88783
62.730 15.139562
62.735 15.512644
62.740 15.24073
62.745 14.808095
62.750 14.906173
62.755 14.523511
62.760 14.004707
62.765 13.938375
62.770 13.435333
62.775 13.646597
62.780 14.007182
62.785 13.940102
62.790 14.285292
62.795 14.899696
62.800 14.805766
62.805 15.37612
62.810 15.19878
62.815 14.772859
62.820 14.607455
62.825 14.303354
62.830 13.770806
62.835 13.071089
62.840 13.096729
62.845 13.593293
62.850 14.124833
62.855 14.366867
62.860 14.225107
62.865 13.776535
62.870 14.505383
62.875 14.589478
62.880 13.88039
62.885 13.233605
62.890 13.056372
62.895 13.28851
62.900 13.765525
62.905 13.365683
62.910 12.47158
62.915 12.804972
62.920 13.205
62.925 13.695502
62.930 13.875713
62.935 13.43926
62.940 13.605656
62.945 14.002756
62.950 14.175306
62.955 13.628316
62.960 13.08794
62.965 13.11349
62.970 13.798033
62.975 13.532227
62.980 13.549031
62.985 13.313089
62.990 14.246574
62.995 14.149304
63.000 13.876045
63.005 13.67333
63.010 13.832856
63.015 13.891124
63.020 13.657682
63.025 13.128201
63.030 13.023034
63.035 12.726133
63.040 12.480361
63.045 12.696209
63.050 12.565565
63.055 12.354195
63.060 12.469931
63.065 12.876431
63.070 13.141853
63.075 13.409553
63.080 13.617821
63.085 13.766191
63.090 13.849095
63.095 13.526566
63.100 13.135495
63.105 12.563406
63.110 11.866542
63.115 11.416624
63.120 11.444176
63.125 11.281106
63.130 11.924001
63.135 12.039201
63.140 12.360147
63.145 12.767188
63.150 12.637972
63.155 12.427923
63.160 12.559484
63.165 12.073524
63.170 12.208757
63.175 12.820372
63.180 13.0598
63.185 13.237809
63.190 13.229381
63.195 13.171637
63.200 13.192716
63.205 13.244061
63.210 13.502965
63.215 13.350393
63.220 13.469793
63.225 13.56872
63.230 13.611706
63.235 13.734979
63.240 13.526984
63.245 12.81481
63.250 13.32758
63.255 13.025099
63.260 13.051892
63.265 13.051645
63.270 12.794469
63.275 12.705239
63.280 12.513577
63.285 12.486892
63.290 12.967894
63.295 12.871618
63.300 12.90961
63.305 12.986815
63.310 13.238936
63.315 13.116267
63.320 12.237149
63.325 11.693136
63.330 11.85143
63.335 11.776134
63.340 11.882342
63.345 12.004909
63.350 12.344992
63.355 13.21185
63.360 13.408439
63.365 13.361
63.370 13.652772
63.375 14.03061
63.380 14.269179
63.385 14.087064
63.390 13.794173
63.395 13.875017
63.400 13.852133
63.405 13.740006
63.410 13.321198
63.415 12.87379
63.420 13.13904
63.425 13.127139
63.430 13.019182
63.435 13.047488
63.440 12.609456
63.445 12.557944
63.450 13.085352
63.455 13.100989
63.460 12.920158
63.465 12.690626
63.470 12.991692
63.475 13.49218
63.480 13.631977
63.485 13.181118
63.490 13.570374
63.495 13.918765
63.500 14.487912
63.505 14.403121
63.510 14.015296
63.515 14.685059
63.520 14.529411
63.525 14.081071
63.530 13.723524
63.535 13.489002
63.540 13.495268
63.545 13.211168
63.550 12.48247
63.555 12.260592
63.560 12.331341
63.565 13.528074
63.570 13.60651
63.575 13.963995
63.580 14.658289
63.585 15.227093
63.590 15.961423
63.595 16.02846
63.600 15.030093
63.605 14.599092
63.610 14.116668
63.615 13.67401
63.620 13.464974
63.625 13.281334
63.630 13.422419
63.635 13.769687
63.640 14.232928
63.645 14.69002
63.650 15.138402
63.655 14.861902
63.660 14.484939
63.665 14.668035
63.670 14.639832
63.675 14.669901
63.680 14.449759
63.685 14.672206
63.690 14.903193
63.695 15.088508
63.700 14.87909
63.705 14.773315
63.710 14.524329
63.715 14.597486
63.720 14.274373
63.725 14.33915
63.730 13.973563
63.735 13.706882
63.740 13.716879
63.745 13.778954
63.750 13.50374
63.755 13.501493
63.760 13.45809
63.765 13.683663
63.770 14.041088
63.775 14.164388
63.780 13.899567
63.785 14.276335
63.790 14.905151
63.795 14.960104
63.800 15.474928
63.805 15.82132
63.810 16.11965
63.815 16.302078
63.820 15.775122
63.825 14.956257
63.830 15.246871
63.835 14.723903
63.840 14.063627
63.845 14.490108
63.850 14.862665
63.855 15.172788
63.860 15.958834
63.865 16.003244
63.870 15.886899
63.875 15.891563
63.880 15.494068
63.885 15.657785
63.890 15.844981
63.895 15.491677
63.900 15.359509
63.905 15.964134
63.910 16.753942
63.915 16.930723
63.920 16.968182
63.925 16.784073
63.930 16.939669
63.935 16.863207
63.940 16.413027
63.945 15.807171
63.950 15.797048
63.955 15.50703
63.960 15.047526
63.965 15.084112
63.970 15.484364
63.975 16.419601
63.980 17.291481
63.985 17.867743
63.990 18.118233
63.995 19.182964
64.000 19.529509
64.005 19.701756
64.010 19.728476
64.015 19.972078
64.020 20.427319
64.025 21.017303
64.030 21.135521
64.035 21.429869
64.040 21.41807
64.045 22.307085
64.050 22.393639
64.055 21.764122
64.060 21.433218
64.065 21.466003
64.070 22.316809
64.075 22.61791
64.080 21.795378
64.085 21.389265
64.090 21.691645
64.095 21.843273
64.100 21.764746
64.105 20.991304
64.110 21.130362
64.115 21.412502
64.120 22.145552
64.125 22.940243
64.130 23.514215
64.135 23.889154
64.140 24.302906
64.145 24.123064
64.150 24.203789
64.155 24.344023
64.160 23.887232
64.165 23.311842
64.170 22.818918
64.175 22.262506
64.180 22.114441
64.185 21.806177
64.190 20.933918
64.195 21.523426
64.200 21.671371
64.205 21.787785
64.210 22.610601
64.215 23.260759
64.220 23.404432
64.225 23.874588
64.230 23.507006
64.235 23.535751
64.240 23.448582
64.245 22.868826
64.250 21.966166
64.255 21.631001
64.260 20.995798
64.265 20.375116
64.270 19.933674
64.275 19.803774
64.280 19.855753
64.285 20.401932
64.290 20.098637
64.295 20.289446
64.300 20.829216
64.305 21.292294
64.310 21.460783
64.315 21.284321
64.320 20.655661
64.325 20.732576
64.330 20.86977
64.335 20.727837
64.340 21.098785
64.345 21.321308
64.350 21.598795
64.355 21.759705
64.360 22.071318
64.365 21.597893
64.370 21.091328
64.375 20.49712
64.380 20.318377
64.385 19.996136
64.390 20.092766
64.395 19.815701
64.400 19.794468
64.405 19.758018
64.410 19.708158
64.415 19.622606
64.420 19.365978
64.425 19.346519
64.430 19.291739
64.435 19.480261
64.440 19.872868
64.445 19.346226
64.450 18.947111
64.455 19.105711
64.460 18.763363
64.465 18.722183
64.470 18.683083
64.475 18.246712
64.480 18.488661
64.485 18.550026
64.490 18.211361
64.495 17.950365
64.500 18.119175
64.505 17.922482
64.510 17.497705
64.515 17.151598
64.520 17.259146
64.525 17.628618
64.530 18.063702
64.535 17.651516
64.540 17.902683
64.545 18.56422
64.550 18.367119
64.555 18.150274
64.560 17.819372
64.565 17.88286
64.570 17.907558
64.575 17.343946
64.580 16.671656
64.585 16.948301
64.590 17.049179
64.595 17.313931
64.600 16.684803
64.605 16.426731
64.610 16.546406
64.615 16.704525
64.620 16.810492
64.625 16.988014
64.630 16.764664
64.635 17.111605
64.640 17.189285
64.645 18.136431
64.650 17.872173
64.655 17.32225
64.660 17.006008
64.665 16.90423
64.670 16.821281
64.675 16.394491
64.680 16.169382
64.685 16.752827
64.690 17.327162
64.695 17.106672
64.700 16.441771
64.705 15.942561
64.710 16.388569
64.715 15.763974
64.720 15.928663
64.725 15.86754
64.730 16.180557
64.735 16.831518
64.740 17.600517
64.745 16.876009
64.750 16.837605
64.755 16.363272
64.760 15.968207
64.765 15.875723
64.770 15.99929
64.775 15.550829
64.780 15.855284
64.785 15.581754
64.790 15.667129
64.795 15.851448
64.800 16.049074
64.805 15.988895
64.810 16.031961
64.815 16.22436
64.820 16.304567
64.825 16.865925
64.830 16.735935
64.835 16.43745
64.840 16.56283
64.845 16.994646
64.850 16.813053
64.855 16.807583
64.860 16.468523
64.865 16.952646
64.870 17.588865
64.875 17.981789
64.880 17.958055
64.885 18.110765
64.890 17.959805
64.895 17.926994
64.900 17.927389
64.905 17.599253
64.910 16.991291
64.915 16.581781
64.920 16.666132
64.925 17.294262
64.930 17.109812
64.935 16.951893
64.940 17.329304
64.945 17.780416
64.950 18.464991
64.955 19.208317
64.960 19.158642
64.965 19.616529
64.970 19.8223
64.975 19.585695
64.980 19.496918
64.985 19.919977
64.990 20.262735
64.995 21.011126
65.000 21.188332
65.005 21.217283
65.010 21.644743
65.015 21.73036
65.020 21.750534
65.025 21.511683
65.030 21.295496
65.035 21.519678
65.040 21.052013
65.045 20.708353
65.050 21.055658
65.055 20.792625
65.060 21.005325
65.065 20.862976
65.070 20.812216
65.075 20.945156
65.080 21.204512
65.085 21.153669
65.090 20.82583
65.095 20.579294
65.100 20.783895
65.105 21.624718
65.110 22.249084
65.115 22.383389
65.120 22.572765
65.125 22.856888
65.130 22.64123
65.135 22.225288
65.140 21.58057
65.145 21.240423
65.150 20.747414
65.155 20.619156
65.160 20.417303
65.165 20.526184
65.170 20.509201
65.175 20.099312
65.180 19.478956
65.185 19.681993
65.190 19.443119
65.195 19.555214
65.200 19.682598
65.205 18.972292
65.210 19.05378
65.215 19.117903
65.220 18.651772
65.225 18.642679
65.230 18.081963
65.235 17.508562
65.240 18.320107
65.245 18.78978
65.250 18.829386
65.255 19.010885
65.260 18.568344
65.265 18.395313
65.270 19.399073
65.275 19.308723
65.280 18.995516
65.285 18.610041
65.290 18.758471
65.295 18.880257
65.300 19.127302
65.305 17.642429
65.310 17.564396
65.315 17.510427
65.320 18.197578
65.325 18.618446
65.330 18.866556
65.335 18.792536
65.340 18.954603
65.345 18.483385
65.350 18.569885
65.355 17.929386
65.360 17.363857
65.365 16.780903
65.370 16.151415
65.375 15.910528
65.380 15.835647
65.385 15.958354
65.390 16.586994
65.395 16.515287
65.400 16.573189
65.405 16.921053
65.410 17.246849
65.415 17.327528
65.420 17.232306
65.425 16.44475
65.430 16.682665
65.435 16.732948
65.440 16.79841
65.445 17.09631
65.450 17.450462
65.455 18.016792
65.460 18.216396
65.465 18.201567
65.470 18.157524
65.475 17.971519
65.480 17.767389
65.485 17.559347
65.490 17.200279
65.495 17.402628
65.500 18.04011
65.505 18.330873
65.510 18.833908
65.515 19.111547
65.520 18.872515
65.525 18.709644
65.530 19.042297
65.535 18.975861
65.540 19.173662
65.545 19.455381
65.550 19.761446
65.555 19.873014
65.560 20.016745
65.565 19.662346
65.570 19.510006
65.575 19.554531
65.580 20.169619
65.585 19.959341
65.590 20.008909
65.595 20.359436
65.600 20.450689
65.605 20.564634
65.610 20.989304
65.615 20.989649
65.620 21.577538
65.625 21.670994
65.630 21.47118
65.635 21.722767
65.640 21.760082
65.645 22.213158
65.650 22.162224
65.655 21.872112
65.660 22.152021
65.665 22.681019
65.670 22.717606
65.675 23.021505
65.680 22.015636
65.685 21.716343
65.690 22.086079
65.695 22.901354
65.700 22.836811
65.705 22.730288
65.710 22.668058
65.715 22.974691
65.720 23.073509
65.725 22.844151
65.730 21.512573
65.735 21.565765
65.740 21.737518
65.745 22.011583
65.750 22.315306
65.755 22.874817
65.760 22.978264
65.765 23.410229
65.770 23.62055
65.775 23.586123
65.780 23.069012
65.785 23.446844
65.790 23.824095
65.795 23.751514
65.800 24.050255
65.805 24.260563
65.810 24.134834
65.815 24.128439
65.820 23.831259
65.825 23.506529
65.830 23.608511
65.835 23.020016
65.840 22.873909
65.845 23.147575
65.850 23.320827
65.855 22.878344
65.860 23.403997
65.865 23.875498
65.870 24.412619
65.875 24.582804
65.880 25.11648
65.885 25.12767
65.890 25.46464
65.895 25.025978
65.900 24.701582
65.905 23.86404
65.910 23.324762
65.915 22.783356
65.920 22.394327
65.925 21.189238
65.930 20.66404
65.935 20.223515
65.940 21.005518
65.945 21.596075
65.950 22.260702
65.955 22.745441
65.960 22.809135
65.965 22.578548
65.970 23.031816
65.975 22.637093
65.980 22.056944
65.985 21.64501
65.990 21.535858
65.995 22.133867
66.000 22.580448
66.005 22.61166
66.010 22.665447
66.015 23.227768
66.020 22.954929
66.025 22.975552
66.030 23.482935
66.035 23.219078
66.040 23.56399
66.045 23.786955
66.050 23.546337
66.055 23.508183
66.060 23.249619
66.065 22.379675
66.070 22.549215
66.075 22.400629
66.080 21.893793
66.085 21.638165
66.090 21.510252
66.095 21.56987
66.100 22.199766
66.105 22.124203
66.110 21.964914
66.115 21.731216
66.120 21.746693
66.125 21.781847
66.130 21.852865
66.135 21.723679
66.140 21.940248
66.145 21.694736
66.150 21.936239
66.155 21.8442
66.160 21.843145
66.165 21.941032
66.170 22.109015
66.175 21.642536
66.180 21.280985
66.185 21.176159
66.190 20.350227
66.195 19.614395
66.200 18.266357
66.205 17.426098
66.210 17.185986
66.215 17.31941
66.220 17.076143
66.225 16.844948
66.230 17.065916
66.235 17.490376
66.240 17.037092
66.245 16.946806
66.250 16.981075
66.255 17.585587
66.260 18.060947
66.265 18.108513
66.270 18.128881
66.275 17.992304
66.280 18.0937
66.285 17.776182
66.290 17.54373
66.295 17.884129
66.300 18.216608
66.305 18.073116
66.310 18.179976
66.315 17.389317
66.320 17.160221
66.325 16.843466
66.330 16.439867
66.335 15.943385
66.340 16.231024
66.345 16.429577
66.350 17.171141
66.355 17.116871
66.360 16.989223
66.365 16.822964
66.370 16.936975
66.375 17.577915
66.380 17.505867
66.385 17.448141
66.390 17.392881
66.395 17.572512
66.400 17.976803
66.405 17.822876
66.410 17.201323
66.415 17.086807
66.420 16.594191
66.425 16.934704
66.430 16.738451
66.435 16.608679
66.440 16.419115
66.445 16.464619
66.450 16.373919
66.455 16.62014
66.460 16.073606
66.465 16.03298
66.470 16.123407
66.475 16.252338
66.480 16.182526
66.485 16.241228
66.490 16.016878
66.495 15.477649
66.500 15.134887
66.505 14.480543
66.510 14.377278
66.515 14.04481
66.520 13.743013
66.525 14.307161
66.530 14.927174
66.535 15.476978
66.540 15.606615
66.545 15.412538
66.550 15.016646
66.555 14.920769
66.560 14.91628
66.565 14.755373
66.570 14.239971
66.575 14.585586
66.580 14.870486
66.585 15.513473
66.590 15.968898
66.595 15.410748
66.600 15.054089
66.605 14.878078
66.610 15.038928
66.615 14.809044
66.620 14.771074
66.625 14.556795
66.630 14.828279
66.635 15.160805
66.640 15.253291
66.645 14.826945
66.650 14.997348
66.655 14.897989
66.660 14.665159
66.665 14.524264
66.670 14.261131
66.675 14.261376
66.680 14.379713
66.685 13.915051
66.690 13.742498
66.695 13.872952
66.700 14.048563
66.705 14.244433
66.710 14.283136
66.715 13.963043
66.720 13.976551
66.725 13.59514
66.730 13.152336
66.735 13.165978
66.740 12.837916
66.745 12.914047
66.750 13.349919
66.755 13.882163
66.760 14.697408
66.765 15.040449
66.770 14.88366
66.775 15.108665
66.780 15.198895
66.785 15.112136
66.790 14.879653
66.795 14.200366
66.800 13.940726
66.805 13.973137
66.810 13.45891
66.815 13.119769
66.820 13.030089
66.825 12.752964
66.830 12.68415
66.835 12.843736
66.840 13.020482
66.845 13.318043
66.850 13.080671
66.855 13.159948
66.860 13.569214
66.865 13.423882
66.870 13.209188
66.875 13.452727
66.880 13.402519
66.885 13.51654
66.890 13.239665
66.895 12.936321
66.900 13.503758
66.905 13.842134
66.910 13.730738
66.915 14.06045
66.920 14.380329
66.925 14.564874
66.930 14.908167
66.935 14.777853
66.940 14.678882
66.945 14.679213
66.950 14.257463
66.955 13.889484
66.960 13.402972
66.965 13.113234
66.970 13.260211
66.975 13.233012
66.980 13.402356
66.985 13.929036
66.990 13.991504
66.995 14.373978
67.000 14.621228
67.005 14.322682
67.010 13.859344
67.015 13.560944
67.020 13.081744
67.025 13.385247
67.030 12.887571
67.035 12.235522
67.040 11.934549
67.045 11.890219
67.050 12.234247
67.055 12.600044
67.060 12.336656
67.065 12.640582
67.070 12.629756
67.075 13.018109
67.080 13.121937
67.085 12.701216
67.090 12.832379
67.095 13.176825
67.100 12.959512
67.105 13.104644
67.110 13.100923
67.115 13.384727
67.120 13.439493
67.125 13.425687
67.130 13.432457
67.135 13.754202
67.140 14.157501
67.145 14.409245
67.150 14.905526
67.155 15.317601
67.160 15.33062
67.165 15.129508
67.170 14.852947
67.175 15.10466
67.180 15.340902
67.185 15.362226
67.190 15.675419
67.195 15.828273
67.200 15.960429
67.205 16.102591
67.210 16.204239
67.215 16.33901
67.220 15.704333
67.225 15.066195
67.230 15.183985
67.235 15.535437
67.240 15.263173
67.245 14.822958
67.250 14.234235
67.255 14.104588
67.260 13.96822
67.265 13.984685
67.270 13.844817
67.275 14.246259
67.280 13.613416
67.285 13.506991
67.290 13.426554
67.295 13.534328
67.300 13.510847
67.305 13.036852
67.310 12.546861
67.315 12.952522
67.320 13.204005
67.325 13.377177
67.330 13.67573
67.335 13.338881
67.340 13.674542
67.345 14.015604
67.350 14.383967
67.355 14.346305
67.360 14.418929
67.365 13.989586
67.370 14.21452
67.375 14.351359
67.380 13.927693
67.385 14.086508
67.390 14.21496
67.395 14.13532
67.400 14.511851
67.405 14.413244
67.410 14.320005
67.415 14.432199
67.420 13.689055
67.425 13.757019
67.430 13.67659
67.435 13.136332
67.440 13.027286
67.445 13.028492
67.450 12.636443
67.455 12.946763
67.460 12.45159
67.465 12.659791
67.470 12.890063
67.475 12.705193
67.480 12.755867
67.485 12.904845
67.490 13.329882
67.495 13.668525
67.500 13.775545
67.505 13.775702
67.510 14.072751
67.515 14.227603
67.520 14.740503
67.525 14.67482
67.530 14.012503
67.535 13.844052
67.540 13.912787
67.545 13.798182
67.550 13.317698
67.555 12.660581
67.560 12.711551
67.565 13.162742
67.570 13.375255
67.575 13.399672
67.580 13.357347
67.585 13.604954
67.590 13.629439
67.595 13.543296
67.600 13.495925
67.605 13.470044
67.610 13.317945
67.615 13.265964
67.620 13.613605
67.625 13.843539
67.630 13.953815
67.635 14.267602
67.640 14.137818
67.645 14.214095
67.650 14.19757
67.655 13.984176
67.660 14.579124
67.665 14.405022
67.670 13.892987
67.675 14.330833
67.680 14.763624
67.685 14.695252
67.690 13.96234
67.695 13.488514
67.700 13.430887
67.705 13.957594
67.710 14.183835
67.715 14.003898
67.720 14.570056
67.725 15.390887
67.730 15.699563
67.735 16.074741
67.740 15.32573
67.745 14.929836
67.750 15.184515
67.755 15.097065
67.760 14.851657
67.765 14.085182
67.770 14.012687
67.775 13.802576
67.780 14.016451
67.785 14.109928
67.790 14.245991
67.795 14.023229
67.800 15.016086
67.805 15.32482
67.810 15.381511
67.815 15.452741
67.820 15.503412
67.825 15.123429
67.830 15.526908
67.835 14.982912
67.840 14.630774
67.845 14.937026
67.850 14.215668
67.855 13.993414
67.860 14.515797
67.865 14.371475
67.870 13.720953
67.875 13.967338
67.880 14.228038
67.885 14.590896
67.890 14.867865
67.895 14.771525
67.900 15.013306
67.905 15.644944
67.910 15.530711
67.915 15.65874
67.920 15.58929
67.925 15.163763
67.930 15.233974
67.935 15.012761
67.940 14.721049
67.945 14.786594
67.950 14.434571
67.955 14.627185
67.960 14.994928
67.965 14.569429
67.970 15.015568
67.975 15.848879
67.980 15.948113
67.985 15.719671
67.990 15.959267
67.995 16.614649
68.000 16.878416
68.005 16.661245
68.010 16.432201
68.015 16.142921
68.020 16.234379
68.025 15.490509
68.030 14.861574
68.035 14.467811
68.040 13.823254
68.045 13.499931
68.050 13.752152
68.055 14.079609
68.060 14.35096
68.065 14.293414
68.070 14.184749
68.075 14.139472
68.080 13.913765
68.085 14.00823
68.090 13.546129
68.095 13.509797
68.100 13.504786
68.105 14.339813
68.110 14.372117
68.115 14.276778
68.120 13.895472
68.125 13.857813
68.130 14.068812
68.135 14.119515
68.140 13.6723
68.145 13.944917
68.150 14.296922
68.155 14.543118
68.160 14.290702
68.165 14.063499
68.170 13.750255
68.175 13.45782
68.180 13.302421
68.185 12.949692
68.190 13.278955
68.195 13.342344
68.200 13.328866
68.205 13.698072
68.210 13.600001
68.215 14.474746
68.220 14.865558
68.225 15.015286
68.230 15.101957
68.235 15.213573
68.240 15.384345
68.245 15.823716
68.250 15.370793
68.255 15.223778
68.260 15.344729
68.265 15.351054
68.270 15.276329
68.275 15.130351
68.280 15.169425
68.285 14.682751
68.290 14.511423
68.295 13.963793
68.300 14.222522
68.305 14.117712
68.310 14.515754
68.315 14.640596
68.320 14.990336
68.325 15.278302
68.330 15.527607
68.335 15.294745
68.340 15.411417
68.345 15.149329
68.350 14.948787
68.355 14.585192
68.360 14.922523
68.365 14.888575
68.370 15.353566
68.375 15.604391
68.380 15.407825
68.385 15.441613
68.390 15.29846
68.395 14.687496
68.400 14.941624
68.405 14.716701
68.410 14.869867
68.415 15.5186
68.420 15.876631
68.425 16.254045
68.430 16.564987
68.435 16.256609
68.440 16.068022
68.445 15.824969
68.450 14.715852
68.455 14.83631
68.460 15.109831
68.465 15.005809
68.470 14.70552
68.475 14.579611
68.480 14.497075
68.485 15.384655
68.490 15.085751
68.495 14.22126
68.500 14.014497
68.505 14.335506
68.510 15.203379
68.515 15.410878
68.520 15.194076
68.525 15.644713
68.530 16.276764
68.535 16.400776
68.540 16.368912
68.545 15.874464
68.550 15.520643
68.555 15.605915
68.560 15.957529
68.565 15.820322
68.570 15.878457
68.575 15.810224
68.580 15.919724
68.585 16.37228
68.590 16.415699
68.595 16.146942
68.600 16.320204
68.605 16.445379
68.610 16.942726
68.615 16.905462
68.620 16.566927
68.625 16.602806
68.630 16.361391
68.635 15.738019
68.640 15.528852
68.645 14.730649
68.650 14.811956
68.655 15.497975
68.660 15.514677
68.665 15.514874
68.670 16.127424
68.675 16.547758
68.680 16.834408
68.685 16.690744
68.690 16.26573
68.695 16.4471
68.700 16.520866
68.705 16.560394
68.710 16.639856
68.715 16.567211
68.720 16.548151
68.725 16.448738
68.730 16.486469
68.735 16.453402
68.740 16.163876
68.745 16.0418
68.750 16.240654
68.755 16.17695
68.760 16.620211
68.765 17.120296
68.770 17.587753
68.775 17.589819
68.780 17.659197
68.785 18.24431
68.790 18.548845
68.795 18.017105
68.800 17.584248
68.805 17.460732
68.810 18.346285
68.815 19.022894
68.820 18.874626
68.825 18.942144
68.830 19.320774
68.835 19.959417
68.840 20.030245
68.845 19.333887
68.850 18.659813
68.855 19.102894
68.860 19.324202
68.865 19.338638
68.870 19.302729
68.875 19.351017
68.880 19.80224
68.885 19.846243
68.890 19.939514
68.895 20.347622
68.900 20.814898
68.905 20.928843
68.910 21.129889
68.915 21.232452
68.920 21.574329
68.925 21.264738
68.930 21.389511
68.935 21.708759
68.940 22.273577
68.945 22.571222
68.950 22.606771
68.955 22.763311
68.960 23.145056
68.965 23.221302
68.970 22.891697
68.975 22.21386
68.980 22.288378
68.985 22.339039
68.990 22.380781
68.995 22.388149
69.000 22.122099
69.005 22.58087
69.010 23.014643
69.015 22.846939
69.020 22.945896
69.025 22.307444
69.030 21.973621
69.035 21.933931
69.040 21.024136
69.045 20.124435
69.050 20.542368
69.055 20.963709
69.060 20.99457
69.065 21.007526
69.070 21.765968
69.075 22.977036
69.080 23.76965
69.085 22.940672
69.090 23.223396
69.095 23.513893
69.100 23.591492
69.105 23.843803
69.110 23.99053
69.115 24.298891
69.120 24.383369
69.125 24.142366
69.130 24.721352
69.135 24.491198
69.140 23.95822
69.145 23.439777
69.150 23.612286
69.155 23.912134
69.160 23.250238
69.165 23.441
69.170 23.176586
69.175 22.704948
69.180 22.976217
69.185 23.017925
69.190 22.972464
69.195 23.270977
69.200 22.98312
69.205 22.66987
69.210 22.72279
69.215 22.740292
69.220 22.43631
69.225 21.888819
69.230 21.90255
69.235 22.135992
69.240 22.55006
69.245 22.159819
69.250 21.586138
69.255 21.436092
69.260 21.526123
69.265 21.597887
69.270 21.897593
69.275 21.95418
69.280 21.706451
69.285 21.788172
69.290 22.044168
69.295 21.872829
69.300 21.714586
69.305 21.140018
69.310 21.630976
69.315 21.420595
69.320 20.871717
69.325 20.720451
69.330 20.345741
69.335 19.461466
69.340 18.967619
69.345 18.254677
69.350 19.389503
69.355 20.334026
69.360 20.002348
69.365 20.207825
69.370 20.610203
69.375 20.578802
69.380 20.383451
69.385 19.393782
69.390 18.944197
69.395 19.041534
69.400 19.256245
69.405 19.108784
69.410 19.369781
69.415 19.2283
69.420 19.429213
69.425 19.432354
69.430 19.817392
69.435 20.116961
69.440 20.708815
69.445 20.994373
69.450 20.708706
69.455 20.148623
69.460 20.212881
69.465 19.581114
69.470 18.968126
69.475 18.194769
69.480 17.376572
69.485 16.938732
69.490 17.181629
69.495 17.322155
69.500 17.563766
69.505 17.143759
69.510 16.879797
69.515 18.168154
69.520 18.269041
69.525 17.490747
69.530 16.852972
69.535 16.616804
69.540 16.944063
69.545 16.746399
69.550 16.09362
69.555 16.088787
69.560 16.38476
69.565 16.255171
69.570 16.324926
69.575 16.435827
69.580 16.579102
69.585 16.359209
69.590 16.767885
69.595 16.911798
69.600 16.593916
69.605 16.105726
69.610 15.911908
69.615 16.117741
69.620 16.320326
69.625 15.640063
69.630 15.351385
69.635 15.647772
69.640 16.586275
69.645 16.512352
69.650 16.185349
69.655 15.958714
69.660 15.924911
69.665 15.507403
69.670 15.023775
69.675 15.207211
69.680 15.299588
69.685 15.487381
69.690 15.526604
69.695 15.991277
69.700 16.29891
69.705 16.159271
69.710 15.367234
69.715 15.123819
69.720 15.384491
69.725 14.883368
69.730 15.213667
69.735 15.879464
69.740 16.495771
69.745 16.612551
69.750 16.283327
69.755 15.677403
69.760 16.014463
69.765 15.738597
69.770 15.060697
69.775 14.487545
69.780 14.684341
69.785 14.563773
69.790 14.583423
69.795 14.361945
69.800 14.093682
69.805 14.252968
69.810 13.678536
69.815 13.198153
69.820 13.335464
69.825 13.164521
69.830 13.194212
69.835 12.859573
69.840 13.032874
69.845 13.450663
69.850 13.744598
69.855 14.133858
69.860 14.554223
69.865 14.457293
69.870 14.536777
69.875 14.546104
69.880 14.700633
69.885 14.781321
69.890 14.590928
69.895 14.463488
69.900 14.445402
69.905 14.41522
69.910 14.329536
69.915 14.264783
69.920 14.37524
69.925 14.651921
69.930 14.350399
69.935 14.441933
69.940 14.358311
69.945 14.097897
69.950 14.281623
69.955 14.532585
69.960 14.086069
69.965 14.36372
69.970 14.111594
69.975 14.369616
69.980 14.639229
69.985 14.449728
69.990 13.981359
69.995 14.366892
70.000 14.376852
70.005 14.434864
70.010 14.39321
70.015 14.343531
70.020 14.495961
70.025 14.695192
70.030 14.616082
70.035 14.9793
70.040 15.247217
70.045 15.426536
70.050 14.959291
70.055 14.631438
70.060 13.984956
70.065 14.160087
70.070 14.462143
70.075 13.544747
70.080 13.436331
70.085 13.754867
70.090 13.782179
70.095 14.032861
70.100 13.410739
70.105 13.185656
70.110 13.485971
70.115 13.688253
70.120 13.710855
70.125 13.867968
70.130 13.879692
70.135 13.546991
70.140 13.726044
70.145 14.301668
70.150 14.322159
70.155 14.2631
70.160 13.580909
70.165 13.432724
70.170 13.772534
70.175 13.274277
70.180 13.079413
70.185 13.213431
70.190 13.498421
70.195 14.221585
70.200 14.515776
70.205 14.234425
70.210 14.627865
70.215 14.394501
70.220 14.025594
70.225 14.070396
70.230 13.978761
70.235 14.483027
70.240 14.762547
70.245 14.376341
70.250 14.81313
70.255 15.419818
70.260 15.319232
70.265 15.360819
70.270 15.333231
70.275 15.575521
70.280 16.244272
70.285 15.768545
70.290 15.148184
70.295 15.547452
70.300 15.552271
70.305 15.500434
70.310 15.522085
70.315 15.353441
70.320 15.239162
70.325 15.6663
70.330 15.200008
70.335 15.103617
70.340 14.933626
70.345 14.524063
70.350 14.532073
70.355 14.554071
70.360 14.126263
70.365 13.879436
70.370 14.057343
70.375 13.644661
70.380 13.751564
70.385 13.574183
70.390 13.646892
70.395 13.832241
70.400 14.111927
70.405 13.636814
70.410 14.272744
70.415 14.419338
70.420 14.533665
70.425 14.411425
70.430 14.399905
70.435 14.817058
70.440 14.758685
70.445 14.335191
70.450 13.581814
70.455 13.763881
70.460 14.341416
70.465 14.445232
70.470 14.131342
70.475 14.006952
70.480 13.892542
70.485 13.912202
70.490 13.20616
70.495 12.753596
70.500 12.298157
70.505 12.489065
70.510 13.240077
70.515 13.157989
70.520 13.275635
70.525 13.799123
70.530 13.829751
70.535 14.316511
70.540 14.413398
70.545 14.319078
70.550 14.384793
70.555 14.411916
70.560 13.870349
70.565 14.220389
70.570 14.082175
70.575 13.935548
70.580 13.899582
70.585 14.008361
70.590 13.977674
70.595 14.262036
70.600 14.049776
70.605 14.015532
70.610 13.693164
70.615 13.767433
70.620 13.95979
70.625 13.67012
70.630 13.523994
70.635 13.259451
70.640 13.123394
70.645 13.060813
70.650 12.730932
70.655 12.697335
70.660 13.38308
70.665 13.520956
70.670 13.169758
70.675 13.128331
70.680 13.292088
70.685 13.274022
70.690 13.251336
70.695 12.969662
70.700 13.193211
70.705 13.721558
70.710 13.75727
70.715 13.936317
70.720 14.167259
70.725 14.340293
70.730 14.313166
70.735 13.977347
70.740 14.03592
70.745 14.11611
70.750 14.035821
70.755 14.232901
70.760 14.027027
70.765 13.98879
70.770 13.939656
70.775 14.065389
70.780 13.314534
70.785 12.940065
70.790 12.815263
70.795 12.793713
70.800 12.944053
70.805 12.905066
70.810 12.57533
70.815 13.283509
70.820 13.30325
70.825 13.039489
70.830 13.014759
70.835 13.116573
70.840 13.557012
70.845 13.584004
70.850 13.450299
70.855 13.763504
70.860 13.950546
70.865 13.941648
70.870 13.586234
70.875 13.586143
70.880 13.688545
70.885 13.71574
70.890 14.238277
70.895 14.785416
70.900 15.001903
70.905 15.192465
70.910 15.350412
70.915 15.975132
70.920 15.807364
70.925 15.14571
70.930 14.557765
70.935 13.8252
70.940 13.270335
70.945 13.095755
70.950 13.532812
70.955 13.646556
70.960 12.62973
70.965 12.413713
70.970 12.932813
70.975 13.143245
70.980 12.745659
70.985 11.813834
70.990 12.285837
70.995 13.290014
71.000 13.542745
71.005 14.195233
71.010 14.248708
71.015 14.301391
71.020 14.410999
71.025 14.181422
71.030 14.343644
71.035 14.589832
71.040 14.121654
71.045 14.46069
71.050 14.326393
71.055 14.01483
71.060 14.115143
71.065 13.706628
71.070 13.359955
71.075 12.908389
71.080 12.582974
71.085 13.202037
71.090 13.513714
71.095 13.902403
71.100 14.296656
71.105 14.542238
71.110 14.531284
71.115 14.607148
71.120 14.473818
71.125 14.581078
71.130 14.324887
71.135 13.854643
71.140 13.372122
71.145 13.537954
71.150 13.058325
71.155 12.586353
71.160 12.543024
71.165 12.828706
71.170 13.432001
71.175 13.373698
71.180 13.421529
71.185 13.860056
71.190 14.067303
71.195 14.43057
71.200 13.830858
71.205 13.727255
71.210 14.434362
71.215 13.984607
71.220 14.035215
71.225 14.144711
71.230 13.726259
71.235 13.630984
71.240 13.757947
71.245 13.987606
71.250 14.577778
71.255 14.976714
71.260 15.11972
71.265 15.799522
71.270 16.181309
71.275 15.422461
71.280 16.013428
71.285 16.308624
71.290 16.448574
71.295 16.42482
71.300 16.235474
71.305 15.876563
71.310 16.060087
71.315 15.133812
71.320 14.386773
71.325 13.935844
71.330 13.791059
71.335 13.733699
71.340 13.889171
71.345 13.856358
71.350 13.947194
71.355 14.304042
71.360 14.030993
71.365 13.58789
71.370 13.455287
71.375 13.490127
71.380 13.273531
71.385 13.287494
71.390 12.972004
71.395 13.059743
71.400 13.338364
71.405 13.428679
71.410 13.459973
71.415 13.281537
71.420 13.231062
71.425 13.458336
71.430 13.963595
71.435 14.008533
71.440 13.904201
71.445 13.966517
71.450 14.207282
71.455 14.309158
71.460 14.421612
71.465 14.368099
71.470 14.477276
71.475 14.945607
71.480 14.732126
71.485 15.185014
71.490 15.103791
71.495 15.101715
71.500 15.332738
71.505 15.466841
71.510 15.627489
71.515 15.785251
71.520 15.296844
71.525 15.054247
71.530 14.542016
71.535 14.909337
71.540 14.732059
71.545 14.898087
71.550 14.786196
71.555 15.094425
71.560 14.868555
71.565 14.721792
71.570 13.825383
71.575 14.220003
71.580 13.443151
71.585 13.319092
71.590 13.057107
71.595 12.990992
71.600 12.977743
71.605 13.278955
71.610 12.701168
71.615 13.255659
71.620 13.722509
71.625 13.883074
71.630 13.751681
71.635 13.187998
71.640 13.015998
71.645 13.116874
71.650 12.684766
71.655 12.250432
71.660 12.328279
71.665 12.921965
71.670 13.59696
71.675 14.151654
71.680 14.377833
71.685 14.65626
71.690 14.915522
71.695 15.0433
71.700 14.965728
71.705 15.269401
71.710 14.957462
71.715 14.8069
71.720 14.566871
71.725 14.666656
71.730 14.337359
71.735 14.64641
71.740 13.730914
71.745 13.337669
71.750 13.53153
71.755 13.344122
71.760 13.568377
71.765 13.734344
71.770 13.797543
71.775 14.545579
71.780 14.933237
71.785 15.393112
71.790 16.227398
71.795 16.03565
71.800 15.874228
71.805 15.523576
71.810 15.306121
71.815 15.091844
71.820 14.496827
71.825 13.629697
71.830 13.396604
71.835 13.340407
71.840 13.506077
71.845 13.866817
71.850 13.921452
71.855 14.072435
71.860 14.581778
71.865 14.697643
71.870 14.514896
71.875 15.060568
71.880 14.59956
71.885 14.535545
71.890 14.051588
71.895 14.078416
71.900 14.286184
71.905 14.34346
71.910 13.591941
71.915 13.365567
71.920 13.443995
71.925 13.508404
71.930 13.33168
71.935 13.41994
71.940 13.413676
71.945 13.241405
71.950 13.1568
71.955 13.122829
71.960 13.166907
71.965 13.536428
71.970 13.072786
71.975 13.139615
71.980 13.265765
71.985 13.539507
71.990 13.955263
71.995 13.818008
72.000 13.657144
72.005 13.853889
72.010 13.86857
72.015 14.284227
72.020 14.270021
72.025 14.005054
72.030 14.140404
72.035 14.167094
72.040 14.099649
72.045 14.250429
72.050 14.246347
72.055 14.467472
72.060 14.491306
72.065 14.491652
72.070 14.496019
72.075 14.74939
72.080 15.13516
72.085 14.818329
72.090 14.990797
72.095 15.164804
72.100 15.094319
72.105 14.92722
72.110 14.352851
72.115 14.259436
72.120 14.117463
72.125 13.947451
72.130 14.09738
72.135 13.952451
72.140 14.118489
72.145 13.968091
72.150 13.770508
72.155 13.371705
72.160 13.140822
72.165 12.566002
72.170 12.822779
72.175 12.991212
72.180 13.063566
72.185 13.578788
72.190 14.056305
72.195 14.192418
72.200 14.387414
72.205 14.530698
72.210 14.794467
72.215 15.223106
72.220 15.188326
72.225 15.08754
72.230 14.880021
72.235 14.94211
72.240 14.492273
72.245 13.858184
72.250 13.079756
72.255 12.863273
72.260 12.337582
72.265 12.108771
72.270 11.511195
72.275 11.977037
72.280 12.167416
72.285 12.396359
72.290 12.424129
72.295 12.417905
72.300 12.790901
72.305 12.738561
72.310 12.369292
72.315 12.271081
72.320 12.229438
72.325 12.685125
72.330 13.101623
72.335 13.153784
72.340 13.325913
72.345 13.490838
72.350 14.160257
72.355 14.300486
72.360 14.312721
72.365 13.741282
72.370 13.932199
72.375 14.565007
72.380 14.420247
72.385 13.65833
72.390 13.509839
72.395 13.768516
72.400 14.061369
72.405 14.282315
72.410 14.284872
72.415 14.585856
72.420 14.7305
72.425 14.351249
72.430 14.341615
72.435 14.248936
72.440 14.284729
72.445 14.146125
72.450 14.110124
72.455 13.588173
72.460 13.675568
72.465 13.657433
72.470 13.521604
72.475 13.11685
72.480 13.071525
72.485 13.174889
72.490 13.747024
72.495 14.228045
72.500 14.107868
72.505 13.875794
72.510 13.507782
72.515 13.749112
72.520 14.075457
72.525 13.759104
72.530 13.011752
72.535 12.639438
72.540 12.800184
72.545 12.909891
72.550 12.75655
72.555 13.111895
72.560 13.539392
72.565 14.200718
72.570 14.773254
72.575 14.604579
72.580 14.675275
72.585 15.048823
72.590 14.860277
72.595 14.887638
72.600 14.939914
72.605 15.369842
72.610 15.529152
72.615 15.484263
72.620 14.978997
72.625 14.829607
72.630 14.553741
72.635 14.078289
72.640 13.488169
72.645 13.536283
72.650 13.245959
72.655 12.998752
72.660 12.81016
72.665 12.771749
72.670 12.918999
72.675 13.134787
72.680 12.466189
72.685 12.821534
72.690 12.977284
72.695 13.295324
72.700 13.456801
72.705 13.413276
72.710 13.156486
72.715 13.776653
72.720 13.663321
72.725 13.89236
72.730 13.804408
72.735 14.332067
72.740 14.545416
72.745 14.261033
72.750 13.972419
72.755 13.578065
72.760 13.899113
72.765 13.900151
72.770 13.181995
72.775 13.0784
72.780 13.419476
72.785 13.687534
72.790 13.282161
72.795 12.67596
72.800 13.075231
72.805 13.274485
72.810 13.325581
72.815 13.121824
72.820 13.030229
72.825 13.156825
72.830 12.994226
72.835 12.694191
72.840 13.093935
72.845 13.009533
72.850 13.504344
72.855 13.875215
72.860 14.248923
72.865 14.091838
72.870 13.507143
72.875 13.458652
72.880 13.615751
72.885 13.073818
72.890 12.779268
72.895 12.642031
72.900 12.870434
72.905 13.458297
72.910 13.599115
72.915 13.787733
72.920 13.525357
72.925 13.549774
72.930 13.786728
72.935 13.994027
72.940 13.499496
72.945 12.91236
72.950 12.803073
72.955 13.097775
72.960 13.073949
72.965 12.629287
72.970 12.227719
72.975 12.496694
72.980 12.811166
72.985 13.069739
72.990 12.913047
72.995 12.893135
73.000 13.203664
