!@!!GADDS PLOTSO FILE: Chi integration type
!@!!Title/SampleName: map-12f
!@!!Comment: ?
!@!!User: Bruker Instrument Administrator
!@!!Site: University of Illinois Chicago
!@!!Frame: map-12f_01_000.gfrm
!@!!Wavelengths    1.54184   1.54056   1.54439
!@!!Frame angles: 2Theta: 63.000 Omega: 50.000 Phi: 0.000 Chi: 90.000
!@!!Integration range: 2Theta: 53.000 to 73.000  Gamma: -105.000 to -75.000
!@!!Integration method: bin normalized
!@!N
!@!SS
!@!M
!@!L 0.0 0.0 0.0 0.0
!@!XDegrees
!@!YCounts
53.000 4.597772
53.005 4.512458
53.010 4.262365
53.015 4.082246
53.020 3.682866
53.025 3.943277
53.030 3.797649
53.035 3.962073
53.040 4.368736
53.045 4.439809
53.050 4.475899
53.055 4.433425
53.060 4.087533
53.065 3.981388
53.070 3.742459
53.075 3.648456
53.080 3.579398
53.085 3.75598
53.090 3.669055
53.095 3.925663
53.100 4.047195
53.105 4.038833
53.110 4.176953
53.115 4.152086
53.120 4.044906
53.125 3.986923
53.130 4.019373
53.135 4.256374
53.140 4.126136
53.145 4.188577
53.150 4.211591
53.155 4.257114
53.160 4.335884
53.165 4.139867
53.170 3.935991
53.175 3.938316
53.180 3.653898
53.185 3.543015
53.190 3.629489
53.195 3.258838
53.200 3.307143
53.205 3.201517
53.210 3.129208
53.215 3.213813
53.220 3.1645
53.225 3.198931
53.230 3.444198
53.235 3.484907
53.240 3.820161
53.245 4.210349
53.250 4.436843
53.255 4.690924
53.260 4.636381
53.265 4.434772
53.270 4.204291
53.275 4.110085
53.280 4.040995
53.285 3.720158
53.290 3.636312
53.295 4.004023
53.300 4.154889
53.305 4.004599
53.310 3.646528
53.315 3.497778
53.320 3.837074
53.325 3.728444
53.330 3.500173
53.335 3.606818
53.340 3.750998
53.345 3.931956
53.350 3.949329
53.355 3.898902
53.360 3.756329
53.365 3.787347
53.370 3.79399
53.375 3.911048
53.380 3.976609
53.385 3.839495
53.390 3.806992
53.395 3.839234
53.400 3.519686
53.405 3.392799
53.410 3.151577
53.415 2.954875
53.420 2.976443
53.425 2.937895
53.430 3.142816
53.435 3.436865
53.440 3.678783
53.445 3.655339
53.450 3.679759
53.455 3.821654
53.460 3.898581
53.465 3.859412
53.470 3.787129
53.475 3.790877
53.480 3.865632
53.485 3.985139
53.490 3.801606
53.495 4.168522
53.500 4.547287
53.505 4.915581
53.510 4.801645
53.515 4.657088
53.520 4.557767
53.525 4.382525
53.530 4.119884
53.535 3.614933
53.540 3.484352
53.545 4.028661
53.550 4.3997
53.555 4.870857
53.560 4.923555
53.565 4.95101
53.570 5.097065
53.575 5.168067
53.580 5.02032
53.585 5.017549
53.590 5.004742
53.595 5.087839
53.600 5.108131
53.605 5.124667
53.610 5.039996
53.615 4.875085
53.620 4.794402
53.625 4.536417
53.630 4.320901
53.635 4.186775
53.640 3.892994
53.645 3.771709
53.650 3.664373
53.655 3.687783
53.660 3.872171
53.665 3.709733
53.670 3.764421
53.675 3.938532
53.680 4.064101
53.685 4.166876
53.690 4.193186
53.695 4.162326
53.700 4.23753
53.705 4.014019
53.710 3.991563
53.715 4.118011
53.720 4.098093
53.725 4.217193
53.730 4.324852
53.735 4.690493
53.740 4.649589
53.745 4.749475
53.750 4.420643
53.755 4.176191
53.760 3.801988
53.765 3.622959
53.770 3.56168
53.775 3.573689
53.780 3.577054
53.785 3.640688
53.790 3.858296
53.795 3.913059
53.800 3.795279
53.805 3.577736
53.810 3.578053
53.815 3.399795
53.820 3.342811
53.825 3.202119
53.830 3.154804
53.835 3.280437
53.840 3.570116
53.845 3.638708
53.850 3.760509
53.855 3.855963
53.860 4.007915
53.865 4.394856
53.870 4.84818
53.875 4.935051
53.880 4.759046
53.885 4.724115
53.890 4.598671
53.895 4.540435
53.900 4.048103
53.905 3.709187
53.910 3.625699
53.915 3.871475
53.920 4.205976
53.925 4.416971
53.930 4.666427
53.935 4.719778
53.940 4.591746
53.945 4.453947
53.950 4.234448
53.955 3.954996
53.960 3.667091
53.965 3.46605
53.970 3.771026
53.975 4.367333
53.980 4.615905
53.985 4.788293
53.990 4.955776
53.995 4.850356
54.000 4.952591
54.005 4.68484
54.010 4.114266
54.015 4.185721
54.020 4.15029
54.025 4.001972
54.030 4.034513
54.035 3.885256
54.040 3.86603
54.045 4.004986
54.050 3.718367
54.055 3.716208
54.060 3.888485
54.065 3.950421
54.070 4.029253
54.075 3.910648
54.080 4.034547
54.085 4.002964
54.090 3.919689
54.095 3.791405
54.100 3.943539
54.105 4.04598
54.110 3.867071
54.115 3.649042
54.120 3.757597
54.125 3.785301
54.130 3.980844
54.135 3.700642
54.140 3.943334
54.145 4.224714
54.150 4.389303
54.155 4.63902
54.160 4.888576
54.165 5.074247
54.170 5.1306
54.175 5.017792
54.180 5.028342
54.185 4.806183
54.190 4.462027
54.195 4.17946
54.200 3.945316
54.205 3.833498
54.210 4.163835
54.215 4.387384
54.220 4.388575
54.225 4.361102
54.230 4.419413
54.235 4.595557
54.240 4.820627
54.245 4.734661
54.250 4.695709
54.255 4.909273
54.260 5.177469
54.265 5.515647
54.270 5.9513
54.275 5.72018
54.280 5.768853
54.285 5.946257
54.290 5.820903
54.295 5.675424
54.300 5.122256
54.305 4.655009
54.310 4.517735
54.315 4.029084
54.320 3.886253
54.325 4.16561
54.330 3.934199
54.335 4.042929
54.340 4.459711
54.345 4.594459
54.350 4.65626
54.355 4.446081
54.360 4.588241
54.365 4.740063
54.370 5.088231
54.375 4.977084
54.380 4.860943
54.385 5.025623
54.390 4.865103
54.395 4.846102
54.400 4.753435
54.405 4.450023
54.410 4.459337
54.415 4.178466
54.420 4.182004
54.425 4.375381
54.430 4.336078
54.435 4.499101
54.440 4.345539
54.445 4.637037
54.450 4.785227
54.455 4.580761
54.460 4.472232
54.465 4.644791
54.470 4.778298
54.475 4.500579
54.480 4.625046
54.485 4.76539
54.490 4.848347
54.495 4.973512
54.500 4.642546
54.505 4.380067
54.510 4.445823
54.515 4.325837
54.520 4.455905
54.525 4.3099
54.530 4.083738
54.535 4.020247
54.540 3.799118
54.545 4.019064
54.550 3.904355
54.555 3.81785
54.560 4.027228
54.565 3.969025
54.570 4.103198
54.575 4.242865
54.580 3.994768
54.585 4.08045
54.590 4.192636
54.595 4.290299
54.600 4.760518
54.605 4.775484
54.610 4.969787
54.615 5.094438
54.620 4.871269
54.625 4.798239
54.630 4.610062
54.635 4.586792
54.640 4.775498
54.645 4.683092
54.650 4.57577
54.655 4.520779
54.660 4.399022
54.665 3.946755
54.670 3.588702
54.675 3.127633
54.680 3.378629
54.685 3.489576
54.690 3.626572
54.695 3.806196
54.700 4.116374
54.705 4.491335
54.710 4.975314
54.715 5.045363
54.720 5.083606
54.725 4.879766
54.730 4.743874
54.735 4.884467
54.740 4.692509
54.745 4.394653
54.750 4.329855
54.755 4.502762
54.760 4.816169
54.765 4.734735
54.770 4.412242
54.775 4.496782
54.780 4.426196
54.785 4.230889
54.790 3.933953
54.795 3.971309
54.800 3.901927
54.805 3.945766
54.810 3.615449
54.815 3.471644
54.820 3.757626
54.825 3.986029
54.830 4.176115
54.835 4.253462
54.840 4.360523
54.845 4.583246
54.850 4.67609
54.855 4.375098
54.860 4.482514
54.865 4.279177
54.870 4.527166
54.875 5.033487
54.880 4.838373
54.885 5.096408
54.890 5.015856
54.895 4.688869
54.900 4.663626
54.905 4.282871
54.910 4.135034
54.915 3.928978
54.920 3.754545
54.925 3.851379
54.930 3.905416
54.935 4.038232
54.940 3.965796
54.945 3.906947
54.950 4.278211
54.955 4.264369
54.960 4.08503
54.965 4.190593
54.970 4.25936
54.975 4.332114
54.980 4.332899
54.985 4.527
54.990 4.673788
54.995 4.86625
55.000 4.822316
55.005 4.898332
55.010 4.99512
55.015 5.026089
55.020 4.689279
55.025 4.752239
55.030 4.769684
55.035 4.570699
55.040 4.541007
55.045 4.602043
55.050 4.719768
55.055 4.852409
55.060 4.685123
55.065 4.656625
55.070 4.450756
55.075 4.190378
55.080 3.686143
55.085 3.329935
55.090 3.349938
55.095 3.307427
55.100 3.327538
55.105 3.715606
55.110 4.254855
55.115 4.581923
55.120 4.737505
55.125 4.768493
55.130 5.070729
55.135 5.429033
55.140 5.14116
55.145 4.766612
55.150 4.822531
55.155 4.933887
55.160 4.718841
55.165 4.334966
55.170 4.483441
55.175 4.875921
55.180 4.935941
55.185 4.974091
55.190 5.085464
55.195 4.937315
55.200 4.756557
55.205 4.241938
55.210 3.985519
55.215 3.952126
55.220 3.968626
55.225 4.099928
55.230 4.391932
55.235 4.566194
55.240 4.85652
55.245 5.028011
55.250 5.01202
55.255 4.734478
55.260 4.792432
55.265 4.924215
55.270 4.775103
55.275 4.701889
55.280 4.506826
55.285 4.476056
55.290 4.453055
55.295 3.985677
55.300 3.706422
55.305 3.629802
55.310 3.366712
55.315 3.401048
55.320 3.63451
55.325 4.217276
55.330 4.607234
55.335 4.937272
55.340 5.079021
55.345 5.564335
55.350 5.425841
55.355 5.427519
55.360 5.263187
55.365 5.351567
55.370 4.966891
55.375 4.641456
55.380 4.524526
55.385 4.558395
55.390 4.478873
55.395 4.781123
55.400 4.494836
55.405 4.617302
55.410 4.545676
55.415 4.382752
55.420 4.398288
55.425 4.180803
55.430 3.91162
55.435 4.02625
55.440 4.083847
55.445 4.123412
55.450 4.175752
55.455 4.029293
55.460 4.221615
55.465 4.063088
55.470 4.029598
55.475 4.177503
55.480 4.67299
55.485 5.01227
55.490 5.260821
55.495 5.146783
55.500 4.993293
55.505 4.925644
55.510 4.620812
55.515 4.187016
55.520 3.914758
55.525 3.564675
55.530 3.388112
55.535 3.655741
55.540 3.85183
55.545 4.206207
55.550 4.276998
55.555 4.313544
55.560 4.633658
55.565 4.661099
55.570 4.635737
55.575 4.808457
55.580 4.820509
55.585 4.982355
55.590 5.111952
55.595 4.700018
55.600 4.530079
55.605 4.47632
55.610 4.407586
55.615 4.542859
55.620 4.522423
55.625 4.404744
55.630 4.483201
55.635 4.663958
55.640 4.663113
55.645 4.453217
55.650 4.454718
55.655 4.740887
55.660 4.950667
55.665 5.071555
55.670 5.06691
55.675 4.983953
55.680 4.91242
55.685 4.523193
55.690 4.361127
55.695 4.430707
55.700 4.598248
55.705 4.615695
55.710 4.268292
55.715 4.098726
55.720 4.233052
55.725 4.227145
55.730 3.928815
55.735 3.959087
55.740 3.787992
55.745 4.187973
55.750 4.412372
55.755 4.301119
55.760 4.406369
55.765 4.609808
55.770 4.452996
55.775 4.929379
55.780 4.96166
55.785 5.186773
55.790 5.313601
55.795 5.303301
55.800 5.293881
55.805 5.327792
55.810 5.203102
55.815 5.157894
55.820 4.93934
55.825 4.855118
55.830 4.59504
55.835 4.791985
55.840 4.972794
55.845 5.034499
55.850 5.090261
55.855 4.847079
55.860 4.867911
55.865 5.077099
55.870 4.703981
55.875 4.762311
55.880 4.623334
55.885 4.748076
55.890 4.884961
55.895 4.860576
55.900 4.927973
55.905 4.983305
55.910 4.972344
55.915 5.328529
55.920 5.311063
55.925 5.534707
55.930 5.708511
55.935 5.620527
55.940 5.566845
55.945 6.032808
55.950 6.055728
55.955 6.133801
55.960 6.045569
55.965 6.035111
55.970 6.231172
55.975 6.449223
55.980 5.868235
55.985 5.803782
55.990 5.807793
55.995 5.633917
56.000 5.612516
56.005 5.467334
56.010 5.322092
56.015 5.279091
56.020 5.507068
56.025 5.699016
56.030 6.115533
56.035 6.162548
56.040 6.105782
56.045 5.967774
56.050 5.870945
56.055 5.609237
56.060 5.317984
56.065 4.889148
56.070 4.606434
56.075 4.832499
56.080 5.268173
56.085 5.274234
56.090 5.060893
56.095 5.280198
56.100 5.288032
56.105 5.341564
56.110 4.965446
56.115 4.867106
56.120 5.218144
56.125 5.576164
56.130 5.406223
56.135 5.529899
56.140 5.695903
56.145 5.607387
56.150 5.431384
56.155 5.066357
56.160 4.763801
56.165 4.682256
56.170 4.635325
56.175 4.758035
56.180 5.058002
56.185 5.177123
56.190 5.128717
56.195 5.282585
56.200 5.398836
56.205 5.370195
56.210 5.217947
56.215 4.757946
56.220 4.803569
56.225 5.119656
56.230 5.084368
56.235 5.196657
56.240 5.254366
56.245 5.444625
56.250 5.489882
56.255 5.328874
56.260 5.27253
56.265 5.266433
56.270 5.223713
56.275 5.171862
56.280 5.072067
56.285 5.472975
56.290 5.362024
56.295 5.340487
56.300 5.302846
56.305 5.388126
56.310 5.625653
56.315 5.630019
56.320 5.750812
56.325 5.911181
56.330 5.760454
56.335 5.696499
56.340 5.529186
56.345 5.465183
56.350 5.242188
56.355 4.657
56.360 4.642643
56.365 4.93805
56.370 5.401852
56.375 5.639179
56.380 5.496792
56.385 5.810192
56.390 6.029415
56.395 5.91906
56.400 5.835552
56.405 5.352257
56.410 5.117013
56.415 4.944023
56.420 4.794538
56.425 4.723206
56.430 4.887845
56.435 4.770184
56.440 5.105543
56.445 5.273424
56.450 5.300378
56.455 5.244632
56.460 5.280175
56.465 4.890171
56.470 4.7227
56.475 4.552352
56.480 4.286265
56.485 4.379201
56.490 4.454248
56.495 4.807849
56.500 5.142307
56.505 5.318263
56.510 5.403532
56.515 5.62559
56.520 5.534934
56.525 5.373684
56.530 4.816482
56.535 4.557922
56.540 4.225453
56.545 4.206348
56.550 4.573981
56.555 4.767719
56.560 5.038852
56.565 5.242651
56.570 5.506487
56.575 5.63661
56.580 5.525218
56.585 5.434276
56.590 5.425455
56.595 5.306162
56.600 5.417716
56.605 5.636709
56.610 6.023604
56.615 6.223925
56.620 6.089126
56.625 6.031456
56.630 5.740788
56.635 5.709013
56.640 5.601802
56.645 5.32642
56.650 5.022433
56.655 5.050875
56.660 5.279237
56.665 5.516231
56.670 5.521989
56.675 5.495302
56.680 5.925007
56.685 5.92031
56.690 5.849216
56.695 6.174723
56.700 6.287928
56.705 6.033087
56.710 5.977046
56.715 5.593195
56.720 5.887063
56.725 5.844253
56.730 5.498005
56.735 5.399339
56.740 5.499666
56.745 5.864217
56.750 6.038735
56.755 5.788441
56.760 5.874544
56.765 5.947861
56.770 5.930832
56.775 5.95414
56.780 5.645528
56.785 5.768532
56.790 5.825013
56.795 5.607672
56.800 5.225887
56.805 5.366654
56.810 5.411675
56.815 5.67118
56.820 5.469469
56.825 5.431749
56.830 5.66413
56.835 5.876073
56.840 5.82454
56.845 5.938736
56.850 5.86448
56.855 5.775272
56.860 5.715646
56.865 5.779098
56.870 5.975102
56.875 6.074166
56.880 5.830274
56.885 5.684293
56.890 5.551467
56.895 5.704325
56.900 6.024202
56.905 5.904974
56.910 5.685819
56.915 5.713457
56.920 5.945927
56.925 6.511796
56.930 6.462062
56.935 6.141335
56.940 6.344303
56.945 6.369748
56.950 6.052011
56.955 5.830158
56.960 5.732358
56.965 5.622726
56.970 5.877681
56.975 6.120276
56.980 6.165452
56.985 6.495209
56.990 6.241468
56.995 6.301301
57.000 6.662214
57.005 6.511596
57.010 6.177372
57.015 5.864344
57.020 5.674558
57.025 6.09295
57.030 5.851186
57.035 5.476912
57.040 5.591397
57.045 5.776534
57.050 6.245814
57.055 6.356546
57.060 6.08432
57.065 6.006884
57.070 5.903724
57.075 5.604008
57.080 5.362368
57.085 5.178333
57.090 5.274735
57.095 5.678513
57.100 5.677893
57.105 5.822133
57.110 6.377258
57.115 6.444033
57.120 6.23819
57.125 6.29932
57.130 6.219231
57.135 6.70306
57.140 6.531707
57.145 6.264696
57.150 6.44629
57.155 6.660778
57.160 6.436214
57.165 6.536179
57.170 6.357167
57.175 6.323802
57.180 6.369994
57.185 6.20399
57.190 6.042006
57.195 6.185426
57.200 5.976794
57.205 5.977304
57.210 6.094195
57.215 6.20216
57.220 6.410499
57.225 6.597509
57.230 6.250878
57.235 6.143709
57.240 6.409049
57.245 6.328857
57.250 5.937919
57.255 5.854874
57.260 5.804184
57.265 6.12547
57.270 5.860322
57.275 5.533394
57.280 5.806841
57.285 5.912106
57.290 5.537843
57.295 5.612419
57.300 5.539124
57.305 5.72023
57.310 5.931853
57.315 5.697777
57.320 5.900944
57.325 6.72181
57.330 7.107791
57.335 7.384891
57.340 7.590309
57.345 7.346828
57.350 7.769547
57.355 7.490705
57.360 6.815381
57.365 6.362286
57.370 6.184792
57.375 6.10746
57.380 5.93158
57.385 5.557642
57.390 5.788707
57.395 6.018378
57.400 6.200255
57.405 6.365744
57.410 6.218333
57.415 6.358627
57.420 6.374051
57.425 6.477506
57.430 6.394915
57.435 6.325816
57.440 6.338913
57.445 6.44332
57.450 6.530163
57.455 6.316388
57.460 6.359874
57.465 6.209546
57.470 6.007178
57.475 6.160004
57.480 6.256392
57.485 6.560659
57.490 7.139898
57.495 6.844532
57.500 6.622888
57.505 6.246939
57.510 5.948111
57.515 6.056126
57.520 5.703318
57.525 5.573867
57.530 5.728158
57.535 5.865767
57.540 6.262217
57.545 5.99762
57.550 6.231987
57.555 6.267519
57.560 6.271071
57.565 6.761494
57.570 7.216126
57.575 7.249814
57.580 7.587218
57.585 7.297043
57.590 7.341553
57.595 7.066774
57.600 6.25926
57.605 5.837295
57.610 5.557859
57.615 5.232826
57.620 5.007886
57.625 5.201231
57.630 5.470883
57.635 5.414199
57.640 5.519292
57.645 5.689129
57.650 5.878112
57.655 6.225967
57.660 6.06272
57.665 5.987391
57.670 6.185141
57.675 6.423026
57.680 6.622837
57.685 6.650544
57.690 6.416759
57.695 6.530895
57.700 6.68833
57.705 6.644253
57.710 6.585921
57.715 6.467572
57.720 6.534067
57.725 6.614683
57.730 6.526978
57.735 6.173828
57.740 6.283785
57.745 6.323094
57.750 6.282492
57.755 6.056665
57.760 5.978488
57.765 6.144346
57.770 6.40084
57.775 6.331345
57.780 6.261153
57.785 6.546546
57.790 6.809088
57.795 6.923429
57.800 6.786072
57.805 6.903771
57.810 7.262343
57.815 7.325202
57.820 7.261858
57.825 7.33646
57.830 7.312519
57.835 7.648169
57.840 7.716343
57.845 7.435738
57.850 7.423258
57.855 7.676839
57.860 7.658761
57.865 7.701164
57.870 7.320002
57.875 6.950007
57.880 6.787151
57.885 6.434889
57.890 5.893937
57.895 5.59593
57.900 5.476523
57.905 5.597994
57.910 5.714399
57.915 5.66815
57.920 5.94752
57.925 5.972688
57.930 6.565361
57.935 6.766602
57.940 6.535871
57.945 6.411057
57.950 6.660057
57.955 7.191126
57.960 7.345412
57.965 6.990007
57.970 6.490711
57.975 6.606379
57.980 6.778175
57.985 6.697501
57.990 6.451133
57.995 6.535737
58.000 6.34663
58.005 6.842298
58.010 7.166304
58.015 6.998886
58.020 6.715809
58.025 6.40923
58.030 6.391892
58.035 6.534739
58.040 6.514112
58.045 6.770665
58.050 6.714639
58.055 6.799496
58.060 6.908099
58.065 6.775976
58.070 6.891066
58.075 6.947568
58.080 6.855567
58.085 6.952188
58.090 7.078232
58.095 7.048115
58.100 6.651591
58.105 6.206712
58.110 5.837398
58.115 5.857386
58.120 5.889134
58.125 5.727631
58.130 6.027415
58.135 6.388368
58.140 6.730279
58.145 6.757988
58.150 6.69046
58.155 6.72118
58.160 6.831987
58.165 7.04264
58.170 7.093454
58.175 6.974128
58.180 6.716583
58.185 6.696537
58.190 6.401673
58.195 6.128888
58.200 6.193242
58.205 6.308901
58.210 6.334221
58.215 6.343693
58.220 6.335338
58.225 6.536727
58.230 6.671062
58.235 6.345496
58.240 5.960019
58.245 6.138231
58.250 5.999319
58.255 6.144511
58.260 6.242918
58.265 6.076225
58.270 6.435599
58.275 6.752911
58.280 6.885201
58.285 7.103649
58.290 7.132096
58.295 6.95666
58.300 7.194952
58.305 7.056525
58.310 6.913081
58.315 7.160023
58.320 7.176615
58.325 7.058267
58.330 7.155494
58.335 7.099989
58.340 7.077199
58.345 6.82449
58.350 6.195191
58.355 6.216361
58.360 6.198968
58.365 6.201111
58.370 6.372187
58.375 6.693275
58.380 7.264786
58.385 7.586271
58.390 7.675423
58.395 7.841102
58.400 7.498167
58.405 7.347526
58.410 7.042042
58.415 7.116092
58.420 7.663887
58.425 8.076552
58.430 8.458509
58.435 8.93797
58.440 8.971358
58.445 9.328517
58.450 9.344365
58.455 8.888931
58.460 8.430027
58.465 8.510384
58.470 8.273232
58.475 8.273008
58.480 8.146638
58.485 7.91057
58.490 8.268412
58.495 8.508869
58.500 8.674707
58.505 8.657791
58.510 8.798409
58.515 8.81409
58.520 9.216038
58.525 9.320326
58.530 9.241178
58.535 8.915476
58.540 9.550756
58.545 10.129967
58.550 10.172334
58.555 9.947009
58.560 10.107605
58.565 11.154722
58.570 11.279987
58.575 11.289055
58.580 11.121946
58.585 11.675786
58.590 12.496721
58.595 12.962723
58.600 12.150928
58.605 12.527921
58.610 12.537253
58.615 11.770422
58.620 11.350916
58.625 11.002762
58.630 11.004317
58.635 11.321873
58.640 11.372828
58.645 11.59152
58.650 12.458563
58.655 13.295098
58.660 13.849042
58.665 13.673591
58.670 13.54617
58.675 13.486258
58.680 13.143348
58.685 13.452476
58.690 13.097571
58.695 12.925526
58.700 13.245619
58.705 13.388187
58.710 13.603786
58.715 13.704623
58.720 13.233792
58.725 12.833767
58.730 12.811607
58.735 12.791322
58.740 12.74857
58.745 12.760738
58.750 12.553142
58.755 12.727973
58.760 12.755503
58.765 12.315652
58.770 12.232379
58.775 12.379878
58.780 12.594247
58.785 13.093112
58.790 12.774844
58.795 12.38015
58.800 12.129253
58.805 12.163961
58.810 12.17103
58.815 11.853601
58.820 11.537629
58.825 11.616109
58.830 11.906744
58.835 11.649469
58.840 11.209279
58.845 11.041455
58.850 10.945096
58.855 10.637261
58.860 10.333152
58.865 10.423958
58.870 10.447444
58.875 10.090464
58.880 9.620047
58.885 9.539619
58.890 9.807159
58.895 9.856585
58.900 9.587839
58.905 9.835863
58.910 9.934594
58.915 9.778641
58.920 9.664694
58.925 8.90762
58.930 9.232977
58.935 9.307043
58.940 8.720056
58.945 8.700679
58.950 8.874373
58.955 8.822983
58.960 8.881538
58.965 8.593186
58.970 8.584213
58.975 8.933373
58.980 9.148325
58.985 9.481283
58.990 9.717054
58.995 9.872934
59.000 9.659913
59.005 9.543787
59.010 9.663995
59.015 9.412513
59.020 8.900342
59.025 8.622776
59.030 8.609518
59.035 8.810852
59.040 8.882125
59.045 8.727619
59.050 8.565639
59.055 8.650823
59.060 8.69928
59.065 8.688185
59.070 8.613037
59.075 8.299816
59.080 8.123144
59.085 7.930361
59.090 8.127934
59.095 7.849005
59.100 7.902107
59.105 7.63887
59.110 7.692157
59.115 7.739844
59.120 7.759849
59.125 7.567304
59.130 7.582677
59.135 7.49303
59.140 7.454894
59.145 6.891287
59.150 6.868493
59.155 6.597836
59.160 6.309745
59.165 6.332546
59.170 6.537898
59.175 6.89305
59.180 7.461085
59.185 7.574863
59.190 7.43334
59.195 7.651311
59.200 7.397692
59.205 7.277905
59.210 7.245956
59.215 7.05448
59.220 7.018693
59.225 7.486469
59.230 7.381962
59.235 7.549563
59.240 7.50275
59.245 7.159344
59.250 7.074795
59.255 6.760125
59.260 6.80958
59.265 7.205513
59.270 6.780841
59.275 6.54431
59.280 6.41498
59.285 6.538396
59.290 6.879343
59.295 6.649665
59.300 6.711615
59.305 7.18128
59.310 7.163265
59.315 7.549857
59.320 7.58123
59.325 7.330101
59.330 7.294955
59.335 7.518535
59.340 7.542053
59.345 7.420529
59.350 7.276253
59.355 7.094788
59.360 7.184259
59.365 7.34696
59.370 7.093036
59.375 7.01519
59.380 7.109765
59.385 7.126588
59.390 7.19131
59.395 6.962392
59.400 6.724278
59.405 6.713748
59.410 6.842854
59.415 6.971911
59.420 6.880209
59.425 7.02767
59.430 7.202783
59.435 6.888945
59.440 6.76153
59.445 7.012701
59.450 6.784189
59.455 6.788292
59.460 6.811457
59.465 6.73144
59.470 7.193756
59.475 7.155705
59.480 6.965069
59.485 7.151312
59.490 7.50925
59.495 7.444335
59.500 7.338947
59.505 6.926033
59.510 7.060567
59.515 7.275053
59.520 7.165795
59.525 6.872576
59.530 6.86032
59.535 7.06892
59.540 6.901691
59.545 7.232303
59.550 6.935026
59.555 6.775782
59.560 6.544919
59.565 6.410605
59.570 6.501479
59.575 6.926569
59.580 6.485262
59.585 6.845969
59.590 7.016414
59.595 7.212421
59.600 7.458973
59.605 7.213836
59.610 7.121059
59.615 7.192589
59.620 7.018219
59.625 7.082506
59.630 7.283426
59.635 6.84007
59.640 6.809891
59.645 6.770942
59.650 6.80785
59.655 6.950317
59.660 6.887163
59.665 7.017811
59.670 7.559577
59.675 7.848527
59.680 7.767982
59.685 7.563037
59.690 7.266735
59.695 7.087711
59.700 6.693714
59.705 6.421062
59.710 6.014763
59.715 5.84941
59.720 6.140606
59.725 6.481456
59.730 6.662488
59.735 6.862709
59.740 6.909792
59.745 7.027304
59.750 7.10831
59.755 6.691809
59.760 6.501152
59.765 6.241645
59.770 6.294217
59.775 6.343486
59.780 6.420521
59.785 6.501454
59.790 6.675532
59.795 6.659461
59.800 6.836716
59.805 7.081612
59.810 7.372222
59.815 7.60931
59.820 7.352386
59.825 7.367743
59.830 7.81626
59.835 7.591079
59.840 7.227571
59.845 7.147432
59.850 7.1463
59.855 7.351582
59.860 7.433018
59.865 7.001864
59.870 6.93465
59.875 6.825652
59.880 6.496335
59.885 6.453992
59.890 6.326132
59.895 6.27058
59.900 6.405495
59.905 7.087716
59.910 7.348917
59.915 7.421381
59.920 7.562936
59.925 7.595349
59.930 7.544664
59.935 7.448799
59.940 6.766385
59.945 6.776364
59.950 6.824545
59.955 6.599936
59.960 6.86125
59.965 6.902855
59.970 7.348745
59.975 7.842063
59.980 7.855981
59.985 7.795525
59.990 8.05522
59.995 7.732197
60.000 7.926852
60.005 7.721886
60.010 7.630838
60.015 7.924909
60.020 7.770783
60.025 7.585001
60.030 7.785548
60.035 7.633809
60.040 7.744604
60.045 7.559013
60.050 7.51754
60.055 8.009483
60.060 8.061901
60.065 8.338099
60.070 8.648617
60.075 8.32549
60.080 8.129234
60.085 8.148563
60.090 8.125676
60.095 7.886273
60.100 7.201647
60.105 6.702589
60.110 7.030863
60.115 7.120016
60.120 6.780759
60.125 6.400455
60.130 6.598547
60.135 6.8704
60.140 6.894728
60.145 6.746073
60.150 6.907062
60.155 7.262881
60.160 7.437522
60.165 7.402486
60.170 7.772817
60.175 7.924041
60.180 7.90565
60.185 8.035604
60.190 7.88695
60.195 8.031211
60.200 8.385225
60.205 8.336051
60.210 8.312679
60.215 8.62964
60.220 8.312031
60.225 8.018048
60.230 7.837032
60.235 7.700514
60.240 7.519955
60.245 7.306228
60.250 7.365237
60.255 7.35954
60.260 7.431647
60.265 7.640805
60.270 7.625611
60.275 8.050119
60.280 8.155879
60.285 7.747858
60.290 7.847278
60.295 7.860684
60.300 7.119378
60.305 6.857666
60.310 6.78836
60.315 6.955332
60.320 7.558541
60.325 7.544179
60.330 7.603517
60.335 8.173137
60.340 8.262547
60.345 8.214469
60.350 7.712609
60.355 7.25906
60.360 7.347505
60.365 7.71904
60.370 7.463556
60.375 7.45782
60.380 7.666994
60.385 7.842689
60.390 8.047159
60.395 8.367467
60.400 8.473521
60.405 8.623842
60.410 8.047183
60.415 7.75934
60.420 7.829932
60.425 7.785772
60.430 7.245627
60.435 6.769468
60.440 6.885276
60.445 6.886493
60.450 6.594268
60.455 6.499486
60.460 6.759753
60.465 7.03739
60.470 6.951843
60.475 7.121955
60.480 7.435829
60.485 7.507235
60.490 7.905084
60.495 7.656842
60.500 7.540084
60.505 7.780743
60.510 7.845684
60.515 7.839532
60.520 7.804111
60.525 7.544488
60.530 7.143867
60.535 6.886949
60.540 6.721211
60.545 6.796443
60.550 7.132965
60.555 7.18406
60.560 6.874162
60.565 6.643361
60.570 6.837901
60.575 6.897756
60.580 7.138766
60.585 7.127658
60.590 7.527812
60.595 7.934768
60.600 8.421429
60.605 8.513031
60.610 8.54173
60.615 8.306848
60.620 8.186773
60.625 8.08729
60.630 7.886014
60.635 7.799806
60.640 8.103154
60.645 7.911174
60.650 7.950407
60.655 7.908344
60.660 7.957923
60.665 8.145537
60.670 8.201951
60.675 8.052917
60.680 7.781345
60.685 7.849715
60.690 7.6516
60.695 7.349317
60.700 7.270542
60.705 7.018594
60.710 6.917389
60.715 6.787496
60.720 6.640292
60.725 7.050492
60.730 7.452271
60.735 7.471044
60.740 7.498817
60.745 7.43754
60.750 7.667097
60.755 7.81904
60.760 7.572423
60.765 7.27412
60.770 7.563007
60.775 7.808811
60.780 8.00925
60.785 8.231393
60.790 8.298397
60.795 8.44011
60.800 8.594675
60.805 8.193713
60.810 8.401365
60.815 8.772813
60.820 8.704499
60.825 8.281633
60.830 7.913217
60.835 7.637929
60.840 7.616142
60.845 7.31618
60.850 7.091404
60.855 6.985249
60.860 6.928365
60.865 7.280123
60.870 7.587994
60.875 7.607085
60.880 7.777894
60.885 7.73111
60.890 7.402945
60.895 7.645581
60.900 7.765347
60.905 7.795277
60.910 7.87683
60.915 7.771835
60.920 7.608159
60.925 7.878682
60.930 7.786351
60.935 7.445832
60.940 7.326756
60.945 7.27402
60.950 6.93159
60.955 7.492989
60.960 7.629239
60.965 7.43896
60.970 7.894041
60.975 8.200534
60.980 8.431444
60.985 9.165052
60.990 9.410677
60.995 9.566245
61.000 9.830833
61.005 9.714468
61.010 9.471639
61.015 9.319442
61.020 8.782886
61.025 8.26639
61.030 8.337371
61.035 8.308237
61.040 8.173313
61.045 8.35226
61.050 8.463138
61.055 8.338765
61.060 8.197267
61.065 8.214973
61.070 8.174041
61.075 7.855116
61.080 7.734507
61.085 7.832117
61.090 8.34967
61.095 8.40769
61.100 8.13774
61.105 7.995329
61.110 8.02951
61.115 8.186964
61.120 8.330395
61.125 8.262369
61.130 7.973433
61.135 8.083732
61.140 7.999242
61.145 7.803535
61.150 7.66537
61.155 7.107881
61.160 6.557639
61.165 6.950227
61.170 7.05178
61.175 7.371731
61.180 7.80434
61.185 7.886678
61.190 7.800066
61.195 8.460032
61.200 8.345419
61.205 8.235239
61.210 8.240389
61.215 8.331851
61.220 8.711885
61.225 9.050529
61.230 8.93856
61.235 8.983769
61.240 8.872154
61.245 8.805683
61.250 8.614095
61.255 8.226416
61.260 8.446581
61.265 8.695458
61.270 8.711602
61.275 8.939135
61.280 9.123549
61.285 9.147614
61.290 8.994633
61.295 8.519469
61.300 8.088672
61.305 8.014267
61.310 7.778537
61.315 7.530641
61.320 7.440799
61.325 7.337646
61.330 7.249607
61.335 7.318357
61.340 7.428411
61.345 7.474688
61.350 7.695148
61.355 7.85937
61.360 8.155246
61.365 7.95958
61.370 7.582497
61.375 7.359032
61.380 7.460762
61.385 7.271151
61.390 7.050761
61.395 7.14268
61.400 7.341682
61.405 7.480871
61.410 7.476523
61.415 7.376237
61.420 7.527099
61.425 7.477832
61.430 7.339524
61.435 7.132743
61.440 7.409345
61.445 7.616086
61.450 7.725721
61.455 7.500544
61.460 7.475062
61.465 7.673915
61.470 7.833375
61.475 7.904716
61.480 7.835655
61.485 7.719272
61.490 7.7423
61.495 7.853856
61.500 7.896446
61.505 7.828032
61.510 7.479634
61.515 7.464205
61.520 7.370892
61.525 7.427737
61.530 7.780071
61.535 7.593382
61.540 8.019222
61.545 8.301865
61.550 8.220363
61.555 8.284132
61.560 7.981152
61.565 7.926416
61.570 8.199067
61.575 8.207733
61.580 8.24777
61.585 8.376844
61.590 8.143437
61.595 8.31644
61.600 7.950108
61.605 7.819477
61.610 7.727097
61.615 7.376002
61.620 7.307932
61.625 7.492991
61.630 7.694348
61.635 7.894845
61.640 8.16892
61.645 8.108807
61.650 8.004901
61.655 8.706524
61.660 9.307885
61.665 9.089789
61.670 8.68082
61.675 8.265303
61.680 8.137702
61.685 8.052628
61.690 7.257329
61.695 6.71141
61.700 6.728955
61.705 6.809375
61.710 6.751134
61.715 7.029105
61.720 7.225387
61.725 7.09192
61.730 7.150558
61.735 6.923933
61.740 7.034297
61.745 7.212481
61.750 7.294758
61.755 7.593598
61.760 7.744912
61.765 7.805982
61.770 8.031036
61.775 7.95124
61.780 7.961258
61.785 7.877285
61.790 7.601686
61.795 7.800783
61.800 7.713373
61.805 7.905958
61.810 8.248739
61.815 8.016409
61.820 8.243819
61.825 8.270666
61.830 7.9435
61.835 8.065603
61.840 8.02759
61.845 7.706113
61.850 7.713882
61.855 7.72255
61.860 8.049006
61.865 8.152282
61.870 8.359553
61.875 8.620276
61.880 9.244754
61.885 9.522884
61.890 9.140887
61.895 9.08788
61.900 8.858271
61.905 8.218515
61.910 7.755861
61.915 7.252708
61.920 6.825917
61.925 7.035307
61.930 7.086913
61.935 7.510334
61.940 7.893536
61.945 8.234103
61.950 8.285368
61.955 8.281391
61.960 8.138674
61.965 7.947171
61.970 7.785336
61.975 8.017527
61.980 7.743446
61.985 7.701096
61.990 7.761089
61.995 7.823214
62.000 8.16186
62.005 7.87528
62.010 7.528548
62.015 7.479114
62.020 7.567969
62.025 8.076701
62.030 8.557121
62.035 8.274036
62.040 9.018113
62.045 9.210335
62.050 9.718927
62.055 9.739187
62.060 9.113015
62.065 8.772468
62.070 8.924594
62.075 8.667307
62.080 8.340145
62.085 7.906198
62.090 7.980096
62.095 8.239986
62.100 8.071242
62.105 7.545025
62.110 7.679742
62.115 7.948469
62.120 8.118677
62.125 8.331134
62.130 8.051749
62.135 7.878543
62.140 8.25887
62.145 8.398259
62.150 8.84076
62.155 8.51806
62.160 8.473595
62.165 8.847567
62.170 9.122005
62.175 9.184923
62.180 9.106682
62.185 9.028539
62.190 9.044663
62.195 8.69265
62.200 8.548223
62.205 8.636307
62.210 8.686471
62.215 8.4488
62.220 8.183271
62.225 8.231818
62.230 8.229363
62.235 8.220926
62.240 7.804035
62.245 7.506625
62.250 7.274644
62.255 7.098571
62.260 7.411487
62.265 7.52541
62.270 8.089485
62.275 8.416664
62.280 8.373639
62.285 8.526427
62.290 8.818831
62.295 8.597139
62.300 8.668752
62.305 8.507472
62.310 8.670376
62.315 8.805758
62.320 8.378143
62.325 8.109138
62.330 8.0478
62.335 7.75488
62.340 7.600253
62.345 7.419273
62.350 7.284419
62.355 7.949765
62.360 8.136439
62.365 8.33384
62.370 8.213564
62.375 8.181826
62.380 8.099801
62.385 8.313148
62.390 8.177252
62.395 8.203856
62.400 8.243548
62.405 8.21032
62.410 8.622202
62.415 8.575683
62.420 8.361475
62.425 8.401234
62.430 8.514876
62.435 8.672703
62.440 8.906904
62.445 8.641304
62.450 8.82955
62.455 9.094104
62.460 9.282098
62.465 8.804217
62.470 8.93514
62.475 9.023948
62.480 9.018604
62.485 8.964976
62.490 8.561737
62.495 7.943848
62.500 7.910547
62.505 7.519366
62.510 7.524725
62.515 7.515527
62.520 7.712141
62.525 8.215501
62.530 8.465938
62.535 8.287453
62.540 8.323046
62.545 8.29032
62.550 8.1519
62.555 7.92339
62.560 7.527068
62.565 7.475621
62.570 7.6223
62.575 7.716139
62.580 7.506054
62.585 7.989987
62.590 8.370226
62.595 8.536925
62.600 8.923121
62.605 9.125165
62.610 9.066632
62.615 9.452196
62.620 8.910997
62.625 8.608759
62.630 8.384583
62.635 8.106264
62.640 8.313297
62.645 8.466433
62.650 8.350867
62.655 8.932656
62.660 9.085731
62.665 9.339331
62.670 9.521285
62.675 9.480721
62.680 9.541078
62.685 9.405277
62.690 9.386793
62.695 9.528337
62.700 9.943534
62.705 10.248026
62.710 10.06542
62.715 9.537766
62.720 9.381545
62.725 9.522025
62.730 9.726571
62.735 9.45427
62.740 9.276049
62.745 9.273775
62.750 9.603188
62.755 9.859034
62.760 10.056622
62.765 9.9812
62.770 9.668893
62.775 9.53281
62.780 9.718073
62.785 9.483549
62.790 9.243587
62.795 8.642283
62.800 8.871574
62.805 9.313616
62.810 9.327204
62.815 9.517745
62.820 10.009609
62.825 10.197116
62.830 10.144634
62.835 10.182141
62.840 9.616259
62.845 9.452672
62.850 9.210118
62.855 8.935025
62.860 8.636153
62.865 8.43173
62.870 8.32274
62.875 8.453753
62.880 8.695534
62.885 8.503588
62.890 8.240663
62.895 8.269983
62.900 8.554606
62.905 8.559543
62.910 8.929534
62.915 8.990521
62.920 8.981611
62.925 9.080957
62.930 9.216934
62.935 9.048388
62.940 8.931618
62.945 8.487454
62.950 8.308341
62.955 8.395455
62.960 8.620534
62.965 8.615749
62.970 8.507746
62.975 8.937169
62.980 9.068732
62.985 8.761012
62.990 8.759799
62.995 8.844736
63.000 9.01827
63.005 9.272725
63.010 9.118405
63.015 9.445474
63.020 9.572666
63.025 9.952637
63.030 9.67976
63.035 9.931167
63.040 10.351639
63.045 10.442012
63.050 10.354952
63.055 10.416454
63.060 10.253461
63.065 10.007882
63.070 9.44693
63.075 8.844357
63.080 8.309408
63.085 7.952445
63.090 7.534122
63.095 7.40648
63.100 7.695835
63.105 8.044326
63.110 8.533632
63.115 8.788367
63.120 8.993491
63.125 9.163236
63.130 9.100161
63.135 8.961068
63.140 8.758327
63.145 8.519115
63.150 8.469393
63.155 9.017554
63.160 10.014698
63.165 10.361659
63.170 10.315416
63.175 10.476906
63.180 10.590409
63.185 10.164888
63.190 9.518333
63.195 8.462289
63.200 8.284455
63.205 8.169997
63.210 7.594688
63.215 7.192512
63.220 7.540755
63.225 7.698998
63.230 8.257762
63.235 8.248802
63.240 8.360035
63.245 8.910038
63.250 8.734274
63.255 8.887199
63.260 8.888539
63.265 8.478241
63.270 8.444082
63.275 8.393292
63.280 8.441228
63.285 9.475714
63.290 9.655772
63.295 9.824594
63.300 9.857656
63.305 9.749231
63.310 9.87902
63.315 9.707707
63.320 9.023424
63.325 8.691922
63.330 8.520698
63.335 8.567627
63.340 8.753795
63.345 8.431637
63.350 8.142287
63.355 8.052424
63.360 7.760757
63.365 7.965896
63.370 8.05372
63.375 8.120201
63.380 8.348365
63.385 8.378238
63.390 8.640619
63.395 9.383541
63.400 9.379791
63.405 9.377172
63.410 9.100637
63.415 8.923783
63.420 9.313575
63.425 9.487144
63.430 9.184698
63.435 9.184617
63.440 8.831631
63.445 9.286244
63.450 9.583689
63.455 9.126163
63.460 8.811496
63.465 8.850008
63.470 8.569656
63.475 8.908331
63.480 8.981372
63.485 8.976126
63.490 9.085874
63.495 8.989498
63.500 9.00195
63.505 8.858221
63.510 8.486066
63.515 7.959657
63.520 7.715341
63.525 7.85861
63.530 7.828979
63.535 8.274402
63.540 8.929866
63.545 9.171769
63.550 9.397097
63.555 9.65086
63.560 9.392132
63.565 9.264853
63.570 8.603569
63.575 8.503535
63.580 8.770271
63.585 8.819289
63.590 8.807815
63.595 9.353518
63.600 9.978113
63.605 10.067278
63.610 10.421998
63.615 10.605042
63.620 10.459182
63.625 10.162368
63.630 9.389895
63.635 8.801229
63.640 8.770658
63.645 7.999908
63.650 7.71208
63.655 8.000132
63.660 8.335151
63.665 9.010458
63.670 8.946402
63.675 9.108084
63.680 9.477403
63.685 9.780741
63.690 10.088011
63.695 9.767861
63.700 9.640162
63.705 10.062901
63.710 10.366027
63.715 10.111036
63.720 9.567478
63.725 9.399882
63.730 9.46664
63.735 9.728952
63.740 9.833211
63.745 9.460331
63.750 9.546076
63.755 9.776638
63.760 10.100986
63.765 10.161121
63.770 9.818353
63.775 9.423113
63.780 9.661644
63.785 9.757305
63.790 9.959939
63.795 10.051855
63.800 9.897305
63.805 9.823267
63.810 10.109805
63.815 10.201548
63.820 10.353262
63.825 9.929555
63.830 9.449113
63.835 9.754115
63.840 10.179631
63.845 10.306966
63.850 10.040765
63.855 10.09151
63.860 10.201625
63.865 10.428956
63.870 10.142048
63.875 9.67154
63.880 9.772002
63.885 10.330888
63.890 10.491111
63.895 10.465419
63.900 10.256109
63.905 10.316439
63.910 10.077264
63.915 9.706127
63.920 9.388336
63.925 9.215906
63.930 9.589607
63.935 10.212818
63.940 10.666504
63.945 11.122679
63.950 11.038733
63.955 11.284525
63.960 11.509725
63.965 11.530764
63.970 11.513329
63.975 11.644271
63.980 12.140569
63.985 12.281954
63.990 12.213268
63.995 11.840596
64.000 11.585637
64.005 11.248513
64.010 11.543072
64.015 11.117302
64.020 10.990873
64.025 10.972844
64.030 11.378078
64.035 12.083649
64.040 11.981014
64.045 11.584902
64.050 12.124298
64.055 11.975225
64.060 12.282843
64.065 12.375423
64.070 12.270607
64.075 12.805748
64.080 12.983891
64.085 12.651546
64.090 13.063143
64.095 12.90804
64.100 12.572963
64.105 12.075962
64.110 11.918038
64.115 12.184032
64.120 13.075912
64.125 12.749201
64.130 12.52159
64.135 12.804976
64.140 12.893813
64.145 12.591116
64.150 12.928372
64.155 12.586682
64.160 12.939962
64.165 13.14935
64.170 13.060314
64.175 13.364685
64.180 13.462029
64.185 13.276792
64.190 12.999285
64.195 12.806648
64.200 12.737675
64.205 12.7523
64.210 13.051725
64.215 13.099315
64.220 13.417802
64.225 14.318779
64.230 15.200567
64.235 15.987828
64.240 16.284229
64.245 16.620216
64.250 17.237892
64.255 17.388
64.260 17.51446
64.265 17.996765
64.270 17.63274
64.275 18.51737
64.280 18.456093
64.285 19.081821
64.290 19.105274
64.295 18.921682
64.300 18.989389
64.305 19.487694
64.310 19.531775
64.315 19.607634
64.320 19.421604
64.325 19.944214
64.330 20.210264
64.335 20.432831
64.340 20.909039
64.345 20.671089
64.350 21.085791
64.355 21.021624
64.360 21.528509
64.365 21.989326
64.370 21.93709
64.375 22.654058
64.380 23.392679
64.385 23.576635
64.390 24.151222
64.395 24.558395
64.400 25.334061
64.405 25.436255
64.410 25.265461
64.415 25.041946
64.420 25.522934
64.425 25.63909
64.430 25.383335
64.435 24.830572
64.440 25.071218
64.445 24.453665
64.450 24.163481
64.455 23.927263
64.460 23.994305
64.465 23.816084
64.470 24.159628
64.475 24.688669
64.480 25.161598
64.485 25.254335
64.490 25.439665
64.495 25.705868
64.500 25.489086
64.505 24.636459
64.510 23.520163
64.515 23.012047
64.520 23.285358
64.525 22.705666
64.530 21.911255
64.535 21.448343
64.540 21.89415
64.545 22.135721
64.550 22.616152
64.555 22.425978
64.560 22.679836
64.565 22.926163
64.570 23.332884
64.575 22.91346
64.580 22.704859
64.585 22.106358
64.590 21.969551
64.595 21.303141
64.600 20.686859
64.605 20.361797
64.610 20.865616
64.615 20.729996
64.620 20.206795
64.625 19.409958
64.630 19.543097
64.635 19.446972
64.640 19.021263
64.645 18.274559
64.650 17.997612
64.655 17.990179
64.660 17.90855
64.665 17.548977
64.670 17.552664
64.675 17.679916
64.680 17.988295
64.685 17.81715
64.690 17.249866
64.695 17.148188
64.700 17.455978
64.705 17.304874
64.710 16.689253
64.715 15.74998
64.720 15.641209
64.725 15.73844
64.730 15.569989
64.735 15.065402
64.740 14.609166
64.745 14.212854
64.750 14.59917
64.755 14.214092
64.760 14.133762
64.765 14.231517
64.770 14.374103
64.775 14.599562
64.780 15.402477
64.785 15.051727
64.790 15.115951
64.795 15.138488
64.800 14.7935
64.805 14.437906
64.810 14.433833
64.815 13.372097
64.820 13.186617
64.825 13.325001
64.830 13.347603
64.835 13.254114
64.840 13.132088
64.845 12.927184
64.850 12.740339
64.855 12.725084
64.860 12.277594
64.865 12.224548
64.870 12.218446
64.875 11.900424
64.880 11.506878
64.885 11.327869
64.890 11.06908
64.895 11.355727
64.900 11.479512
64.905 11.382189
64.910 11.456031
64.915 11.605234
64.920 12.380129
64.925 13.054035
64.930 13.007608
64.935 12.568618
64.940 12.671596
64.945 13.094627
64.950 13.305969
64.955 12.838581
64.960 12.343158
64.965 12.492576
64.970 12.716895
64.975 12.543657
64.980 12.262605
64.985 12.039568
64.990 12.186062
64.995 12.51317
65.000 12.52283
65.005 12.613061
65.010 12.780103
65.015 12.987118
65.020 13.956249
65.025 14.396063
65.030 14.779441
65.035 14.908028
65.040 15.115904
65.045 15.703448
65.050 15.911385
65.055 15.086637
65.060 15.199402
65.065 15.142829
65.070 15.276009
65.075 15.354489
65.080 15.230227
65.085 15.414281
65.090 16.254145
65.095 16.28731
65.100 16.142847
65.105 16.182774
65.110 16.223188
65.115 16.212011
65.120 16.028597
65.125 15.361837
65.130 15.958926
65.135 16.409922
65.140 16.258116
65.145 16.782486
65.150 17.642788
65.155 17.949465
65.160 18.225121
65.165 18.04022
65.170 18.099361
65.175 18.442373
65.180 17.947989
65.185 17.201092
65.190 17.116667
65.195 17.03562
65.200 17.204212
65.205 17.042725
65.210 16.643847
65.215 16.390123
65.220 16.719624
65.225 17.115549
65.230 17.401777
65.235 17.4625
65.240 17.859472
65.245 18.764389
65.250 18.937338
65.255 19.033697
65.260 19.314646
65.265 19.557409
65.270 19.716854
65.275 19.856514
65.280 19.410736
65.285 19.500893
65.290 20.082518
65.295 19.905222
65.300 20.113136
65.305 19.495668
65.310 19.326216
65.315 19.812872
65.320 19.741177
65.325 19.541481
65.330 19.671755
65.335 19.534313
65.340 19.791439
65.345 19.713856
65.350 20.084114
65.355 20.464947
65.360 20.176456
65.365 20.186745
65.370 20.195444
65.375 20.742374
65.380 20.716122
65.385 20.045391
65.390 19.607992
65.395 19.370592
65.400 19.194414
65.405 19.146885
65.410 18.690022
65.415 18.514299
65.420 18.523947
65.425 18.356571
65.430 18.392538
65.435 18.697924
65.440 18.913927
65.445 19.334299
65.450 19.256083
65.455 19.359612
65.460 19.746044
65.465 19.857767
65.470 19.195543
65.475 18.248882
65.480 18.246731
65.485 18.495495
65.490 18.566111
65.495 18.233835
65.500 18.156227
65.505 18.350769
65.510 18.705919
65.515 18.837095
65.520 18.814276
65.525 18.783222
65.530 18.634418
65.535 18.975676
65.540 18.967813
65.545 18.86891
65.550 18.598888
65.555 18.155645
65.560 18.292955
65.565 18.668242
65.570 18.071045
65.575 18.026932
65.580 18.837084
65.585 19.003124
65.590 19.044914
65.595 19.326302
65.600 19.65682
65.605 20.257984
65.610 20.20649
65.615 19.532784
65.620 19.822487
65.625 20.32679
65.630 19.752792
65.635 18.9737
65.640 18.273859
65.645 18.205206
65.650 17.79653
65.655 17.12134
65.660 16.572323
65.665 16.582451
65.670 16.690659
65.675 17.064791
65.680 17.219
65.685 17.795908
65.690 17.758455
65.695 17.871897
65.700 18.047157
65.705 18.31801
65.710 18.140707
65.715 18.220955
65.720 17.560667
65.725 18.06921
65.730 17.725882
65.735 17.242184
65.740 17.335066
65.745 17.259533
65.750 17.438217
65.755 17.398712
65.760 17.219461
65.765 17.466599
65.770 17.194735
65.775 16.908749
65.780 16.822201
65.785 16.331989
65.790 16.113792
65.795 15.922676
65.800 15.944929
65.805 15.629418
65.810 15.593783
65.815 15.407566
65.820 14.818307
65.825 14.409761
65.830 14.133832
65.835 13.76875
65.840 14.173428
65.845 13.87515
65.850 13.550074
65.855 14.000141
65.860 14.199321
65.865 14.500833
65.870 14.933069
65.875 14.888039
65.880 15.130456
65.885 15.608315
65.890 16.231773
65.895 16.555531
65.900 16.459414
65.905 16.550159
65.910 16.474058
65.915 16.43387
65.920 16.091743
65.925 15.334678
65.930 14.849063
65.935 15.003838
65.940 14.649435
65.945 14.188331
65.950 13.70698
65.955 13.779944
65.960 14.161461
65.965 14.10525
65.970 14.237683
65.975 14.478643
65.980 14.750234
65.985 15.274594
65.990 15.262592
65.995 14.783104
66.000 14.693693
66.005 14.133124
66.010 13.988353
66.015 13.808556
66.020 13.335224
66.025 12.910093
66.030 12.971247
66.035 12.899032
66.040 12.981544
66.045 12.868432
66.050 13.063881
66.055 13.355069
66.060 13.762728
66.065 13.800172
66.070 13.552073
66.075 13.39898
66.080 13.250478
66.085 12.947827
66.090 12.745531
66.095 12.27984
66.100 12.197786
66.105 12.573243
66.110 12.393249
66.115 11.980753
66.120 11.678747
66.125 11.611442
66.130 11.738853
66.135 11.360055
66.140 11.310153
66.145 11.743333
66.150 12.192586
66.155 12.337725
66.160 12.243219
66.165 12.074854
66.170 12.341633
66.175 12.760299
66.180 12.685089
66.185 12.532741
66.190 12.559182
66.195 12.250136
66.200 12.301752
66.205 12.075512
66.210 11.426165
66.215 11.417684
66.220 11.643541
66.225 11.353766
66.230 11.432115
66.235 11.165595
66.240 11.253988
66.245 11.330187
66.250 11.28676
66.255 11.110022
66.260 11.1355
66.265 11.190486
66.270 10.992258
66.275 11.381275
66.280 11.417079
66.285 11.241505
66.290 11.013165
66.295 11.296159
66.300 11.522826
66.305 10.991487
66.310 10.106771
66.315 9.832549
66.320 10.068286
66.325 10.278901
66.330 9.952639
66.335 9.638649
66.340 10.323219
66.345 10.51861
66.350 10.308047
66.355 9.889626
66.360 10.124089
66.365 10.412626
66.370 10.590383
66.375 10.31883
66.380 10.683434
66.385 11.034991
66.390 11.149248
66.395 10.878954
66.400 10.857948
66.405 11.260635
66.410 12.220882
66.415 11.835705
66.420 11.68567
66.425 12.076055
66.430 12.279452
66.435 12.194414
66.440 12.026582
66.445 11.077902
66.450 11.034111
66.455 11.219257
66.460 10.923869
66.465 10.698339
66.470 10.949842
66.475 10.526797
66.480 11.449689
66.485 11.709546
66.490 11.310173
66.495 11.354246
66.500 11.490347
66.505 11.721652
66.510 11.674425
66.515 10.864514
66.520 10.581034
66.525 10.81242
66.530 10.887994
66.535 10.726139
66.540 10.120417
66.545 10.143051
66.550 10.680571
66.555 10.729443
66.560 10.879933
66.565 11.312304
66.570 11.624457
66.575 11.656038
66.580 12.102836
66.585 11.7181
66.590 11.967749
66.595 12.045815
66.600 11.925804
66.605 11.739968
66.610 12.126152
66.615 11.724328
66.620 11.46932
66.625 11.185505
66.630 11.006102
66.635 10.799817
66.640 10.637155
66.645 10.453176
66.650 10.399832
66.655 10.679514
66.660 10.89958
66.665 10.402108
66.670 10.405805
66.675 10.569663
66.680 10.496929
66.685 10.50196
66.690 10.410548
66.695 9.863379
66.700 9.79493
66.705 9.790564
66.710 9.607809
66.715 9.465277
66.720 9.577895
66.725 10.014235
66.730 10.578755
66.735 10.990575
66.740 10.67247
66.745 10.955993
66.750 11.191154
66.755 10.98126
66.760 10.234796
66.765 9.865512
66.770 9.841319
66.775 10.158804
66.780 10.517624
66.785 10.98916
66.790 11.029126
66.795 11.436948
66.800 11.225877
66.805 11.39286
66.810 11.279894
66.815 10.638262
66.820 10.054063
66.825 10.425945
66.830 10.454165
66.835 10.811066
66.840 10.416625
66.845 10.376831
66.850 10.813345
66.855 11.027597
66.860 10.661613
66.865 10.676476
66.870 10.418813
66.875 10.64945
66.880 10.50563
66.885 10.27826
66.890 9.97615
66.895 10.351645
66.900 10.347973
66.905 10.629623
66.910 10.309009
66.915 10.156651
66.920 10.235802
66.925 10.539266
66.930 10.792057
66.935 10.978292
66.940 11.200416
66.945 11.809173
66.950 12.215973
66.955 12.163404
66.960 11.769494
66.965 11.376827
66.970 11.42979
66.975 11.379195
66.980 11.269148
66.985 10.7437
66.990 10.829926
66.995 11.309303
67.000 11.152146
67.005 10.915208
67.010 10.83809
67.015 10.826162
67.020 11.696671
67.025 11.843967
67.030 11.448315
67.035 11.783341
67.040 11.914531
67.045 12.036977
67.050 12.020819
67.055 11.173851
67.060 11.446351
67.065 11.299437
67.070 10.798198
67.075 10.922807
67.080 10.871887
67.085 10.762031
67.090 10.774137
67.095 10.153662
67.100 10.065973
67.105 10.287029
67.110 9.80273
67.115 9.822078
67.120 10.203506
67.125 10.654815
67.130 11.264582
67.135 12.134367
67.140 12.816584
67.145 12.955825
67.150 12.640026
67.155 12.243467
67.160 11.847642
67.165 11.557638
67.170 10.97708
67.175 10.373183
67.180 10.548507
67.185 10.750442
67.190 10.726995
67.195 10.830955
67.200 10.401278
67.205 10.515509
67.210 10.340084
67.215 10.845523
67.220 11.04564
67.225 11.044058
67.230 11.092036
67.235 11.046112
67.240 11.049936
67.245 10.975536
67.250 10.848383
67.255 11.133957
67.260 11.168571
67.265 11.474922
67.270 12.177563
67.275 11.834407
67.280 11.864414
67.285 11.695719
67.290 11.83246
67.295 11.877575
67.300 11.682158
67.305 10.854506
67.310 10.810237
67.315 10.865548
67.320 10.398576
67.325 10.158861
67.330 9.832442
67.335 9.903796
67.340 10.412175
67.345 10.369884
67.350 10.29949
67.355 10.434065
67.360 10.133122
67.365 9.893197
67.370 9.564666
67.375 9.797671
67.380 10.042836
67.385 9.942005
67.390 9.815001
67.395 10.130512
67.400 10.772452
67.405 11.085856
67.410 10.998186
67.415 11.216926
67.420 11.18467
67.425 11.285789
67.430 11.215854
67.435 11.155981
67.440 11.042315
67.445 11.007844
67.450 10.833702
67.455 10.79126
67.460 10.651552
67.465 10.583621
67.470 10.576562
67.475 10.472039
67.480 10.392254
67.485 10.502052
67.490 10.159354
67.495 10.101258
67.500 10.669868
67.505 10.339908
67.510 10.44686
67.515 10.519248
67.520 10.903502
67.525 12.177198
67.530 12.241655
67.535 11.759483
67.540 11.982477
67.545 11.764374
67.550 11.671319
67.555 11.687783
67.560 11.448548
67.565 11.226398
67.570 11.3194
67.575 11.370994
67.580 11.312407
67.585 11.730439
67.590 11.602175
67.595 10.782425
67.600 10.805854
67.605 11.088861
67.610 11.096003
67.615 11.308421
67.620 10.707744
67.625 10.661986
67.630 10.8216
67.635 11.083525
67.640 10.87866
67.645 10.877208
67.650 10.938501
67.655 11.060698
67.660 11.487519
67.665 11.950064
67.670 11.602705
67.675 11.682518
67.680 11.763852
67.685 11.768563
67.690 11.465124
67.695 11.015385
67.700 10.72117
67.705 10.453993
67.710 9.967229
67.715 9.501982
67.720 9.325919
67.725 9.318484
67.730 9.90132
67.735 10.458428
67.740 11.040322
67.745 11.308944
67.750 11.853469
67.755 11.855729
67.760 11.636828
67.765 10.930715
67.770 10.362617
67.775 10.168084
67.780 9.988256
67.785 10.130199
67.790 10.29749
67.795 10.886976
67.800 11.411218
67.805 11.636935
67.810 11.521915
67.815 11.488538
67.820 11.028214
67.825 11.127001
67.830 11.087759
67.835 11.251903
67.840 11.218235
67.845 11.413949
67.850 11.96943
67.855 12.210121
67.860 11.89227
67.865 11.783308
67.870 11.378325
67.875 11.327463
67.880 10.95673
67.885 10.257862
67.890 10.006332
67.895 10.188704
67.900 10.105477
67.905 10.117039
67.910 10.21662
67.915 10.509545
67.920 10.643172
67.925 10.913183
67.930 10.930816
67.935 10.821157
67.940 10.813887
67.945 10.728426
67.950 11.185137
67.955 11.669413
67.960 12.435957
67.965 12.594735
67.970 12.380016
67.975 12.237433
67.980 12.007172
67.985 11.526083
67.990 10.842488
67.995 10.67
68.000 10.812123
68.005 11.111679
68.010 11.768078
68.015 12.019958
68.020 12.236388
68.025 12.365685
68.030 12.013237
68.035 11.655661
68.040 11.618892
68.045 10.942641
68.050 10.475336
68.055 10.541991
68.060 10.919588
68.065 10.850789
68.070 10.70175
68.075 10.784872
68.080 11.231032
68.085 11.743857
68.090 11.935521
68.095 11.654421
68.100 11.904424
68.105 12.55511
68.110 12.59537
68.115 12.996696
68.120 13.059402
68.125 12.698741
68.130 13.258487
68.135 13.233196
68.140 12.560264
68.145 12.345012
68.150 12.168256
68.155 12.136234
68.160 12.313217
68.165 11.637343
68.170 11.514692
68.175 11.616394
68.180 11.689688
68.185 11.4888
68.190 11.90656
68.195 12.040112
68.200 12.253549
68.205 12.514952
68.210 13.345626
68.215 13.787217
68.220 13.769968
68.225 13.207583
68.230 13.047018
68.235 13.054141
68.240 13.215128
68.245 12.919751
68.250 12.774827
68.255 12.854696
68.260 13.086153
68.265 13.748449
68.270 14.247561
68.275 14.233135
68.280 14.009126
68.285 13.877884
68.290 14.316814
68.295 14.688945
68.300 14.233953
68.305 14.114127
68.310 13.801163
68.315 14.012589
68.320 14.120646
68.325 13.933778
68.330 13.82586
68.335 13.741512
68.340 13.545802
68.345 13.904293
68.350 14.274944
68.355 14.450038
68.360 14.269815
68.365 14.418711
68.370 14.878873
68.375 14.935234
68.380 15.188936
68.385 15.49328
68.390 15.923647
68.395 16.35848
68.400 16.799534
68.405 17.207958
68.410 17.592089
68.415 17.765388
68.420 17.7314
68.425 18.056973
68.430 17.817465
68.435 17.169386
68.440 16.77212
68.445 16.770844
68.450 16.066109
68.455 15.339593
68.460 15.078502
68.465 15.403128
68.470 15.905177
68.475 15.984114
68.480 16.159348
68.485 17.482758
68.490 17.97365
68.495 17.908699
68.500 17.896368
68.505 17.664289
68.510 17.857801
68.515 17.435432
68.520 17.361824
68.525 17.657049
68.530 17.894295
68.535 18.095095
68.540 18.298479
68.545 17.829287
68.550 17.647957
68.555 17.015356
68.560 16.850409
68.565 17.07543
68.570 17.462698
68.575 17.555498
68.580 18.016962
68.585 18.265381
68.590 18.953598
68.595 19.671366
68.600 19.765999
68.605 19.668568
68.610 20.200151
68.615 20.610081
68.620 21.007072
68.625 21.109661
68.630 20.601961
68.635 20.442533
68.640 20.01025
68.645 19.782146
68.650 19.912271
68.655 19.423826
68.660 19.451777
68.665 19.864635
68.670 19.672323
68.675 20.079802
68.680 20.135601
68.685 19.773483
68.690 20.255999
68.695 19.613964
68.700 19.66539
68.705 19.819818
68.710 19.888083
68.715 19.794594
68.720 20.139622
68.725 20.301243
68.730 20.205961
68.735 20.350172
68.740 19.792917
68.745 19.169895
68.750 18.852203
68.755 18.12888
68.760 18.026369
68.765 18.504599
68.770 18.399183
68.775 18.753954
68.780 18.569773
68.785 18.960066
68.790 19.300385
68.795 19.534161
68.800 19.00647
68.805 18.831444
68.810 18.86911
68.815 18.814293
68.820 19.033709
68.825 19.288635
68.830 19.219406
68.835 19.62606
68.840 19.34169
68.845 19.33041
68.850 19.080893
68.855 18.679386
68.860 18.62022
68.865 17.911077
68.870 17.442814
68.875 17.607141
68.880 17.650307
68.885 17.860453
68.890 17.72764
68.895 17.858639
68.900 18.24655
68.905 18.21846
68.910 18.83004
68.915 19.043209
68.920 19.064493
68.925 19.10218
68.930 18.894653
68.935 18.730804
68.940 18.293602
68.945 17.788954
68.950 17.676489
68.955 17.911232
68.960 17.475662
68.965 17.299007
68.970 17.087465
68.975 17.375319
68.980 17.510147
68.985 17.265373
68.990 17.132147
68.995 17.544474
69.000 17.751379
69.005 17.590488
69.010 16.874846
69.015 16.629646
69.020 16.377508
69.025 16.285542
69.030 16.317291
69.035 16.134478
69.040 16.43502
69.045 16.140043
69.050 15.732095
69.055 15.694036
69.060 15.34101
69.065 15.122263
69.070 14.760776
69.075 15.306415
69.080 16.125248
69.085 16.226513
69.090 16.536541
69.095 16.64423
69.100 16.903788
69.105 16.844973
69.110 15.646322
69.115 14.78454
69.120 15.076587
69.125 15.064305
69.130 15.140328
69.135 15.100324
69.140 15.411839
69.145 15.607286
69.150 15.478962
69.155 15.132737
69.160 14.468673
69.165 13.767837
69.170 13.138664
69.175 12.898952
69.180 13.035454
69.185 13.158999
69.190 12.98575
69.195 13.651668
69.200 13.992064
69.205 14.04757
69.210 13.602067
69.215 13.947874
69.220 14.201579
69.225 14.386859
69.230 14.140866
69.235 13.960732
69.240 14.360398
69.245 15.236759
69.250 14.903777
69.255 14.409594
69.260 13.998507
69.265 13.586275
69.270 13.358875
69.275 12.913642
69.280 13.065284
69.285 13.255642
69.290 13.690287
69.295 14.004313
69.300 13.996339
69.305 13.981957
69.310 13.873302
69.315 13.682632
69.320 14.186225
69.325 13.793216
69.330 13.639382
69.335 13.845231
69.340 14.177624
69.345 13.945194
69.350 12.924108
69.355 12.817613
69.360 13.29623
69.365 13.694858
69.370 13.339396
69.375 12.800363
69.380 12.870557
69.385 12.497509
69.390 12.084209
69.395 12.234073
69.400 12.211793
69.405 12.427039
69.410 12.108021
69.415 12.405559
69.420 12.701936
69.425 12.512046
69.430 11.934295
69.435 12.148715
69.440 12.173005
69.445 12.958426
69.450 12.642372
69.455 12.449847
69.460 12.32585
69.465 12.187822
69.470 11.49017
69.475 10.84389
69.480 10.168861
69.485 10.000499
69.490 10.5332
69.495 10.562585
69.500 10.371499
69.505 10.761067
69.510 11.530948
69.515 11.779671
69.520 11.868197
69.525 11.522885
69.530 11.829168
69.535 12.098334
69.540 12.118635
69.545 11.817363
69.550 12.193523
69.555 12.271943
69.560 12.292678
69.565 12.142362
69.570 12.33473
69.575 12.420229
69.580 12.175587
69.585 11.861739
69.590 12.046504
69.595 11.785164
69.600 11.509405
69.605 11.214541
69.610 11.565497
69.615 11.772842
69.620 11.775048
69.625 11.753515
69.630 12.21824
69.635 12.590272
69.640 12.691477
69.645 12.796447
69.650 12.747308
69.655 12.925182
69.660 12.818042
69.665 12.397373
69.670 12.322705
69.675 12.117684
69.680 11.840985
69.685 11.766623
69.690 11.751843
69.695 12.077126
69.700 12.328837
69.705 12.191985
69.710 12.039221
69.715 12.225153
69.720 12.442223
69.725 12.636147
69.730 12.50543
69.735 12.633142
69.740 12.966152
69.745 12.963582
69.750 12.802793
69.755 12.720557
69.760 12.663169
69.765 12.39209
69.770 12.236644
69.775 12.354798
69.780 12.602095
69.785 12.645793
69.790 12.233428
69.795 12.166427
69.800 12.166588
69.805 11.90402
69.810 11.84872
69.815 12.061681
69.820 11.939732
69.825 11.927713
69.830 11.45364
69.835 11.67772
69.840 12.045617
69.845 11.942297
69.850 12.06514
69.855 12.189189
69.860 11.873599
69.865 11.622005
69.870 11.675022
69.875 11.467762
69.880 11.297348
69.885 10.578814
69.890 11.149339
69.895 12.194145
69.900 12.449434
69.905 11.877216
69.910 11.792286
69.915 11.713859
69.920 11.617436
69.925 10.828416
69.930 10.367803
69.935 10.400348
69.940 10.179104
69.945 10.034317
69.950 10.036729
69.955 10.470331
69.960 10.631907
69.965 10.442883
69.970 10.75474
69.975 11.173645
69.980 11.937804
69.985 11.992565
69.990 11.771256
69.995 11.818971
70.000 12.00588
70.005 11.990765
70.010 12.103431
70.015 11.653466
70.020 11.440447
70.025 11.399753
70.030 11.503842
70.035 11.513624
70.040 11.142562
70.045 10.217699
70.050 10.326417
70.055 10.378225
70.060 11.144409
70.065 10.894107
70.070 11.169151
70.075 11.908978
70.080 12.363961
70.085 12.046352
70.090 12.411946
70.095 12.212197
70.100 11.978283
70.105 11.821002
70.110 11.889068
70.115 12.184281
70.120 12.120833
70.125 11.590901
70.130 11.107002
70.135 11.389293
70.140 11.153504
70.145 10.944449
70.150 11.248003
70.155 11.28184
70.160 11.432308
70.165 11.548943
70.170 11.172606
70.175 10.823326
70.180 10.111347
70.185 10.024
70.190 10.252824
70.195 10.560442
70.200 11.002532
70.205 11.843143
70.210 12.150559
70.215 12.225654
70.220 12.296497
70.225 12.108669
70.230 11.626103
70.235 11.147161
70.240 10.487386
70.245 10.457203
70.250 10.651224
70.255 10.419603
70.260 10.307996
70.265 10.176803
70.270 10.363655
70.275 10.806607
70.280 10.399596
70.285 10.46518
70.290 10.366987
70.295 10.519244
70.300 10.557794
70.305 10.474719
70.310 10.516596
70.315 11.395438
70.320 11.566658
70.325 11.875013
70.330 11.750541
70.335 12.322302
70.340 12.440339
70.345 12.589493
70.350 12.350285
70.355 11.906848
70.360 12.095355
70.365 12.433343
70.370 12.211702
70.375 12.363138
70.380 12.242753
70.385 12.655879
70.390 13.050895
70.395 12.662608
70.400 12.213903
70.405 12.28091
70.410 12.017101
70.415 11.755777
70.420 10.867844
70.425 10.474971
70.430 10.79164
70.435 11.220067
70.440 10.915881
70.445 11.079935
70.450 10.997172
70.455 11.548818
70.460 11.560925
70.465 11.456322
70.470 11.160686
70.475 11.359897
70.480 11.25208
70.485 11.63716
70.490 11.781362
70.495 11.654252
70.500 11.624192
70.505 11.866006
70.510 11.384465
70.515 11.058032
70.520 11.178273
70.525 10.920731
70.530 11.151779
70.535 11.05684
70.540 11.162548
70.545 11.821533
70.550 11.767914
70.555 11.535292
70.560 11.784564
70.565 11.492333
70.570 11.426991
70.575 10.982474
70.580 10.696195
70.585 10.823989
70.590 10.831041
70.595 10.947328
70.600 11.375163
70.605 11.800139
70.610 12.383349
70.615 12.867321
70.620 12.880779
70.625 12.728043
70.630 13.087098
70.635 12.471384
70.640 11.878909
70.645 11.686541
70.650 11.613306
70.655 11.679466
70.660 11.32884
70.665 11.143223
70.670 11.334405
70.675 11.330021
70.680 11.379196
70.685 11.349606
70.690 11.404586
70.695 11.524567
70.700 11.274805
70.705 10.832536
70.710 10.955029
70.715 10.417664
70.720 10.302882
70.725 10.722717
70.730 10.492255
70.735 10.900867
70.740 11.570262
70.745 11.520514
70.750 11.879113
70.755 11.947994
70.760 11.785618
70.765 12.517132
70.770 12.24977
70.775 12.407881
70.780 12.307299
70.785 12.812276
70.790 12.821445
70.795 12.635494
70.800 12.097226
70.805 11.71079
70.810 11.93475
70.815 11.904603
70.820 11.330995
70.825 11.220719
70.830 11.047532
70.835 11.360821
70.840 11.387667
70.845 11.235415
70.850 11.42692
70.855 11.230402
70.860 11.239262
70.865 11.383494
70.870 11.372003
70.875 11.359434
70.880 11.212233
70.885 11.132607
70.890 11.331887
70.895 11.188107
70.900 11.412567
70.905 11.365396
70.910 11.067989
70.915 10.459351
70.920 10.614626
70.925 10.939384
70.930 10.967545
70.935 10.993236
70.940 11.170842
70.945 11.89489
70.950 12.221245
70.955 12.307252
70.960 12.262533
70.965 12.39697
70.970 12.535742
70.975 12.64069
70.980 12.438615
70.985 12.653878
70.990 12.523077
70.995 12.096199
71.000 11.901126
71.005 11.46728
71.010 10.716698
71.015 10.389127
71.020 10.415829
71.025 10.210455
71.030 10.278198
71.035 10.694423
71.040 10.944324
71.045 11.905125
71.050 11.890529
71.055 12.025148
71.060 11.742282
71.065 11.775
71.070 11.759315
71.075 11.551344
71.080 11.477571
71.085 11.528909
71.090 11.528484
71.095 11.679475
71.100 11.725945
71.105 11.615816
71.110 11.635146
71.115 11.586582
71.120 11.185921
71.125 11.202017
71.130 11.695556
71.135 12.09164
71.140 12.272754
71.145 12.301218
71.150 12.705141
71.155 13.065924
71.160 12.737976
71.165 12.265382
71.170 11.478945
71.175 11.363116
71.180 11.199091
71.185 11.087784
71.190 11.204165
71.195 11.520652
71.200 11.59388
71.205 11.717965
71.210 11.771457
71.215 11.429492
71.220 11.245756
71.225 11.013059
71.230 11.176003
71.235 11.368746
71.240 11.561969
71.245 11.580881
71.250 11.556558
71.255 11.561238
71.260 11.518107
71.265 11.317487
71.270 11.193368
71.275 11.159597
71.280 10.883642
71.285 10.968184
71.290 11.084018
71.295 11.081057
71.300 10.798743
71.305 11.384176
71.310 11.433414
71.315 11.930554
71.320 11.670856
71.325 11.218836
71.330 11.259778
71.335 11.76413
71.340 11.416994
71.345 11.128693
71.350 10.957506
71.355 11.640819
71.360 12.229345
71.365 11.96343
71.370 11.651829
71.375 12.228617
71.380 12.816849
71.385 12.850716
71.390 12.47554
71.395 12.192139
71.400 12.057327
71.405 11.766457
71.410 11.378887
71.415 11.316759
71.420 11.325473
71.425 11.135037
71.430 11.225099
71.435 11.539878
71.440 11.412136
71.445 10.821695
71.450 10.320362
71.455 10.479845
71.460 11.016331
71.465 11.2966
71.470 11.188135
71.475 11.475924
71.480 11.685754
71.485 11.720711
71.490 11.936092
71.495 11.819757
71.500 11.788601
71.505 11.819774
71.510 12.154736
71.515 13.144266
71.520 13.663279
71.525 13.745257
71.530 13.802571
71.535 14.741927
71.540 15.197968
71.545 14.884932
71.550 14.052354
71.555 14.004692
71.560 13.367814
71.565 13.153195
71.570 12.018912
71.575 11.894188
71.580 11.988699
71.585 11.88946
71.590 11.303082
71.595 11.824676
71.600 11.903782
71.605 12.175896
71.610 12.407951
71.615 12.749626
71.620 13.224107
71.625 13.286281
71.630 12.766951
71.635 12.800599
71.640 12.7775
71.645 11.835541
71.650 10.911814
71.655 10.631404
71.660 10.952394
71.665 10.824271
71.670 10.636595
71.675 11.02211
71.680 11.428408
71.685 11.497835
71.690 11.576728
71.695 11.469577
71.700 11.68082
71.705 11.443584
71.710 11.29689
71.715 11.801545
71.720 11.784484
71.725 11.611913
71.730 11.845031
71.735 12.140205
71.740 11.443739
71.745 11.723226
71.750 11.32675
71.755 11.61718
71.760 11.658673
71.765 11.675489
71.770 11.664251
71.775 12.387832
71.780 12.524158
71.785 12.832622
71.790 13.094883
71.795 13.243009
71.800 12.644556
71.805 12.285898
71.810 11.91259
71.815 11.646217
71.820 11.510576
71.825 11.06351
71.830 10.9609
71.835 11.456224
71.840 11.895481
71.845 12.073531
71.850 11.585465
71.855 11.560631
71.860 11.751275
71.865 11.88524
71.870 11.367017
71.875 11.905137
71.880 11.684634
71.885 12.266972
71.890 12.231436
71.895 12.55024
71.900 12.850301
71.905 13.201734
71.910 12.921894
71.915 12.959846
71.920 12.706783
71.925 12.464641
71.930 12.13668
71.935 12.084096
71.940 11.6466
71.945 11.472191
71.950 11.754543
71.955 11.439501
71.960 11.555765
71.965 11.468884
71.970 11.365713
71.975 11.799765
71.980 11.720929
71.985 11.587098
71.990 11.676423
71.995 11.443158
72.000 11.305171
72.005 11.455109
72.010 11.205557
72.015 11.029703
72.020 11.234521
72.025 11.584027
72.030 11.74437
72.035 11.410136
72.040 11.152685
72.045 11.079978
72.050 10.907329
72.055 10.990911
72.060 11.069042
72.065 11.38935
72.070 11.589114
72.075 11.256663
72.080 11.605234
72.085 11.879267
72.090 11.297806
72.095 11.239429
72.100 11.032862
72.105 11.175736
72.110 11.424051
72.115 10.554476
72.120 10.669053
72.125 10.537734
72.130 10.528634
72.135 10.39982
72.140 10.775723
72.145 10.223394
72.150 10.491632
72.155 10.508479
72.160 10.842397
72.165 10.792689
72.170 10.932713
72.175 10.858892
72.180 10.92157
72.185 10.427569
72.190 10.757906
72.195 11.033184
72.200 11.148399
72.205 11.191955
72.210 11.270188
72.215 11.681911
72.220 11.714161
72.225 11.238827
72.230 10.824104
72.235 10.91574
72.240 11.137938
72.245 11.529837
72.250 12.298913
72.255 12.60343
72.260 12.511056
72.265 12.459915
72.270 12.490171
72.275 12.610647
72.280 12.110447
72.285 11.718431
72.290 11.94596
72.295 12.049706
72.300 12.199597
72.305 11.986513
72.310 11.800462
72.315 12.057999
72.320 11.569976
72.325 11.956838
72.330 11.906029
72.335 12.034439
72.340 12.393513
72.345 12.44865
72.350 12.559489
72.355 12.731669
72.360 12.558719
72.365 12.957053
72.370 12.658239
72.375 12.477297
72.380 12.586382
72.385 12.533668
72.390 11.974248
72.395 11.414141
72.400 11.081805
72.405 10.85936
72.410 11.03172
72.415 10.771912
72.420 10.642394
72.425 10.830109
72.430 10.760381
72.435 10.826912
72.440 10.849964
72.445 10.920932
72.450 11.037393
72.455 11.097731
72.460 11.27971
72.465 12.407351
72.470 12.603086
72.475 12.495131
72.480 12.190331
72.485 11.994887
72.490 12.071816
72.495 11.400023
72.500 10.702636
72.505 10.788829
72.510 11.211465
72.515 11.547906
72.520 12.084699
72.525 12.862576
72.530 12.899472
72.535 12.431606
72.540 12.289721
72.545 11.874156
72.550 11.598341
72.555 11.560798
72.560 11.063452
72.565 11.008744
72.570 11.281416
72.575 11.328536
72.580 11.385678
72.585 11.038878
72.590 10.867967
72.595 11.00284
72.600 11.623756
72.605 11.421445
72.610 11.375261
72.615 11.497328
72.620 11.745447
72.625 11.923687
72.630 11.714494
72.635 11.522657
72.640 11.714472
72.645 11.911905
72.650 12.095582
72.655 11.793348
72.660 11.409758
72.665 11.156054
72.670 10.948007
72.675 10.655584
72.680 10.392454
72.685 10.181758
72.690 10.125912
72.695 10.748646
72.700 11.170218
72.705 11.154645
72.710 10.833107
72.715 11.100849
72.720 11.264916
72.725 11.24797
72.730 11.272203
72.735 10.905254
72.740 11.190217
72.745 11.156819
72.750 11.107897
72.755 10.517068
72.760 10.148701
72.765 9.886467
72.770 9.94867
72.775 9.733497
72.780 9.425843
72.785 9.285633
72.790 9.848006
72.795 10.0425
72.800 10.348941
72.805 10.214994
72.810 10.475519
72.815 11.027827
72.820 11.43363
72.825 11.449727
72.830 11.311605
72.835 11.45028
72.840 11.467857
72.845 11.634413
72.850 11.263661
72.855 10.737494
72.860 10.637522
72.865 10.28905
72.870 10.290774
72.875 10.134705
72.880 10.563663
72.885 10.469891
72.890 10.931475
72.895 11.019832
72.900 11.058867
72.905 10.865647
72.910 11.238254
72.915 11.247709
72.920 11.411435
72.925 11.179914
72.930 11.061571
72.935 11.230325
72.940 11.503889
72.945 11.013108
72.950 11.196205
72.955 10.805609
72.960 10.774309
72.965 11.268351
72.970 11.267751
72.975 11.357182
72.980 11.164584
72.985 10.844333
72.990 11.596871
72.995 12.096241
73.000 11.766493
