!@!!GADDS PLOTSO FILE: Chi integration type
!@!!Title/SampleName: map-55
!@!!Comment: ?
!@!!User: Bruker Instrument Administrator
!@!!Site: University of Illinois Chicago
!@!!Frame: map-55_01_000.gfrm
!@!!Wavelengths    1.54184   1.54056   1.54439
!@!!Frame angles: 2Theta: 63.000 Omega: 50.000 Phi: 0.000 Chi: 90.000
!@!!Integration range: 2Theta: 53.000 to 73.000  Gamma: -105.000 to -75.000
!@!!Integration method: bin normalized
!@!N
!@!SS
!@!M
!@!L 0.0 0.0 0.0 0.0
!@!XDegrees
!@!YCounts
53.000 9.785089
53.005 9.718286
53.010 9.751463
53.015 10.34993
53.020 10.881542
53.025 10.935153
53.030 10.695203
53.035 10.505378
53.040 10.695757
53.045 10.513795
53.050 9.834817
53.055 9.765866
53.060 9.666955
53.065 9.686067
53.070 9.467988
53.075 9.650742
53.080 9.693525
53.085 9.401436
53.090 8.953743
53.095 8.659052
53.100 8.940693
53.105 8.868984
53.110 8.621568
53.115 9.467873
53.120 10.134298
53.125 10.163032
53.130 10.223292
53.135 10.129858
53.140 10.186404
53.145 10.006541
53.150 9.363763
53.155 9.007846
53.160 8.943233
53.165 9.163689
53.170 9.44167
53.175 9.498819
53.180 9.378466
53.185 9.300638
53.190 9.44894
53.195 9.387581
53.200 9.234191
53.205 9.198476
53.210 9.08515
53.215 9.002453
53.220 9.598852
53.225 9.961557
53.230 9.940697
53.235 10.06415
53.240 9.95682
53.245 9.93075
53.250 10.012815
53.255 9.979528
53.260 9.868495
53.265 10.17084
53.270 10.27298
53.275 10.251071
53.280 10.625863
53.285 10.401738
53.290 10.178601
53.295 10.367997
53.300 10.271192
53.305 10.054853
53.310 10.27824
53.315 10.154494
53.320 10.417022
53.325 10.329018
53.330 9.931069
53.335 9.646656
53.340 9.857146
53.345 9.949618
53.350 9.843
53.355 9.976169
53.360 9.782704
53.365 9.961441
53.370 10.212716
53.375 9.841618
53.380 9.403825
53.385 9.016184
53.390 9.068527
53.395 9.818424
53.400 10.118431
53.405 9.939151
53.410 10.252411
53.415 10.612711
53.420 9.973425
53.425 9.49116
53.430 8.800171
53.435 9.154666
53.440 9.759742
53.445 9.698815
53.450 9.895897
53.455 10.879385
53.460 11.449609
53.465 11.413505
53.470 10.887903
53.475 10.565169
53.480 10.734366
53.485 10.80225
53.490 10.787364
53.495 10.729972
53.500 10.437867
53.505 10.591795
53.510 10.925899
53.515 11.170877
53.520 11.022121
53.525 10.709805
53.530 10.839472
53.535 11.0581
53.540 10.816813
53.545 10.389292
53.550 10.962286
53.555 10.737712
53.560 10.409711
53.565 10.606522
53.570 10.741743
53.575 10.930325
53.580 10.797591
53.585 10.4504
53.590 10.873808
53.595 11.195491
53.600 10.882236
53.605 10.660952
53.610 10.261436
53.615 9.912187
53.620 9.667796
53.625 9.483873
53.630 8.900083
53.635 9.077972
53.640 9.02062
53.645 9.208677
53.650 9.396161
53.655 9.63806
53.660 10.056022
53.665 10.206116
53.670 10.040298
53.675 10.151984
53.680 10.0478
53.685 9.555596
53.690 9.360236
53.695 9.199537
53.700 9.208274
53.705 9.716643
53.710 9.787855
53.715 10.479664
53.720 10.958735
53.725 10.892279
53.730 11.062075
53.735 11.31192
53.740 11.134149
53.745 11.166164
53.750 10.576581
53.755 10.44476
53.760 10.629272
53.765 10.381713
53.770 10.019838
53.775 10.230373
53.780 10.319389
53.785 10.745886
53.790 10.790132
53.795 10.828968
53.800 11.273871
53.805 11.270123
53.810 10.934535
53.815 10.432495
53.820 10.07196
53.825 10.050756
53.830 10.02221
53.835 9.974326
53.840 10.25379
53.845 10.647258
53.850 11.018155
53.855 11.026194
53.860 10.769053
53.865 10.388266
53.870 10.610085
53.875 10.564117
53.880 10.712648
53.885 10.889973
53.890 10.843233
53.895 11.353441
53.900 11.45089
53.905 11.353457
53.910 11.558233
53.915 11.313348
53.920 11.172379
53.925 10.813249
53.930 10.452496
53.935 10.180906
53.940 9.690343
53.945 9.254752
53.950 9.526772
53.955 9.568671
53.960 10.010454
53.965 10.334963
53.970 10.165502
53.975 10.356775
53.980 10.19468
53.985 10.047548
53.990 10.14118
53.995 10.07065
54.000 10.063658
54.005 9.956087
54.010 10.100802
54.015 10.316195
54.020 10.008281
54.025 9.643397
54.030 9.600998
54.035 9.724938
54.040 9.906596
54.045 9.804721
54.050 9.864747
54.055 10.186728
54.060 10.21976
54.065 10.006856
54.070 10.321693
54.075 10.516896
54.080 10.708161
54.085 10.738603
54.090 10.985526
54.095 10.93313
54.100 10.41392
54.105 9.937437
54.110 9.920797
54.115 9.443358
54.120 9.172134
54.125 9.229857
54.130 10.266172
54.135 11.278436
54.140 11.659493
54.145 11.743708
54.150 11.963189
54.155 12.475112
54.160 12.58947
54.165 12.144228
54.170 11.626893
54.175 11.361433
54.180 11.302192
54.185 10.865303
54.190 10.625174
54.195 10.516371
54.200 10.718177
54.205 11.110807
54.210 11.12707
54.215 11.218497
54.220 11.478096
54.225 11.304044
54.230 11.32682
54.235 10.558337
54.240 10.037367
54.245 9.818101
54.250 9.355869
54.255 9.314371
54.260 9.591245
54.265 9.672822
54.270 10.452522
54.275 10.893115
54.280 11.308084
54.285 11.759414
54.290 11.598506
54.295 11.019949
54.300 10.797666
54.305 10.474856
54.310 10.593061
54.315 10.598876
54.320 10.644841
54.325 10.885044
54.330 11.245356
54.335 11.860147
54.340 12.766623
54.345 13.110674
54.350 13.189415
54.355 13.231062
54.360 13.052879
54.365 12.862686
54.370 12.324131
54.375 11.709491
54.380 11.129418
54.385 10.797884
54.390 10.611491
54.395 10.515601
54.400 10.280584
54.405 9.910434
54.410 9.8544
54.415 9.549978
54.420 9.102861
54.425 9.183292
54.430 9.779025
54.435 9.810499
54.440 9.694449
54.445 9.813079
54.450 10.376549
54.455 10.870328
54.460 10.519385
54.465 9.920017
54.470 9.930951
54.475 9.745585
54.480 10.250956
54.485 9.980502
54.490 9.796099
54.495 9.853209
54.500 9.819296
54.505 10.088116
54.510 10.199718
54.515 10.092899
54.520 10.3845
54.525 10.48068
54.530 10.980035
54.535 11.162327
54.540 10.971846
54.545 10.910894
54.550 11.17362
54.555 11.000727
54.560 11.107185
54.565 10.964207
54.570 11.18424
54.575 11.590135
54.580 10.872208
54.585 10.792248
54.590 10.902536
54.595 11.193713
54.600 11.342301
54.605 10.712773
54.610 10.656943
54.615 10.965969
54.620 11.1246
54.625 11.266175
54.630 11.025272
54.635 10.987293
54.640 11.620099
54.645 11.948952
54.650 12.115946
54.655 11.70079
54.660 11.480549
54.665 11.384647
54.670 11.197317
54.675 10.540048
54.680 10.277558
54.685 10.354636
54.690 10.563975
54.695 10.573245
54.700 10.700928
54.705 11.430783
54.710 11.444207
54.715 11.63403
54.720 11.568047
54.725 11.685345
54.730 11.677259
54.735 11.51091
54.740 11.136709
54.745 11.090031
54.750 11.00581
54.755 10.677522
54.760 10.70774
54.765 10.362246
54.770 10.200408
54.775 10.467295
54.780 10.222236
54.785 10.128385
54.790 10.467075
54.795 10.774298
54.800 11.096079
54.805 11.310367
54.810 11.394066
54.815 11.537672
54.820 11.369621
54.825 11.120262
54.830 11.105212
54.835 11.260198
54.840 11.286007
54.845 11.452639
54.850 11.974331
54.855 12.182723
54.860 12.265824
54.865 12.12065
54.870 11.925103
54.875 11.756517
54.880 11.638251
54.885 11.148129
54.890 10.918568
54.895 11.097113
54.900 10.919842
54.905 10.924209
54.910 11.207422
54.915 11.811146
54.920 12.090819
54.925 12.639413
54.930 12.296854
54.935 11.966605
54.940 11.999574
54.945 11.406164
54.950 11.220621
54.955 11.03207
54.960 10.325644
54.965 10.507165
54.970 10.908724
54.975 11.14104
54.980 11.028685
54.985 10.663073
54.990 10.751562
54.995 10.793032
55.000 10.225231
55.005 9.848292
55.010 10.173775
55.015 10.296828
55.020 10.173777
55.025 10.491025
55.030 10.702669
55.035 11.314386
55.040 11.360958
55.045 11.06491
55.050 10.787167
55.055 10.777814
55.060 11.004825
55.065 11.087027
55.070 11.098684
55.075 11.154048
55.080 11.403179
55.085 12.206915
55.090 12.244638
55.095 11.992973
55.100 11.925531
55.105 11.849039
55.110 11.850623
55.115 11.843283
55.120 11.738219
55.125 11.890285
55.130 12.345184
55.135 12.271796
55.140 12.017035
55.145 11.722569
55.150 11.46312
55.155 11.146033
55.160 10.910085
55.165 10.778034
55.170 11.124146
55.175 11.422219
55.180 11.579896
55.185 11.450077
55.190 11.035872
55.195 11.085816
55.200 10.865149
55.205 11.07047
55.210 11.644397
55.215 11.716555
55.220 11.595094
55.225 12.376075
55.230 12.446305
55.235 12.768141
55.240 12.346728
55.245 12.117476
55.250 12.505418
55.255 12.595775
55.260 11.959179
55.265 11.562263
55.270 11.026441
55.275 10.664692
55.280 10.450964
55.285 10.362631
55.290 10.62069
55.295 11.03279
55.300 11.484821
55.305 11.721648
55.310 11.804131
55.315 11.511363
55.320 11.814158
55.325 11.686617
55.330 11.572406
55.335 11.305559
55.340 11.477255
55.345 12.154745
55.350 12.296313
55.355 12.54315
55.360 13.110544
55.365 13.352679
55.370 13.67428
55.375 13.750689
55.380 13.208094
55.385 12.975049
55.390 13.066232
55.395 12.71839
55.400 12.515863
55.405 12.38243
55.410 12.289719
55.415 12.748361
55.420 12.826363
55.425 12.936803
55.430 13.244986
55.435 13.262905
55.440 13.639235
55.445 14.009271
55.450 13.855186
55.455 13.861403
55.460 13.490226
55.465 13.397201
55.470 13.472335
55.475 13.076998
55.480 12.337817
55.485 11.873981
55.490 11.47816
55.495 11.468504
55.500 11.52889
55.505 11.361024
55.510 11.648152
55.515 11.716743
55.520 11.802875
55.525 12.322153
55.530 12.382362
55.535 12.613547
55.540 12.811295
55.545 12.985415
55.550 13.405888
55.555 14.001885
55.560 13.845608
55.565 13.601218
55.570 13.481914
55.575 13.079812
55.580 13.115989
55.585 12.914454
55.590 12.493798
55.595 12.639099
55.600 11.958088
55.605 11.756409
55.610 11.588808
55.615 11.424682
55.620 11.539577
55.625 11.308509
55.630 11.078506
55.635 11.16126
55.640 11.916886
55.645 12.269277
55.650 12.028868
55.655 11.75707
55.660 11.347143
55.665 11.546129
55.670 11.44304
55.675 10.681601
55.680 10.722221
55.685 11.012774
55.690 11.46609
55.695 11.850028
55.700 11.877179
55.705 12.357038
55.710 12.847336
55.715 12.99751
55.720 12.814247
55.725 12.850851
55.730 13.243131
55.735 13.170728
55.740 12.633175
55.745 11.859729
55.750 11.991878
55.755 11.87903
55.760 11.56518
55.765 11.296363
55.770 11.646355
55.775 11.712795
55.780 11.471072
55.785 11.31668
55.790 11.573322
55.795 11.67243
55.800 11.625965
55.805 11.455313
55.810 12.101117
55.815 12.647325
55.820 12.864925
55.825 12.999726
55.830 12.908416
55.835 13.128267
55.840 13.523616
55.845 13.45592
55.850 13.272627
55.855 12.642942
55.860 12.34513
55.865 12.170245
55.870 11.934306
55.875 11.447184
55.880 10.913388
55.885 11.299676
55.890 11.671198
55.895 11.904274
55.900 11.51567
55.905 11.103006
55.910 11.482044
55.915 11.628206
55.920 11.182552
55.925 11.043616
55.930 11.273465
55.935 11.937372
55.940 11.926917
55.945 11.875682
55.950 12.129005
55.955 11.612527
55.960 11.52197
55.965 11.451815
55.970 11.27739
55.975 10.898171
55.980 10.344036
55.985 10.309535
55.990 10.466575
55.995 10.817637
56.000 11.271253
56.005 11.240638
56.010 11.672469
56.015 11.934619
56.020 12.37202
56.025 13.059474
56.030 12.544641
56.035 11.942311
56.040 11.993518
56.045 12.131133
56.050 11.951513
56.055 11.605942
56.060 11.398204
56.065 11.578068
56.070 11.828523
56.075 11.834323
56.080 11.658887
56.085 11.669325
56.090 11.739879
56.095 11.903044
56.100 11.535275
56.105 11.615187
56.110 11.983191
56.115 12.818574
56.120 12.95295
56.125 13.009664
56.130 13.388296
56.135 13.556478
56.140 13.607872
56.145 13.051203
56.150 12.405225
56.155 12.084218
56.160 11.644674
56.165 11.374722
56.170 11.458493
56.175 11.08597
56.180 11.073574
56.185 11.232594
56.190 11.492955
56.195 11.344333
56.200 11.145337
56.205 10.98859
56.210 11.450235
56.215 12.005951
56.220 12.117329
56.225 12.058945
56.230 12.430618
56.235 12.801888
56.240 13.156539
56.245 13.027894
56.250 12.852235
56.255 12.614884
56.260 12.439349
56.265 12.471643
56.270 12.485987
56.275 12.805382
56.280 12.847046
56.285 12.859231
56.290 13.08572
56.295 13.587256
56.300 13.768716
56.305 13.187664
56.310 13.065165
56.315 13.220702
56.320 13.380137
56.325 13.071821
56.330 12.553234
56.335 12.169899
56.340 12.488315
56.345 12.366061
56.350 11.974214
56.355 12.328092
56.360 12.694883
56.365 12.988376
56.370 12.835948
56.375 12.802577
56.380 13.080953
56.385 12.928102
56.390 12.200743
56.395 12.002925
56.400 11.904728
56.405 12.01101
56.410 11.468928
56.415 10.985557
56.420 11.190497
56.425 11.564196
56.430 11.63368
56.435 12.051057
56.440 12.829261
56.445 13.007935
56.450 13.398334
56.455 13.604864
56.460 13.419899
56.465 13.043327
56.470 12.085062
56.475 11.721314
56.480 11.512423
56.485 11.48899
56.490 11.633869
56.495 12.20865
56.500 11.927002
56.505 12.11105
56.510 12.188437
56.515 12.306769
56.520 12.44143
56.525 12.445347
56.530 12.776223
56.535 13.053548
56.540 13.177971
56.545 13.696755
56.550 14.345119
56.555 14.163799
56.560 14.146963
56.565 14.131329
56.570 14.780875
56.575 14.869627
56.580 14.938523
56.585 14.819943
56.590 14.532807
56.595 14.394524
56.600 13.898923
56.605 13.860892
56.610 14.351537
56.615 14.084595
56.620 13.889084
56.625 14.591873
56.630 14.297896
56.635 14.211859
56.640 14.173918
56.645 13.798716
56.650 13.612244
56.655 13.140751
56.660 12.293018
56.665 12.184448
56.670 12.532989
56.675 12.271149
56.680 12.437806
56.685 12.301165
56.690 12.587979
56.695 12.931847
56.700 13.163469
56.705 12.918245
56.710 12.767976
56.715 12.409616
56.720 12.754782
56.725 12.727049
56.730 12.896262
56.735 13.235319
56.740 13.483843
56.745 13.291709
56.750 13.59899
56.755 13.576315
56.760 13.218963
56.765 13.187053
56.770 13.455998
56.775 13.47561
56.780 13.359778
56.785 12.86228
56.790 13.004607
56.795 13.307306
56.800 13.228268
56.805 13.110796
56.810 13.263161
56.815 13.584311
56.820 13.721676
56.825 14.006115
56.830 14.147426
56.835 14.227459
56.840 14.665761
56.845 14.549035
56.850 14.500851
56.855 14.746964
56.860 14.683148
56.865 14.906671
56.870 14.965819
56.875 14.611279
56.880 14.690291
56.885 14.334262
56.890 14.046549
56.895 14.056276
56.900 14.131623
56.905 13.729211
56.910 13.483909
56.915 13.782037
56.920 14.385768
56.925 14.597227
56.930 14.282787
56.935 14.028255
56.940 13.741585
56.945 13.677986
56.950 13.49919
56.955 13.656636
56.960 13.846962
56.965 13.937971
56.970 13.954624
56.975 14.440425
56.980 14.241944
56.985 14.057349
56.990 13.345521
56.995 12.993449
57.000 12.992417
57.005 13.179648
57.010 13.26098
57.015 13.151687
57.020 13.632934
57.025 13.971068
57.030 14.571583
57.035 15.003704
57.040 14.626137
57.045 14.628546
57.050 14.57994
57.055 14.258829
57.060 14.447986
57.065 14.081473
57.070 13.868806
57.075 14.218433
57.080 14.203938
57.085 14.206816
57.090 14.609966
57.095 14.262757
57.100 13.963759
57.105 14.117431
57.110 14.083095
57.115 14.225923
57.120 14.303277
57.125 13.590319
57.130 13.530242
57.135 13.713127
57.140 13.879004
57.145 14.048724
57.150 13.701741
57.155 13.510136
57.160 13.34546
57.165 13.605082
57.170 13.808648
57.175 13.558414
57.180 13.491091
57.185 13.625913
57.190 14.092492
57.195 14.122991
57.200 13.873503
57.205 13.728501
57.210 13.626911
57.215 13.87428
57.220 14.063363
57.225 14.193361
57.230 14.242744
57.235 13.863406
57.240 13.706408
57.245 13.511501
57.250 13.330511
57.255 12.933016
57.260 12.48858
57.265 12.497305
57.270 12.931802
57.275 12.698409
57.280 12.284432
57.285 12.74299
57.290 13.271811
57.295 14.027761
57.300 14.523447
57.305 14.660331
57.310 14.534528
57.315 15.253131
57.320 15.097117
57.325 14.895584
57.330 14.798392
57.335 14.989197
57.340 15.15669
57.345 16.375315
57.350 16.831318
57.355 16.316072
57.360 16.388678
57.365 16.575619
57.370 16.344578
57.375 16.230577
57.380 15.761875
57.385 15.358829
57.390 15.828375
57.395 15.490702
57.400 15.062416
57.405 15.138616
57.410 14.739989
57.415 14.502897
57.420 14.512424
57.425 14.400338
57.430 14.758093
57.435 14.915306
57.440 14.797804
57.445 15.05073
57.450 14.660695
57.455 14.94222
57.460 14.618336
57.465 14.347095
57.470 14.188637
57.475 13.958067
57.480 14.578947
57.485 14.976618
57.490 14.672147
57.495 14.541948
57.500 14.608081
57.505 14.809811
57.510 14.638541
57.515 13.899677
57.520 13.451544
57.525 13.434274
57.530 13.619328
57.535 14.029265
57.540 14.310987
57.545 14.580391
57.550 14.619902
57.555 14.927309
57.560 15.54389
57.565 16.079517
57.570 16.134768
57.575 16.049282
57.580 16.214045
57.585 16.310572
57.590 16.245199
57.595 15.536806
57.600 15.21343
57.605 14.96057
57.610 15.434961
57.615 15.587678
57.620 15.838879
57.625 16.093845
57.630 15.756137
57.635 15.147398
57.640 14.962745
57.645 14.771193
57.650 14.420022
57.655 14.320133
57.660 14.023043
57.665 14.822443
57.670 15.051135
57.675 14.779632
57.680 14.31595
57.685 14.168059
57.690 14.020552
57.695 14.104254
57.700 13.95944
57.705 14.409415
57.710 14.510077
57.715 14.329317
57.720 14.238488
57.725 13.920468
57.730 13.708432
57.735 13.725516
57.740 13.976223
57.745 14.296805
57.750 14.62917
57.755 15.297895
57.760 16.102694
57.765 16.333298
57.770 15.671338
57.775 15.05026
57.780 15.330263
57.785 15.242573
57.790 14.770207
57.795 14.331999
57.800 14.015349
57.805 14.034323
57.810 13.975244
57.815 14.020227
57.820 14.092486
57.825 13.863132
57.830 13.855252
57.835 13.885791
57.840 14.381954
57.845 14.334689
57.850 13.989868
57.855 13.80687
57.860 14.09286
57.865 14.175961
57.870 14.191009
57.875 14.217974
57.880 14.432984
57.885 14.415746
57.890 14.47567
57.895 14.448555
57.900 14.643241
57.905 14.394634
57.910 13.662426
57.915 14.240764
57.920 14.55372
57.925 14.747667
57.930 14.998112
57.935 14.92937
57.940 15.492769
57.945 15.837608
57.950 15.467855
57.955 15.353911
57.960 15.478216
57.965 15.232598
57.970 15.277849
57.975 15.736849
57.980 15.934747
57.985 16.1059
57.990 16.315304
57.995 16.07202
58.000 15.919715
58.005 15.189034
58.010 14.790354
58.015 14.853858
58.020 14.608006
58.025 14.657369
58.030 14.825499
58.035 15.443338
58.040 16.407108
58.045 16.257593
58.050 15.923836
58.055 15.77899
58.060 15.700382
58.065 15.465769
58.070 15.204102
58.075 14.839626
58.080 14.994848
58.085 15.071205
58.090 15.046237
58.095 15.110054
58.100 15.126944
58.105 14.973801
58.110 15.599093
58.115 15.469112
58.120 16.022699
58.125 15.33237
58.130 15.173128
58.135 15.819981
58.140 15.946446
58.145 15.756382
58.150 15.769318
58.155 15.448052
58.160 15.781096
58.165 16.164391
58.170 15.759123
58.175 15.76797
58.180 16.021297
58.185 16.044926
58.190 15.834186
58.195 16.108267
58.200 15.82332
58.205 15.934511
58.210 15.959725
58.215 15.594035
58.220 15.662831
58.225 15.946997
58.230 15.894547
58.235 16.030823
58.240 15.731841
58.245 15.362952
58.250 15.163609
58.255 14.982857
58.260 14.905857
58.265 14.795588
58.270 14.539148
58.275 14.836414
58.280 14.527184
58.285 14.533959
58.290 14.46428
58.295 14.791293
58.300 14.824095
58.305 14.999889
58.310 15.095489
58.315 15.779832
58.320 16.170523
58.325 16.439882
58.330 16.094431
58.335 16.01086
58.340 16.502157
58.345 16.229731
58.350 15.897927
58.355 15.946471
58.360 16.225075
58.365 16.774973
58.370 16.83633
58.375 16.623201
58.380 16.88302
58.385 16.649044
58.390 16.174618
58.395 15.762157
58.400 15.261543
58.405 14.850526
58.410 14.485482
58.415 14.199496
58.420 14.315676
58.425 14.747117
58.430 14.998876
58.435 14.819285
58.440 15.09635
58.445 15.449471
58.450 15.753518
58.455 16.085667
58.460 15.83019
58.465 15.897835
58.470 16.222836
58.475 16.279898
58.480 15.74466
58.485 15.357958
58.490 14.718707
58.495 15.318477
58.500 15.414675
58.505 15.758793
58.510 15.841719
58.515 16.318453
58.520 16.513687
58.525 17.497526
58.530 16.794476
58.535 16.88125
58.540 16.98444
58.545 16.844767
58.550 16.831982
58.555 16.720377
58.560 16.515856
58.565 16.358255
58.570 16.263578
58.575 16.236197
58.580 16.19243
58.585 16.193775
58.590 15.985286
58.595 15.702472
58.600 15.789465
58.605 15.174665
58.610 14.752841
58.615 14.519682
58.620 14.66825
58.625 14.815306
58.630 14.55953
58.635 14.705098
58.640 15.235999
58.645 15.171986
58.650 15.485778
58.655 15.885872
58.660 16.529572
58.665 16.655121
58.670 16.013134
58.675 16.121927
58.680 16.744492
58.685 16.814222
58.690 16.169661
58.695 15.867928
58.700 15.90589
58.705 16.028837
58.710 15.362813
58.715 14.961152
58.720 14.658422
58.725 14.902927
58.730 14.988835
58.735 15.298155
58.740 15.785786
58.745 16.057741
58.750 16.286844
58.755 16.520893
58.760 16.671103
58.765 16.711794
58.770 17.101175
58.775 17.067585
58.780 17.234375
58.785 17.408735
58.790 17.390457
58.795 16.857103
58.800 16.639507
58.805 16.619726
58.810 16.331038
58.815 16.331072
58.820 16.321087
58.825 16.612059
58.830 17.145857
58.835 16.724863
58.840 16.1019
58.845 16.024231
58.850 15.670155
58.855 15.728248
58.860 15.581086
58.865 15.488971
58.870 15.795444
58.875 17.063955
58.880 17.314106
58.885 17.488663
58.890 17.150007
58.895 17.625395
58.900 17.867382
58.905 18.048712
58.910 17.56951
58.915 17.747776
58.920 17.425335
58.925 17.504904
58.930 17.074699
58.935 17.377579
58.940 17.343552
58.945 17.152206
58.950 17.752996
58.955 17.953068
58.960 17.493519
58.965 16.849669
58.970 16.3118
58.975 16.100948
58.980 16.24786
58.985 15.75489
58.990 15.661036
58.995 15.949486
59.000 15.955359
59.005 15.882358
59.010 16.040565
59.015 15.242075
59.020 15.231711
59.025 15.295569
59.030 15.131641
59.035 15.232091
59.040 14.829775
59.045 14.957236
59.050 15.033519
59.055 15.113131
59.060 15.065653
59.065 14.968073
59.070 15.127707
59.075 15.864456
59.080 16.271101
59.085 17.235626
59.090 17.656767
59.095 17.940187
59.100 18.30574
59.105 18.272781
59.110 17.888056
59.115 17.46521
59.120 16.992981
59.125 17.387169
59.130 17.666862
59.135 17.83462
59.140 17.904551
59.145 17.700844
59.150 17.813021
59.155 17.945826
59.160 17.349285
59.165 17.340876
59.170 17.350695
59.175 17.875725
59.180 18.380884
59.185 18.464769
59.190 18.476828
59.195 18.352531
59.200 18.215065
59.205 18.079102
59.210 17.720316
59.215 16.920374
59.220 16.025497
59.225 15.852329
59.230 15.757273
59.235 15.798054
59.240 15.64511
59.245 15.159502
59.250 15.433966
59.255 15.540067
59.260 15.250373
59.265 15.106903
59.270 15.170825
59.275 15.472216
59.280 15.918568
59.285 16.057041
59.290 17.021175
59.295 16.976728
59.300 17.445663
59.305 17.021633
59.310 16.390497
59.315 15.836517
59.320 15.912217
59.325 15.378395
59.330 15.465689
59.335 15.324766
59.340 15.762794
59.345 16.491081
59.350 16.687727
59.355 16.968416
59.360 17.393774
59.365 17.645309
59.370 17.539469
59.375 17.366919
59.380 17.470018
59.385 17.503668
59.390 17.199823
59.395 16.573275
59.400 16.078829
59.405 15.967368
59.410 15.974248
59.415 15.307912
59.420 15.142959
59.425 15.193369
59.430 15.838573
59.435 16.010353
59.440 16.464476
59.445 16.788027
59.450 17.379969
59.455 17.38682
59.460 17.656576
59.465 17.738291
59.470 17.727758
59.475 17.202469
59.480 17.487602
59.485 17.379408
59.490 17.612057
59.495 17.69224
59.500 17.066927
59.505 17.058086
59.510 16.988569
59.515 16.378996
59.520 16.550686
59.525 16.401976
59.530 15.606842
59.535 15.703714
59.540 15.843798
59.545 16.621359
59.550 16.804579
59.555 16.586971
59.560 16.929214
59.565 17.732395
59.570 18.044731
59.575 18.040203
59.580 17.479795
59.585 17.877167
59.590 18.188799
59.595 18.095139
59.600 17.820711
59.605 18.066626
59.610 17.931601
59.615 18.09301
59.620 17.970984
59.625 17.795927
59.630 17.623585
59.635 17.743685
59.640 17.850485
59.645 18.220695
59.650 18.092234
59.655 18.116564
59.660 18.06101
59.665 18.305473
59.670 18.26902
59.675 18.153996
59.680 17.949379
59.685 17.838383
59.690 17.832125
59.695 17.379499
59.700 17.183813
59.705 17.139286
59.710 17.283897
59.715 17.442892
59.720 17.447592
59.725 17.189768
59.730 17.619173
59.735 18.532009
59.740 19.007431
59.745 18.39257
59.750 18.692776
59.755 18.937643
59.760 18.900217
59.765 19.144379
59.770 18.515511
59.775 18.499472
59.780 19.189476
59.785 18.74214
59.790 18.982071
59.795 19.529579
59.800 19.509706
59.805 19.343561
59.810 19.116842
59.815 19.419191
59.820 19.271809
59.825 18.789015
59.830 18.369854
59.835 17.950516
59.840 17.777317
59.845 17.943272
59.850 17.608912
59.855 17.934271
59.860 18.245792
59.865 17.99719
59.870 18.181063
59.875 18.427778
59.880 18.195719
59.885 18.680393
59.890 19.44029
59.895 19.748116
59.900 19.970556
59.905 19.823921
59.910 20.732428
59.915 21.710934
59.920 21.837645
59.925 21.881662
59.930 22.220385
59.935 22.589197
59.940 22.472675
59.945 21.256758
59.950 20.617785
59.955 19.924932
59.960 19.280741
59.965 18.938282
59.970 19.572214
59.975 19.885975
59.980 20.739624
59.985 20.733612
59.990 20.943577
59.995 21.446733
60.000 21.483803
60.005 21.367188
60.010 22.166708
60.015 22.542992
60.020 22.303724
60.025 22.387102
60.030 22.35672
60.035 22.905502
60.040 23.131559
60.045 23.101074
60.050 22.832905
60.055 23.205322
60.060 23.477406
60.065 23.988773
60.070 23.665768
60.075 23.09436
60.080 22.921539
60.085 23.130283
60.090 22.894831
60.095 22.325039
60.100 21.584324
60.105 21.27836
60.110 21.372902
60.115 20.950516
60.120 21.017689
60.125 21.541014
60.130 21.917311
60.135 22.048485
60.140 22.043056
60.145 21.794769
60.150 21.658613
60.155 21.316839
60.160 20.735477
60.165 20.158928
60.170 19.968258
60.175 20.140335
60.180 20.506098
60.185 20.177534
60.190 19.564537
60.195 19.921843
60.200 19.989796
60.205 20.286514
60.210 20.157211
60.215 19.89287
60.220 20.298536
60.225 21.029182
60.230 21.507832
60.235 21.566113
60.240 21.059587
60.245 20.696711
60.250 20.958176
60.255 20.623407
60.260 20.478249
60.265 20.032639
60.270 20.263901
60.275 20.55407
60.280 21.017094
60.285 21.254225
60.290 21.397963
60.295 21.379356
60.300 21.450188
60.305 21.995216
60.310 22.018248
60.315 21.995953
60.320 21.679356
60.325 21.764893
60.330 21.719009
60.335 21.679214
60.340 21.558918
60.345 21.66317
60.350 21.390646
60.355 21.484161
60.360 21.494816
60.365 21.657764
60.370 21.449291
60.375 20.87718
60.380 20.862417
60.385 20.802904
60.390 20.893459
60.395 21.395105
60.400 21.131638
60.405 20.992416
60.410 21.065008
60.415 20.827822
60.420 20.767889
60.425 20.726868
60.430 20.82003
60.435 21.630629
60.440 21.760611
60.445 22.176813
60.450 22.599943
60.455 22.960911
60.460 23.806585
60.465 23.912647
60.470 24.067411
60.475 24.052547
60.480 23.67259
60.485 23.867498
60.490 24.045494
60.495 23.72994
60.500 23.749407
60.505 23.147894
60.510 22.854847
60.515 22.757927
60.520 22.275688
60.525 21.503632
60.530 20.748838
60.535 20.241518
60.540 20.366262
60.545 20.578114
60.550 20.977564
60.555 21.172253
60.560 21.045483
60.565 21.217175
60.570 21.130098
60.575 21.175314
60.580 21.160707
60.585 21.491268
60.590 21.603363
60.595 21.79915
60.600 22.148035
60.605 22.169739
60.610 22.235954
60.615 22.416647
60.620 21.763193
60.625 21.749445
60.630 21.928522
60.635 21.49659
60.640 20.919226
60.645 20.551598
60.650 20.157228
60.655 20.391031
60.660 20.396944
60.665 20.210632
60.670 20.7509
60.675 21.141001
60.680 21.115467
60.685 20.625084
60.690 20.05835
60.695 19.624712
60.700 18.93675
60.705 18.338568
60.710 18.129627
60.715 18.565779
60.720 18.94799
60.725 19.456629
60.730 20.339342
60.735 20.767668
60.740 20.997112
60.745 20.686981
60.750 20.083389
60.755 19.846605
60.760 19.491184
60.765 18.88516
60.770 18.615034
60.775 17.823244
60.780 17.839409
60.785 17.701145
60.790 17.523684
60.795 17.451857
60.800 17.469622
60.805 17.829447
60.810 18.699747
60.815 19.345087
60.820 19.382925
60.825 19.617098
60.830 19.845308
60.835 19.827274
60.840 19.589895
60.845 19.084229
60.850 18.428982
60.855 18.280945
60.860 17.892952
60.865 17.643251
60.870 17.68391
60.875 17.707975
60.880 17.726803
60.885 17.933294
60.890 18.5432
60.895 18.851357
60.900 18.812252
60.905 18.856367
60.910 18.253035
60.915 18.440384
60.920 18.979418
60.925 18.521896
60.930 17.821775
60.935 17.676031
60.940 17.342003
60.945 17.819204
60.950 17.682093
60.955 17.450098
60.960 17.782896
60.965 18.680286
60.970 19.131224
60.975 19.263361
60.980 18.90168
60.985 18.386499
60.990 17.278976
60.995 16.671885
61.000 15.656711
61.005 15.054572
61.010 14.799962
61.015 14.863656
61.020 15.588277
61.025 16.190746
61.030 16.733662
61.035 16.993196
61.040 16.987823
61.045 17.035875
61.050 16.898779
61.055 16.586567
61.060 16.916405
61.065 16.74774
61.070 17.056959
61.075 17.772701
61.080 17.981956
61.085 17.91296
61.090 17.951841
61.095 17.504843
61.100 17.761133
61.105 17.692648
61.110 17.63611
61.115 17.960032
61.120 17.701399
61.125 17.240456
61.130 17.504372
61.135 17.011452
61.140 17.071671
61.145 17.019871
61.150 17.358355
61.155 18.074986
61.160 18.742605
61.165 18.503675
61.170 18.783045
61.175 18.259544
61.180 18.141441
61.185 17.794268
61.190 17.57576
61.195 17.843735
61.200 17.983316
61.205 18.237852
61.210 18.6248
61.215 18.518044
61.220 18.418709
61.225 18.096464
61.230 17.837215
61.235 18.216894
61.240 17.710257
61.245 17.606998
61.250 17.153173
61.255 16.838411
61.260 16.614998
61.265 16.508413
61.270 15.930276
61.275 16.220472
61.280 16.433329
61.285 17.543032
61.290 18.058472
61.295 18.241602
61.300 18.095171
61.305 18.480614
61.310 18.77807
61.315 18.464638
61.320 17.918093
61.325 18.130554
61.330 18.127371
61.335 17.530853
61.340 17.238323
61.345 16.770172
61.350 16.748917
61.355 16.364624
61.360 16.474598
61.365 16.582916
61.370 16.583176
61.375 16.650896
61.380 16.090879
61.385 15.673514
61.390 15.629021
61.395 14.889779
61.400 14.844116
61.405 15.046545
61.410 15.262175
61.415 16.207663
61.420 16.642349
61.425 17.0627
61.430 17.122677
61.435 17.587866
61.440 17.45525
61.445 17.261934
61.450 17.233047
61.455 17.520699
61.460 17.633076
61.465 18.216299
61.470 18.758823
61.475 19.63699
61.480 19.9286
61.485 19.601936
61.490 19.326557
61.495 19.307411
61.500 19.228182
61.505 18.877445
61.510 18.446505
61.515 17.998819
61.520 17.942726
61.525 17.85675
61.530 17.546778
61.535 17.398472
61.540 17.276487
61.545 17.240841
61.550 18.031683
61.555 18.194263
61.560 17.816618
61.565 18.061947
61.570 17.872908
61.575 17.768112
61.580 17.444454
61.585 16.349279
61.590 16.458328
61.595 16.882456
61.600 16.627552
61.605 16.642204
61.610 17.275778
61.615 17.894138
61.620 18.573133
61.625 18.139179
61.630 17.796055
61.635 17.480654
61.640 17.349388
61.645 17.046532
61.650 17.088709
61.655 16.533802
61.660 17.408777
61.665 17.801544
61.670 18.462471
61.675 18.144979
61.680 18.064302
61.685 18.151028
61.690 18.333874
61.695 18.040834
61.700 18.255564
61.705 18.012217
61.710 17.690346
61.715 17.162312
61.720 16.749798
61.725 16.590677
61.730 16.197895
61.735 16.40287
61.740 16.6325
61.745 16.858555
61.750 16.981092
61.755 17.461693
61.760 18.059225
61.765 18.145632
61.770 17.569273
61.775 17.47723
61.780 17.569124
61.785 17.243227
61.790 16.683443
61.795 16.40774
61.800 16.678057
61.805 17.083412
61.810 16.858042
61.815 16.917631
61.820 17.453789
61.825 17.645725
61.830 17.76342
61.835 17.139898
61.840 16.988102
61.845 17.047916
61.850 17.270973
61.855 16.918577
61.860 17.433367
61.865 18.031593
61.870 18.59767
61.875 19.147345
61.880 19.814535
61.885 19.894526
61.890 20.399231
61.895 19.712324
61.900 19.152712
61.905 18.708652
61.910 18.263603
61.915 17.798952
61.920 17.835705
61.925 17.686367
61.930 18.18894
61.935 18.499523
61.940 18.290205
61.945 18.194702
61.950 18.026428
61.955 17.834339
61.960 17.719524
61.965 17.39109
61.970 17.320398
61.975 17.641359
61.980 17.45298
61.985 17.083948
61.990 16.924944
61.995 17.39856
62.000 17.668558
62.005 17.366922
62.010 17.020176
62.015 17.285053
62.020 18.089392
62.025 18.046909
62.030 17.739845
62.035 17.479591
62.040 17.326147
62.045 17.239601
62.050 16.842712
62.055 16.173679
62.060 15.935553
62.065 15.215879
62.070 15.063539
62.075 15.560925
62.080 15.955953
62.085 15.882832
62.090 16.32708
62.095 16.377769
62.100 17.005136
62.105 17.095421
62.110 17.230764
62.115 17.766905
62.120 17.758142
62.125 17.792027
62.130 18.308786
62.135 18.566248
62.140 18.160097
62.145 17.190418
62.150 16.477179
62.155 16.424341
62.160 16.251806
62.165 16.217533
62.170 15.865445
62.175 15.34374
62.180 15.678082
62.185 15.832073
62.190 16.325193
62.195 16.508667
62.200 15.872312
62.205 15.698174
62.210 16.590666
62.215 16.581406
62.220 16.527113
62.225 16.260414
62.230 16.213112
62.235 16.610874
62.240 16.597517
62.245 16.29911
62.250 16.539833
62.255 16.874605
62.260 17.285789
62.265 17.432703
62.270 17.31506
62.275 17.391926
62.280 17.469957
62.285 17.297371
62.290 16.995546
62.295 16.275499
62.300 15.993937
62.305 15.644197
62.310 15.764011
62.315 16.019608
62.320 15.999697
62.325 16.151924
62.330 16.005104
62.335 15.635403
62.340 15.551323
62.345 15.275359
62.350 14.953187
62.355 14.786208
62.360 14.901536
62.365 15.508636
62.370 15.834758
62.375 16.264885
62.380 16.59395
62.385 17.218157
62.390 16.819107
62.395 16.916212
62.400 17.084822
62.405 17.38101
62.410 17.940096
62.415 17.811728
62.420 17.403584
62.425 17.883234
62.430 17.76939
62.435 17.643497
62.440 17.683146
62.445 17.363876
62.450 18.008106
62.455 18.140224
62.460 18.186094
62.465 18.10533
62.470 18.604244
62.475 18.974018
62.480 19.14278
62.485 18.712914
62.490 18.357735
62.495 18.624044
62.500 18.591297
62.505 17.836386
62.510 17.447475
62.515 17.549068
62.520 17.345716
62.525 17.607054
62.530 17.236013
62.535 16.748323
62.540 16.731768
62.545 16.539129
62.550 16.058365
62.555 16.460402
62.560 16.690342
62.565 16.463491
62.570 16.544102
62.575 16.696346
62.580 16.833763
62.585 16.39455
62.590 15.967823
62.595 15.517532
62.600 16.0613
62.605 16.547888
62.610 16.369438
62.615 15.844014
62.620 16.488562
62.625 16.73094
62.630 17.100193
62.635 16.956861
62.640 16.571657
62.645 16.549425
62.650 17.052166
62.655 17.001345
62.660 17.104218
62.665 16.971807
62.670 17.177444
62.675 17.302933
62.680 17.456835
62.685 17.320642
62.690 16.856508
62.695 17.234993
62.700 16.956829
62.705 17.472095
62.710 18.106939
62.715 18.31312
62.720 18.568302
62.725 18.74037
62.730 18.177105
62.735 18.116158
62.740 17.630823
62.745 17.38616
62.750 17.18627
62.755 16.506823
62.760 16.101059
62.765 16.637381
62.770 16.306721
62.775 16.115873
62.780 15.689562
62.785 15.586533
62.790 16.200315
62.795 17.096441
62.800 17.03406
62.805 17.743195
62.810 17.780632
62.815 17.840405
62.820 17.958761
62.825 17.706812
62.830 17.231983
62.835 17.641668
62.840 17.584759
62.845 17.217873
62.850 17.933384
62.855 18.629902
62.860 19.212799
62.865 19.469755
62.870 19.390882
62.875 19.106161
62.880 19.446251
62.885 18.68107
62.890 17.724417
62.895 17.433422
62.900 17.598595
62.905 17.318661
62.910 17.401316
62.915 17.409575
62.920 17.524622
62.925 17.504559
62.930 17.559126
62.935 17.433456
62.940 17.316292
62.945 17.921963
62.950 18.063681
62.955 17.724133
62.960 18.083466
62.965 18.284586
62.970 18.249506
62.975 18.588816
62.980 18.065985
62.985 17.652971
62.990 17.897511
62.995 17.602091
63.000 17.513554
63.005 16.624182
63.010 15.781646
63.015 15.967361
63.020 16.266411
63.025 16.355349
63.030 16.648911
63.035 17.004116
63.040 17.64266
63.045 17.818167
63.050 17.869406
63.055 18.219061
63.060 18.224936
63.065 18.012768
63.070 17.559053
63.075 17.18716
63.080 17.17107
63.085 16.799431
63.090 16.75292
63.095 17.396112
63.100 17.533461
63.105 17.688272
63.110 17.935289
63.115 18.048559
63.120 18.128618
63.125 18.050978
63.130 17.501423
63.135 17.367928
63.140 17.648525
63.145 17.959583
63.150 17.96155
63.155 17.873129
63.160 18.156645
63.165 18.485195
63.170 19.01174
63.175 19.335569
63.180 19.522394
63.185 19.669334
63.190 19.637697
63.195 18.909698
63.200 18.605745
63.205 18.232855
63.210 17.863239
63.215 17.389297
63.220 17.327906
63.225 17.204712
63.230 17.491676
63.235 17.202023
63.240 17.035612
63.245 16.893816
63.250 17.195099
63.255 17.179493
63.260 17.561136
63.265 17.577959
63.270 17.707901
63.275 17.832417
63.280 18.405407
63.285 18.053589
63.290 17.979893
63.295 18.04818
63.300 18.281851
63.305 18.651382
63.310 18.375046
63.315 17.841246
63.320 18.316214
63.325 18.930052
63.330 18.507383
63.335 18.811136
63.340 18.404329
63.345 18.16519
63.350 18.470854
63.355 18.045296
63.360 17.969301
63.365 18.345026
63.370 18.384987
63.375 18.789345
63.380 19.250631
63.385 19.394102
63.390 19.765392
63.395 19.45821
63.400 18.865025
63.405 18.588827
63.410 18.543175
63.415 18.67053
63.420 18.548479
63.425 18.49193
63.430 18.611261
63.435 19.031469
63.440 19.121469
63.445 19.057003
63.450 18.802429
63.455 18.913177
63.460 19.025986
63.465 18.906132
63.470 18.790123
63.475 19.394028
63.480 19.987831
63.485 20.067533
63.490 19.971909
63.495 19.315414
63.500 19.057814
63.505 19.262398
63.510 18.247778
63.515 17.552357
63.520 17.123575
63.525 16.033823
63.530 16.001453
63.535 16.249992
63.540 16.358749
63.545 17.092625
63.550 16.813374
63.555 17.050802
63.560 18.139471
63.565 19.183823
63.570 19.562565
63.575 19.306911
63.580 19.645264
63.585 20.065195
63.590 20.210159
63.595 20.372028
63.600 19.729149
63.605 18.881676
63.610 17.910473
63.615 17.022198
63.620 17.07489
63.625 16.82044
63.630 16.636339
63.635 17.110853
63.640 17.516941
63.645 18.661863
63.650 18.861328
63.655 18.814898
63.660 19.400484
63.665 19.777674
63.670 19.606474
63.675 19.682194
63.680 19.558027
63.685 19.902836
63.690 19.785997
63.695 19.685572
63.700 19.276875
63.705 19.125513
63.710 19.218102
63.715 18.866066
63.720 18.765453
63.725 18.80938
63.730 18.363176
63.735 17.970732
63.740 17.866327
63.745 17.41297
63.750 17.190996
63.755 17.116049
63.760 16.712872
63.765 16.989668
63.770 17.347218
63.775 17.054588
63.780 17.402773
63.785 17.758459
63.790 17.378822
63.795 17.415808
63.800 17.303223
63.805 17.782667
63.810 18.23543
63.815 18.268496
63.820 18.624155
63.825 19.171055
63.830 19.480524
63.835 19.141281
63.840 18.558681
63.845 18.64719
63.850 18.134842
63.855 18.130894
63.860 17.849417
63.865 17.663677
63.870 17.809261
63.875 17.747717
63.880 17.151804
63.885 17.260607
63.890 17.457388
63.895 17.542423
63.900 17.135561
63.905 17.485249
63.910 17.7873
63.915 17.968277
63.920 17.873579
63.925 17.283842
63.930 17.586767
63.935 18.050261
63.940 17.534136
63.945 17.161215
63.950 17.05587
63.955 16.296064
63.960 16.137766
63.965 15.924729
63.970 15.478859
63.975 16.194944
63.980 17.124077
63.985 18.265242
63.990 18.988802
63.995 19.301657
64.000 19.403101
64.005 19.6029
64.010 20.221022
64.015 20.486732
64.020 20.011391
64.025 20.875153
64.030 20.938728
64.035 21.0923
64.040 21.044083
64.045 19.847528
64.050 19.353928
64.055 19.223373
64.060 18.647697
64.065 18.682802
64.070 18.668711
64.075 18.636944
64.080 18.989704
64.085 18.963417
64.090 19.152184
64.095 18.837479
64.100 18.668716
64.105 18.698317
64.110 18.385475
64.115 17.64576
64.120 16.813419
64.125 16.382496
64.130 16.45433
64.135 16.024376
64.140 15.850725
64.145 16.099918
64.150 16.687229
64.155 17.254316
64.160 16.953495
64.165 17.194202
64.170 17.514019
64.175 17.492825
64.180 17.83563
64.185 17.382629
64.190 17.513079
64.195 17.959394
64.200 17.764004
64.205 17.969246
64.210 17.997686
64.215 17.419249
64.220 17.966135
64.225 17.776217
64.230 17.770491
64.235 17.864542
64.240 17.906397
64.245 18.092184
64.250 17.93339
64.255 17.89674
64.260 17.830788
64.265 17.489069
64.270 17.37991
64.275 17.514135
64.280 17.425247
64.285 18.255152
64.290 18.36311
64.295 18.370888
64.300 18.645426
64.305 18.856049
64.310 18.815161
64.315 18.60943
64.320 18.490473
64.325 18.480215
64.330 18.638371
64.335 18.786688
64.340 18.757742
64.345 18.923767
64.350 19.464863
64.355 19.618837
64.360 19.356609
64.365 19.634258
64.370 19.871929
64.375 19.49749
64.380 19.600096
64.385 19.384573
64.390 19.611019
64.395 19.843214
64.400 20.173172
64.405 20.357641
64.410 20.649204
64.415 19.932854
64.420 19.914883
64.425 19.815821
64.430 19.479151
64.435 18.861549
64.440 18.636061
64.445 19.360287
64.450 20.065784
64.455 19.966921
64.460 19.80802
64.465 20.093422
64.470 19.655773
64.475 19.010212
64.480 18.439924
64.485 18.265451
64.490 18.742207
64.495 18.556313
64.500 17.997131
64.505 18.946575
64.510 19.510082
64.515 18.98893
64.520 18.292025
64.525 18.017918
64.530 18.662392
64.535 19.391436
64.540 19.418802
64.545 19.58349
64.550 19.604319
64.555 19.922716
64.560 19.648199
64.565 19.106651
64.570 18.683723
64.575 18.344034
64.580 18.373453
64.585 18.576279
64.590 18.968195
64.595 19.162497
64.600 19.23922
64.605 19.012653
64.610 18.267254
64.615 18.343189
64.620 19.364601
64.625 18.974726
64.630 18.785135
64.635 18.7183
64.640 19.24069
64.645 20.086618
64.650 19.734879
64.655 18.873899
64.660 18.984188
64.665 19.141464
64.670 19.591427
64.675 19.746986
64.680 19.433496
64.685 19.708122
64.690 19.919914
64.695 19.834949
64.700 20.238998
64.705 20.078341
64.710 19.775352
64.715 19.357332
64.720 18.951006
64.725 18.562149
64.730 18.441513
64.735 18.146967
64.740 18.148685
64.745 18.284504
64.750 18.701714
64.755 18.989706
64.760 18.769987
64.765 18.815559
64.770 19.439411
64.775 20.278177
64.780 20.665012
64.785 20.802349
64.790 21.011395
64.795 21.459396
64.800 21.403011
64.805 21.003176
64.810 20.330578
64.815 20.386148
64.820 20.779711
64.825 20.843302
64.830 20.70817
64.835 21.078863
64.840 20.894135
64.845 20.373478
64.850 19.343668
64.855 18.437416
64.860 18.535667
64.865 18.257471
64.870 18.062286
64.875 17.900446
64.880 18.619268
64.885 18.94348
64.890 19.441122
64.895 19.562403
64.900 20.055435
64.905 20.199697
64.910 20.321592
64.915 20.251852
64.920 20.508276
64.925 20.503149
64.930 20.320211
64.935 20.231142
64.940 20.222664
64.945 20.481489
64.950 20.800177
64.955 21.172117
64.960 20.774635
64.965 21.165937
64.970 21.739244
64.975 21.727856
64.980 21.770933
64.985 21.742479
64.990 21.542501
64.995 21.801842
65.000 21.513422
65.005 21.102983
65.010 21.619417
65.015 21.627741
65.020 22.401415
65.025 23.06867
65.030 23.268406
65.035 23.499374
65.040 23.878258
65.045 23.570408
65.050 23.557835
65.055 23.1043
65.060 22.606209
65.065 22.817799
65.070 22.976009
65.075 22.978739
65.080 23.02405
65.085 23.072258
65.090 22.693306
65.095 22.761724
65.100 22.515154
65.105 22.233099
65.110 22.085733
65.115 22.508638
65.120 22.480471
65.125 22.428799
65.130 22.464661
65.135 22.482687
65.140 22.614281
65.145 22.832605
65.150 22.402922
65.155 22.427614
65.160 22.860153
65.165 23.505924
65.170 23.201633
65.175 22.778034
65.180 22.881519
65.185 23.396273
65.190 23.852718
65.195 23.902796
65.200 23.698509
65.205 24.212076
65.210 25.015335
65.215 24.708811
65.220 23.995737
65.225 24.099865
65.230 25.018566
65.235 25.190784
65.240 25.374266
65.245 25.130205
65.250 25.698009
65.255 26.179852
65.260 25.427282
65.265 25.005312
65.270 25.108007
65.275 24.929256
65.280 24.598083
65.285 24.079678
65.290 23.992348
65.295 24.151869
65.300 22.501057
65.305 21.814465
65.310 21.864012
65.315 22.511467
65.320 22.900429
65.325 22.543442
65.330 22.658144
65.335 22.63937
65.340 22.831789
65.345 22.98457
65.350 22.839748
65.355 22.574207
65.360 22.777304
65.365 23.157459
65.370 23.187675
65.375 23.286047
65.380 23.272221
65.385 23.583567
65.390 23.563147
65.395 23.175423
65.400 23.06282
65.405 23.929279
65.410 24.374495
65.415 23.978188
65.420 23.917463
65.425 24.072351
65.430 24.092299
65.435 24.706873
65.440 25.376963
65.445 25.345383
65.450 25.618814
65.455 25.573921
65.460 26.255211
65.465 26.292093
65.470 25.961369
65.475 25.277241
65.480 25.103455
65.485 25.183737
65.490 25.141521
65.495 24.510466
65.500 24.856758
65.505 24.26729
65.510 24.655882
65.515 25.386087
65.520 25.451857
65.525 25.995272
65.530 26.459406
65.535 26.616713
65.540 27.283279
65.545 26.931158
65.550 27.014423
65.555 27.433548
65.560 27.480698
65.565 27.780436
65.570 28.03731
65.575 28.697256
65.580 29.751663
65.585 30.051191
65.590 30.067636
65.595 29.613535
65.600 29.637335
65.605 30.001713
65.610 30.526926
65.615 30.243025
65.620 30.302441
65.625 30.382423
65.630 30.979946
65.635 31.218803
65.640 31.59407
65.645 31.366371
65.650 31.172079
65.655 31.011059
65.660 31.35811
65.665 32.252827
65.670 32.497608
65.675 32.398407
65.680 32.556225
65.685 32.841534
65.690 33.548302
65.695 33.379829
65.700 33.123577
65.705 33.151726
65.710 32.51543
65.715 33.012589
65.720 33.579166
65.725 34.098469
65.730 34.495903
65.735 34.597855
65.740 35.227924
65.745 36.115589
65.750 36.718487
65.755 36.68055
65.760 35.921696
65.765 36.207684
65.770 36.43063
65.775 36.184834
65.780 36.20018
65.785 35.81744
65.790 35.598183
65.795 35.892227
65.800 35.300678
65.805 34.863018
65.810 35.121655
65.815 34.617695
65.820 35.069016
65.825 35.544815
65.830 35.694008
65.835 36.833374
65.840 37.656616
65.845 37.814987
65.850 38.645149
65.855 38.517262
65.860 38.36071
65.865 38.414917
65.870 38.489723
65.875 38.657688
65.880 39.340199
65.885 39.355801
65.890 40.025135
65.895 40.425602
65.900 40.334103
65.905 40.003048
65.910 39.741196
65.915 38.539845
65.920 38.251637
65.925 38.273724
65.930 37.701332
65.935 37.395657
65.940 36.243073
65.945 36.263096
65.950 36.999729
65.955 36.972359
65.960 36.44482
65.965 35.795876
65.970 36.707138
65.975 37.556271
65.980 37.190228
65.985 37.52491
65.990 37.499512
65.995 38.209923
66.000 39.944412
66.005 40.518143
66.010 40.519325
66.015 40.741333
66.020 40.498161
66.025 40.353092
66.030 40.531803
66.035 40.221161
66.040 39.368828
66.045 38.918468
66.050 38.042194
66.055 37.747173
66.060 37.77372
66.065 37.265415
66.070 36.255493
66.075 35.707993
66.080 35.78973
66.085 35.478096
66.090 35.318317
66.095 36.045769
66.100 35.828194
66.105 36.201328
66.110 36.838211
66.115 36.750763
66.120 37.522511
66.125 37.398567
66.130 36.969845
66.135 37.179607
66.140 37.041656
66.145 36.855804
66.150 37.116013
66.155 37.167168
66.160 37.16951
66.165 36.92897
66.170 37.012848
66.175 36.871872
66.180 36.288021
66.185 35.917488
66.190 35.414898
66.195 34.843071
66.200 34.147453
66.205 33.551746
66.210 33.645416
66.215 33.920525
66.220 33.969952
66.225 33.87244
66.230 33.835087
66.235 33.85656
66.240 33.030754
66.245 32.550919
66.250 32.388115
66.255 32.637783
66.260 33.658108
66.265 33.879688
66.270 34.078426
66.275 34.322422
66.280 34.218441
66.285 34.034462
66.290 33.693169
66.295 33.026917
66.300 33.12645
66.305 33.085678
66.310 32.864452
66.315 32.546253
66.320 32.977448
66.325 33.168259
66.330 32.733917
66.335 32.712574
66.340 32.389061
66.345 32.437218
66.350 32.594948
66.355 31.88302
66.360 31.278849
66.365 31.676085
66.370 31.389883
66.375 31.769497
66.380 31.204597
66.385 31.119473
66.390 30.723797
66.395 31.049086
66.400 31.20013
66.405 31.144989
66.410 30.224741
66.415 30.316448
66.420 30.602064
66.425 30.919436
66.430 30.778267
66.435 29.895939
66.440 29.493399
66.445 30.442568
66.450 30.480274
66.455 29.070908
66.460 28.263889
66.465 27.448929
66.470 27.819748
66.475 28.628483
66.480 28.265978
66.485 28.038893
66.490 29.020761
66.495 29.448503
66.500 29.651564
66.505 28.884398
66.510 28.19154
66.515 27.641806
66.520 27.491745
66.525 27.925652
66.530 27.784204
66.535 27.926222
66.540 28.641611
66.545 28.653477
66.550 28.849428
66.555 28.608147
66.560 27.664804
66.565 27.881123
66.570 27.807024
66.575 26.981432
66.580 26.373817
66.585 25.508755
66.590 25.384871
66.595 25.57379
66.600 25.081867
66.605 25.148342
66.610 25.278028
66.615 26.090609
66.620 27.043882
66.625 27.771431
66.630 28.187634
66.635 28.532446
66.640 28.546919
66.645 28.983883
66.650 28.728888
66.655 28.081129
66.660 27.535713
66.665 26.993586
66.670 26.665983
66.675 26.350262
66.680 25.769449
66.685 25.606287
66.690 25.282417
66.695 24.814783
66.700 25.327799
66.705 25.00083
66.710 24.51516
66.715 24.426693
66.720 24.599161
66.725 25.324589
66.730 25.12516
66.735 24.630812
66.740 24.21776
66.745 24.799023
66.750 24.664303
66.755 24.780432
66.760 24.941254
66.765 25.099852
66.770 24.76774
66.775 25.78023
66.780 25.577658
66.785 25.343811
66.790 24.947044
66.795 24.322866
66.800 24.050781
66.805 24.527832
66.810 23.898035
66.815 23.907103
66.820 23.65365
66.825 23.353449
66.830 23.588717
66.835 23.362989
66.840 23.523094
66.845 23.166763
66.850 22.727091
66.855 22.856491
66.860 23.035086
66.865 23.270041
66.870 23.8132
66.875 23.306898
66.880 23.739883
66.885 24.129551
66.890 24.101652
66.895 23.545279
66.900 22.535101
66.905 22.396545
66.910 22.995863
66.915 23.462873
66.920 23.579029
66.925 23.63673
66.930 24.405874
66.935 25.054453
66.940 24.838453
66.945 24.656971
66.950 24.169392
66.955 24.128294
66.960 24.70668
66.965 24.904013
66.970 25.22472
66.975 25.662264
66.980 26.238987
66.985 26.094257
66.990 26.406466
66.995 25.82103
67.000 24.914188
67.005 24.5257
67.010 24.527067
67.015 23.958044
67.020 23.462374
67.025 23.326784
67.030 23.112583
67.035 22.605806
67.040 22.637726
67.045 22.316465
67.050 22.514473
67.055 23.059353
67.060 22.685804
67.065 23.045807
67.070 23.831575
67.075 23.714264
67.080 23.783764
67.085 23.904192
67.090 23.687225
67.095 23.841196
67.100 23.873213
67.105 24.069302
67.110 24.164175
67.115 23.802317
67.120 23.572632
67.125 23.581169
67.130 23.575588
67.135 23.693642
67.140 22.834177
67.145 22.626314
67.150 23.058533
67.155 22.68326
67.160 22.750456
67.165 22.709625
67.170 22.803665
67.175 23.19067
67.180 22.714426
67.185 21.993536
67.190 21.635092
67.195 21.735651
67.200 21.308405
67.205 21.701572
67.210 22.111656
67.215 22.373505
67.220 22.889238
67.225 23.534637
67.230 23.549488
67.235 24.056026
67.240 23.399551
67.245 22.830856
67.250 23.317598
67.255 22.89113
67.260 23.031197
67.265 23.141949
67.270 23.250744
67.275 23.245512
67.280 23.156311
67.285 23.118053
67.290 22.9296
67.295 22.461926
67.300 21.871826
67.305 21.765057
67.310 21.934319
67.315 22.160501
67.320 22.405357
67.325 22.784191
67.330 23.002037
67.335 22.807194
67.340 22.414722
67.345 22.345045
67.350 22.188614
67.355 21.909185
67.360 21.771877
67.365 21.47156
67.370 21.678026
67.375 21.203388
67.380 21.140041
67.385 21.39926
67.390 21.192699
67.395 21.723682
67.400 21.920635
67.405 22.004585
67.410 22.123697
67.415 21.87075
67.420 21.712982
67.425 21.485483
67.430 21.31027
67.435 20.78705
67.440 20.811825
67.445 21.222853
67.450 20.902552
67.455 21.581787
67.460 21.815378
67.465 21.78945
67.470 22.17614
67.475 22.347548
67.480 22.758101
67.485 23.567728
67.490 23.129129
67.495 23.363087
67.500 23.381298
67.505 23.470282
67.510 23.041744
67.515 22.561464
67.520 22.284403
67.525 21.583315
67.530 20.989523
67.535 20.416986
67.540 20.562475
67.545 20.950476
67.550 20.868046
67.555 20.982063
67.560 21.655384
67.565 22.581036
67.570 22.992266
67.575 22.749302
67.580 22.860996
67.585 23.224905
67.590 22.814398
67.595 22.516581
67.600 21.764444
67.605 21.450474
67.610 21.476564
67.615 21.218975
67.620 20.600498
67.625 21.086245
67.630 20.989246
67.635 21.503265
67.640 21.716389
67.645 21.494699
67.650 21.831955
67.655 21.885859
67.660 21.625626
67.665 21.962261
67.670 21.582008
67.675 21.782042
67.680 22.525595
67.685 22.577623
67.690 22.895769
67.695 23.165903
67.700 23.318457
67.705 23.645025
67.710 23.48708
67.715 23.24021
67.720 23.39015
67.725 23.507252
67.730 22.881639
67.735 22.759914
67.740 22.615614
67.745 22.417105
67.750 22.431789
67.755 21.874733
67.760 21.364065
67.765 21.541113
67.770 21.375517
67.775 21.419598
67.780 21.513145
67.785 21.395899
67.790 21.540331
67.795 21.486418
67.800 21.498167
67.805 21.271221
67.810 20.671389
67.815 21.343988
67.820 21.675526
67.825 21.382713
67.830 21.083706
67.835 21.429398
67.840 21.66189
67.845 21.6141
67.850 20.527767
67.855 20.266407
67.860 20.903828
67.865 21.622681
67.870 21.182356
67.875 22.021774
67.880 23.013475
67.885 23.48085
67.890 23.463713
67.895 23.35058
67.900 23.426394
67.905 22.876698
67.910 22.02198
67.915 21.334976
67.920 21.461672
67.925 22.009958
67.930 22.197502
67.935 22.752687
67.940 23.288189
67.945 23.55335
67.950 23.627066
67.955 23.148859
67.960 22.212099
67.965 21.782694
67.970 21.358921
67.975 21.667524
67.980 21.577436
67.985 21.43611
67.990 21.647747
67.995 21.860678
68.000 21.934071
68.005 21.876654
68.010 21.464151
68.015 21.50708
68.020 21.384607
68.025 21.260691
68.030 21.372774
68.035 21.945646
68.040 22.499121
68.045 22.589531
68.050 22.425318
68.055 22.729349
68.060 22.868841
68.065 22.801142
68.070 22.140512
68.075 21.686039
68.080 21.532255
68.085 21.585581
68.090 21.602381
68.095 21.370022
68.100 21.480032
68.105 20.546753
68.110 20.646805
68.115 20.792849
68.120 20.581244
68.125 20.469769
68.130 20.896559
68.135 20.991028
68.140 22.143522
68.145 22.087965
68.150 21.610748
68.155 21.67555
68.160 21.804014
68.165 21.689426
68.170 21.299248
68.175 21.0079
68.180 21.447435
68.185 22.146114
68.190 22.467245
68.195 22.324295
68.200 22.172472
68.205 22.754543
68.210 22.283775
68.215 21.524345
68.220 21.096531
68.225 20.781754
68.230 20.632559
68.235 20.925446
68.240 21.082443
68.245 21.644136
68.250 21.824024
68.255 21.759222
68.260 21.878416
68.265 22.70248
68.270 22.903828
68.275 22.479609
68.280 22.592482
68.285 23.303473
68.290 23.588459
68.295 23.579744
68.300 22.954962
68.305 22.698633
68.310 22.843033
68.315 22.499514
68.320 22.096857
68.325 22.215639
68.330 22.374083
68.335 22.259691
68.340 22.087467
68.345 21.893944
68.350 21.61681
68.355 21.761637
68.360 21.145443
68.365 20.731533
68.370 20.906351
68.375 21.042423
68.380 20.668055
68.385 21.123308
68.390 20.82028
68.395 21.088984
68.400 21.246641
68.405 21.200514
68.410 21.024897
68.415 21.586166
68.420 21.436666
68.425 21.748291
68.430 21.499159
68.435 21.310518
68.440 20.966949
68.445 21.55142
68.450 21.762964
68.455 22.369474
68.460 22.782925
68.465 22.875153
68.470 22.754171
68.475 22.950556
68.480 22.923162
68.485 22.964609
68.490 22.244343
68.495 22.165155
68.500 21.855566
68.505 22.127951
68.510 21.733704
68.515 21.501619
68.520 21.211018
68.525 21.375635
68.530 21.117228
68.535 21.485987
68.540 21.366137
68.545 21.936584
68.550 21.585485
68.555 21.804319
68.560 22.242577
68.565 22.587566
68.570 23.162991
68.575 22.722755
68.580 22.652002
68.585 22.896276
68.590 22.442331
68.595 21.261166
68.600 21.377676
68.605 21.185444
68.610 21.258005
68.615 20.853127
68.620 20.957514
68.625 21.323883
68.630 22.004892
68.635 22.378365
68.640 22.908066
68.645 23.323736
68.650 23.370363
68.655 23.655081
68.660 23.145849
68.665 22.626713
68.670 21.780493
68.675 22.039536
68.680 21.615412
68.685 22.329729
68.690 22.23217
68.695 22.566433
68.700 22.692419
68.705 22.87487
68.710 22.549623
68.715 22.407093
68.720 21.462753
68.725 21.546076
68.730 22.402458
68.735 23.138157
68.740 22.863174
68.745 22.359682
68.750 22.624296
68.755 23.475933
68.760 23.569815
68.765 22.631632
68.770 22.400131
68.775 22.518759
68.780 23.093828
68.785 22.876802
68.790 22.861683
68.795 22.488451
68.800 22.462513
68.805 22.336487
68.810 22.390266
68.815 21.567019
68.820 21.478519
68.825 20.965334
68.830 20.816143
68.835 20.948994
68.840 21.537724
68.845 22.51078
68.850 23.329962
68.855 23.787582
68.860 24.043903
68.865 23.705563
68.870 23.528282
68.875 23.073338
68.880 22.773151
68.885 22.108408
68.890 22.112965
68.895 22.270557
68.900 22.949585
68.905 23.195965
68.910 22.871044
68.915 23.068577
68.920 23.563705
68.925 23.378143
68.930 23.406366
68.935 23.604874
68.940 22.854286
68.945 22.517731
68.950 22.460506
68.955 22.557026
68.960 22.637205
68.965 22.527103
68.970 22.640184
68.975 23.15225
68.980 22.837175
68.985 21.958031
68.990 21.661339
68.995 22.097794
69.000 23.021233
69.005 23.201685
69.010 23.175673
69.015 23.664608
69.020 24.704226
69.025 24.869997
69.030 24.292023
69.035 24.060568
69.040 24.660603
69.045 25.43922
69.050 25.492334
69.055 25.532736
69.060 25.626154
69.065 25.193903
69.070 25.292139
69.075 25.008022
69.080 25.048422
69.085 25.222914
69.090 25.122972
69.095 25.547865
69.100 26.402739
69.105 26.7094
69.110 27.07
69.115 27.142092
69.120 27.112711
69.125 27.179657
69.130 27.979769
69.135 27.675489
69.140 27.624563
69.145 27.42919
69.150 26.92054
69.155 27.080788
69.160 27.236181
69.165 26.364349
69.170 26.171934
69.175 25.754194
69.180 26.231754
69.185 26.668863
69.190 26.26371
69.195 25.924654
69.200 25.429598
69.205 25.554817
69.210 25.467394
69.215 25.013947
69.220 25.600441
69.225 26.243311
69.230 26.484983
69.235 26.397238
69.240 26.509022
69.245 26.738031
69.250 26.889555
69.255 26.52136
69.260 26.293283
69.265 26.843542
69.270 27.192062
69.275 27.151175
69.280 27.181171
69.285 27.230007
69.290 27.394396
69.295 27.692944
69.300 27.103218
69.305 27.490217
69.310 28.140972
69.315 28.555506
69.320 28.32666
69.325 27.821148
69.330 28.320847
69.335 29.145428
69.340 28.601303
69.345 28.696867
69.350 29.102562
69.355 29.91935
69.360 30.49246
69.365 29.910408
69.370 29.445311
69.375 29.512409
69.380 29.438927
69.385 29.007444
69.390 29.454538
69.395 29.726116
69.400 30.47657
69.405 30.513508
69.410 30.73835
69.415 30.632183
69.420 30.983511
69.425 30.077843
69.430 29.412907
69.435 28.997557
69.440 28.685322
69.445 28.349249
69.450 28.417713
69.455 28.084726
69.460 28.166519
69.465 28.147717
69.470 28.086107
69.475 28.376247
69.480 28.640076
69.485 27.743568
69.490 27.265057
69.495 27.510946
69.500 27.427258
69.505 28.002106
69.510 28.127188
69.515 28.235292
69.520 28.764051
69.525 29.274458
69.530 29.585667
69.535 29.459768
69.540 29.843126
69.545 29.633268
69.550 29.954426
69.555 29.864418
69.560 29.421555
69.565 29.173979
69.570 29.502823
69.575 28.994295
69.580 29.004387
69.585 27.724459
69.590 27.373875
69.595 26.937107
69.600 27.175243
69.605 26.795473
69.610 27.19599
69.615 27.280304
69.620 27.761053
69.625 28.250759
69.630 28.214336
69.635 27.858858
69.640 27.548515
69.645 27.246477
69.650 27.140995
69.655 28.48172
69.660 28.704241
69.665 29.404272
69.670 29.800831
69.675 30.943609
69.680 30.872862
69.685 30.934362
69.690 30.020317
69.695 29.19626
69.700 28.795605
69.705 28.444948
69.710 27.053192
69.715 26.929825
69.720 26.402763
69.725 26.431002
69.730 27.306402
69.735 26.705379
69.740 26.354586
69.745 26.67835
69.750 26.534452
69.755 26.175844
69.760 26.233727
69.765 25.582537
69.770 25.205378
69.775 25.253065
69.780 25.561426
69.785 26.048246
69.790 25.656666
69.795 25.258484
69.800 25.511236
69.805 26.201725
69.810 26.419138
69.815 25.927603
69.820 25.387896
69.825 25.722851
69.830 25.389009
69.835 26.050461
69.840 26.443335
69.845 26.190218
69.850 26.674128
69.855 26.952049
69.860 26.715475
69.865 26.773449
69.870 26.110733
69.875 26.388384
69.880 26.919399
69.885 26.866941
69.890 27.461357
69.895 27.16802
69.900 27.161888
69.905 26.332907
69.910 25.048206
69.915 24.167135
69.920 23.812784
69.925 23.604462
69.930 23.640244
69.935 23.265228
69.940 23.034071
69.945 23.240343
69.950 23.101624
69.955 22.391573
69.960 22.216236
69.965 22.746305
69.970 23.075842
69.975 23.61133
69.980 23.436993
69.985 23.59407
69.990 23.690701
69.995 23.285448
70.000 22.404001
70.005 21.960814
70.010 21.769032
70.015 21.467014
70.020 21.760847
70.025 21.494499
70.030 21.325972
70.035 21.738125
70.040 21.82723
70.045 22.27247
70.050 22.223858
70.055 21.592869
70.060 21.685543
70.065 21.767059
70.070 21.968712
70.075 21.920221
70.080 21.492529
70.085 21.284132
70.090 21.478474
70.095 21.761084
70.100 21.578604
70.105 20.970129
70.110 20.878656
70.115 21.27862
70.120 21.458803
70.125 21.881268
70.130 21.336355
70.135 21.199053
70.140 21.194559
70.145 21.039598
70.150 21.001354
70.155 20.774481
70.160 20.282627
70.165 20.511663
70.170 20.052355
70.175 19.908583
70.180 19.480478
70.185 19.6411
70.190 20.29001
70.195 20.305433
70.200 20.523994
70.205 21.463095
70.210 21.76416
70.215 21.881062
70.220 21.582878
70.225 21.524586
70.230 22.030535
70.235 21.344555
70.240 20.397354
70.245 20.592276
70.250 20.560654
70.255 20.358561
70.260 19.783424
70.265 19.956516
70.270 20.029871
70.275 20.701122
70.280 20.28133
70.285 20.450174
70.290 20.300175
70.295 20.06131
70.300 19.387114
70.305 19.811338
70.310 19.476204
70.315 19.744114
70.320 20.391314
70.325 20.685085
70.330 21.235308
70.335 21.658508
70.340 21.412285
70.345 21.676321
70.350 21.182966
70.355 20.619844
70.360 20.976852
70.365 21.119493
70.370 21.160439
70.375 20.91058
70.380 20.557728
70.385 20.957127
70.390 21.136801
70.395 21.349354
70.400 21.647842
70.405 21.764177
70.410 22.080572
70.415 21.997076
70.420 21.191824
70.425 20.307806
70.430 19.972315
70.435 19.226841
70.440 18.567032
70.445 18.0292
70.450 18.647856
70.455 19.063831
70.460 18.949949
70.465 18.951839
70.470 19.049026
70.475 19.610752
70.480 19.415457
70.485 18.823975
70.490 18.390879
70.495 18.639898
70.500 18.678728
70.505 18.514627
70.510 18.406918
70.515 18.695778
70.520 19.353912
70.525 19.98542
70.530 19.918379
70.535 20.184921
70.540 20.961006
70.545 21.00642
70.550 21.150925
70.555 21.173918
70.560 21.164289
70.565 21.194345
70.570 20.960285
70.575 20.991716
70.580 20.84339
70.585 20.582483
70.590 19.680819
70.595 19.504457
70.600 19.64613
70.605 19.170631
70.610 18.872974
70.615 19.272709
70.620 19.648703
70.625 20.596224
70.630 20.558619
70.635 20.39175
70.640 20.653257
70.645 20.628336
70.650 20.894869
70.655 20.639362
70.660 20.338676
70.665 20.454947
70.670 20.195751
70.675 20.466627
70.680 20.448322
70.685 20.516186
70.690 21.650742
70.695 21.743256
70.700 21.650373
70.705 21.586756
70.710 21.494171
70.715 21.067553
70.720 20.662882
70.725 19.76247
70.730 19.293318
70.735 19.561911
70.740 19.595881
70.745 19.256674
70.750 19.526997
70.755 20.037792
70.760 20.60582
70.765 20.891451
70.770 20.959885
70.775 21.066677
70.780 21.202223
70.785 20.35125
70.790 20.326086
70.795 19.958288
70.800 19.196699
70.805 18.322069
70.810 18.171818
70.815 18.670742
70.820 19.741047
70.825 19.488531
70.830 19.169844
70.835 19.384037
70.840 19.906572
70.845 19.860939
70.850 19.744951
70.855 19.491613
70.860 19.594118
70.865 19.828882
70.870 19.862984
70.875 19.421881
70.880 19.16983
70.885 19.188269
70.890 18.349567
70.895 17.971703
70.900 18.430309
70.905 18.795263
70.910 19.424046
70.915 19.248241
70.920 19.374449
70.925 19.889093
70.930 19.774315
70.935 19.643894
70.940 19.753117
70.945 19.34054
70.950 19.017948
70.955 19.258745
70.960 19.099012
70.965 19.515203
70.970 19.738819
70.975 20.100138
70.980 20.318611
70.985 20.178528
70.990 19.565628
70.995 19.778641
71.000 19.184526
71.005 18.674376
71.010 17.969734
71.015 18.126465
71.020 18.328077
71.025 18.537136
71.030 18.507557
71.035 18.45155
71.040 18.178471
71.045 18.885595
71.050 18.913017
71.055 18.254242
71.060 17.617168
71.065 17.009018
71.070 17.308102
71.075 17.20915
71.080 16.735188
71.085 16.838005
71.090 17.225027
71.095 18.198029
71.100 19.079882
71.105 19.372116
71.110 19.718969
71.115 20.224321
71.120 20.535303
71.125 20.359753
71.130 19.888987
71.135 19.606665
71.140 19.319672
71.145 19.22147
71.150 18.417278
71.155 18.652555
71.160 18.655296
71.165 18.861164
71.170 18.683508
71.175 18.534195
71.180 18.076746
71.185 18.343601
71.190 17.838177
71.195 18.311949
71.200 17.831852
71.205 18.164518
71.210 18.752958
71.215 18.777077
71.220 18.634363
71.225 18.555546
71.230 18.369162
71.235 18.799227
71.240 19.002497
71.245 18.997755
71.250 19.460932
71.255 19.970146
71.260 20.236162
71.265 19.742428
71.270 20.286257
71.275 20.508591
71.280 20.143847
71.285 19.906736
71.290 19.979105
71.295 20.477909
71.300 20.318081
71.305 20.242056
71.310 20.474636
71.315 20.309797
71.320 20.397644
71.325 20.437145
71.330 20.215612
71.335 20.844437
71.340 20.64208
71.345 20.5277
71.350 20.523823
71.355 20.434986
71.360 20.428633
71.365 19.973614
71.370 19.206221
71.375 18.972588
71.380 18.762718
71.385 19.524794
71.390 19.299496
71.395 18.984953
71.400 19.162054
71.405 19.526354
71.410 19.804514
71.415 19.597307
71.420 18.965534
71.425 18.851839
71.430 19.061382
71.435 18.796936
71.440 18.545004
71.445 18.731771
71.450 18.92897
71.455 19.142876
71.460 19.42798
71.465 19.317387
71.470 19.015057
71.475 18.037001
71.480 17.510201
71.485 16.998314
71.490 16.82184
71.495 16.688856
71.500 17.661459
71.505 18.275045
71.510 18.766977
71.515 18.960222
71.520 19.45439
71.525 20.383097
71.530 19.966288
71.535 19.091858
71.540 19.798712
71.545 20.361584
71.550 20.509222
71.555 19.956388
71.560 19.653206
71.565 20.399485
71.570 20.508919
71.575 19.636526
71.580 19.45293
71.585 19.409712
71.590 18.848129
71.595 18.936407
71.600 18.730894
71.605 18.721802
71.610 18.723665
71.615 18.404839
71.620 18.649071
71.625 18.551689
71.630 18.578854
71.635 18.368759
71.640 18.165384
71.645 18.614542
71.650 18.914785
71.655 19.344099
71.660 19.126955
71.665 18.406399
71.670 18.213457
71.675 18.427521
71.680 18.202526
71.685 17.986034
71.690 18.169943
71.695 18.778961
71.700 19.560724
71.705 20.386837
71.710 20.531105
71.715 20.469894
71.720 21.15127
71.725 20.811983
71.730 20.296883
71.735 20.022919
71.740 19.659395
71.745 19.322927
71.750 18.762228
71.755 18.531937
71.760 18.897041
71.765 19.124075
71.770 18.744701
71.775 18.23263
71.780 18.324871
71.785 18.717047
71.790 18.382593
71.795 18.93084
71.800 18.666428
71.805 19.162783
71.810 19.74003
71.815 20.326971
71.820 19.994568
71.825 19.829941
71.830 19.843462
71.835 19.700172
71.840 19.941162
71.845 19.135193
71.850 18.530787
71.855 18.279129
71.860 18.259947
71.865 18.477936
71.870 18.570326
71.875 19.100893
71.880 19.723886
71.885 20.01919
71.890 20.329187
71.895 19.874439
71.900 19.758125
71.905 19.942411
71.910 18.689276
71.915 18.245329
71.920 18.397762
71.925 18.57724
71.930 18.652245
71.935 18.85807
71.940 19.465343
71.945 20.815523
71.950 21.332563
71.955 21.190042
71.960 21.323418
71.965 21.461535
71.970 21.365292
71.975 20.436501
71.980 19.14016
71.985 18.751242
71.990 18.595909
71.995 18.812956
72.000 18.528744
72.005 18.263412
72.010 18.672377
72.015 18.816116
72.020 18.602856
72.025 18.136446
72.030 17.77499
72.035 17.607788
72.040 17.362892
72.045 17.570145
72.050 17.480045
72.055 18.050966
72.060 18.726639
72.065 18.88719
72.070 19.373899
72.075 19.27849
72.080 19.3585
72.085 19.655645
72.090 19.087461
72.095 18.864222
72.100 18.45368
72.105 18.213392
72.110 18.51301
72.115 18.62554
72.120 18.936529
72.125 19.539295
72.130 20.186876
72.135 20.465082
72.140 20.720669
72.145 20.083641
72.150 20.097675
72.155 19.87965
72.160 19.355364
72.165 18.94281
72.170 18.889442
72.175 18.583755
72.180 18.703854
72.185 18.462719
72.190 18.381611
72.195 18.691032
72.200 18.17425
72.205 18.453222
72.210 19.1528
72.215 20.016241
72.220 20.501646
72.225 20.356489
72.230 21.092949
72.235 21.694815
72.240 21.578127
72.245 20.871252
72.250 19.725706
72.255 19.143568
72.260 19.016499
72.265 18.095789
72.270 17.519234
72.275 17.515099
72.280 17.557444
72.285 17.656666
72.290 17.944973
72.295 18.352869
72.300 18.244761
72.305 17.96645
72.310 17.354361
72.315 17.327955
72.320 17.859854
72.325 17.687357
72.330 17.841156
72.335 18.546509
72.340 18.964001
72.345 18.861645
72.350 19.245768
72.355 18.795273
72.360 18.584755
72.365 18.367064
72.370 17.891499
72.375 17.978504
72.380 18.220896
72.385 18.221886
72.390 18.632784
72.395 18.82687
72.400 19.057701
72.405 19.4326
72.410 19.476864
72.415 19.83177
72.420 19.533276
72.425 18.857399
72.430 18.787012
72.435 18.742603
72.440 18.440683
72.445 18.252096
72.450 17.532656
72.455 17.578375
72.460 18.013395
72.465 18.046412
72.470 18.332016
72.475 18.647667
72.480 18.789227
72.485 18.916803
72.490 19.104071
72.495 18.541317
72.500 18.539019
72.505 18.432608
72.510 18.620043
72.515 18.860321
72.520 18.882435
72.525 18.660374
72.530 18.792925
72.535 18.526196
72.540 18.540173
72.545 18.067659
72.550 17.958628
72.555 18.256201
72.560 18.681696
72.565 18.07172
72.570 17.707607
72.575 17.761984
72.580 18.206598
72.585 18.222954
72.590 18.076113
72.595 18.191423
72.600 18.470964
72.605 18.996021
72.610 18.546377
72.615 18.322327
72.620 18.297115
72.625 18.198008
72.630 18.191868
72.635 17.62303
72.640 16.793211
72.645 16.495054
72.650 16.247414
72.655 15.884984
72.660 15.610214
72.665 15.717204
72.670 16.173475
72.675 17.037565
72.680 16.956654
72.685 17.406515
72.690 17.934082
72.695 18.256498
72.700 18.298449
72.705 18.218927
72.710 18.122513
72.715 18.747478
72.720 18.267372
72.725 18.373156
72.730 18.322529
72.735 18.555454
72.740 18.730961
72.745 18.754431
72.750 18.506804
72.755 18.480301
72.760 18.513697
72.765 18.912943
72.770 19.155638
72.775 18.96147
72.780 18.701599
72.785 19.064352
72.790 19.175308
72.795 18.263382
72.800 17.705952
72.805 17.364742
72.810 18.020626
72.815 18.270254
72.820 17.965
72.825 18.075476
72.830 18.084898
72.835 18.346651
72.840 17.922102
72.845 17.294203
72.850 17.225555
72.855 16.627001
72.860 16.054058
72.865 16.240629
72.870 16.376322
72.875 16.980934
72.880 17.310503
72.885 17.746161
72.890 18.428179
72.895 19.068289
72.900 19.290398
72.905 19.407711
72.910 19.426294
72.915 18.952394
72.920 18.580111
72.925 18.495304
72.930 18.469761
72.935 17.958647
72.940 17.710802
72.945 17.785919
72.950 17.816536
72.955 17.719519
72.960 17.952005
72.965 18.183193
72.970 18.384726
72.975 18.059507
72.980 17.83676
72.985 18.181953
72.990 18.167086
72.995 17.8106
73.000 17.409184
