!@!!GADDS PLOTSO FILE: Chi integration type
!@!!Title/SampleName: map-2
!@!!Comment: ?
!@!!User: Bruker Instrument Administrator
!@!!Site: University of Illinois Chicago
!@!!Frame: map-2_01_000.gfrm
!@!!Wavelengths    1.54184   1.54056   1.54439
!@!!Frame angles: 2Theta: 63.000 Omega: 50.000 Phi: 0.000 Chi: 90.000
!@!!Integration range: 2Theta: 53.000 to 73.000  Gamma: -105.000 to -75.000
!@!!Integration method: bin normalized
!@!N
!@!SS
!@!M
!@!L 0.0 0.0 0.0 0.0
!@!XDegrees
!@!YCounts
53.000 6.795475
53.005 6.753826
53.010 6.550379
53.015 6.597036
53.020 6.663143
53.025 6.729005
53.030 7.012933
53.035 7.504529
53.040 7.38587
53.045 7.428862
53.050 7.615085
53.055 7.779959
53.060 7.562381
53.065 7.546577
53.070 7.154749
53.075 7.048143
53.080 6.986558
53.085 6.717753
53.090 6.692514
53.095 6.803118
53.100 6.887512
53.105 7.116508
53.110 7.766151
53.115 7.504833
53.120 7.172894
53.125 7.369449
53.130 7.258817
53.135 6.959826
53.140 6.527966
53.145 6.166005
53.150 6.697793
53.155 7.240206
53.160 7.333843
53.165 7.989082
53.170 8.030874
53.175 7.909605
53.180 8.03493
53.185 8.014984
53.190 7.711596
53.195 7.046378
53.200 6.748137
53.205 6.996014
53.210 7.289689
53.215 7.067692
53.220 7.212895
53.225 7.749832
53.230 8.195524
53.235 8.147452
53.240 8.190201
53.245 8.308908
53.250 8.425488
53.255 7.954789
53.260 7.389815
53.265 7.078854
53.270 7.094498
53.275 7.119169
53.280 6.832141
53.285 6.856742
53.290 6.927019
53.295 7.096599
53.300 7.291446
53.305 7.494175
53.310 7.760233
53.315 8.233171
53.320 8.38023
53.325 8.653552
53.330 8.91435
53.335 8.884744
53.340 8.757074
53.345 8.724243
53.350 8.360331
53.355 7.990012
53.360 7.675179
53.365 7.5146
53.370 7.529663
53.375 7.423267
53.380 7.544325
53.385 7.784018
53.390 7.854046
53.395 7.785278
53.400 7.642208
53.405 7.367328
53.410 7.540386
53.415 7.366008
53.420 7.620989
53.425 7.890036
53.430 7.951086
53.435 8.266233
53.440 8.219251
53.445 7.980933
53.450 8.047926
53.455 8.043211
53.460 8.200554
53.465 8.166016
53.470 8.263663
53.475 8.459855
53.480 8.601786
53.485 8.796525
53.490 8.425224
53.495 7.806611
53.500 7.751394
53.505 7.447328
53.510 7.652212
53.515 7.227475
53.520 6.904818
53.525 7.055381
53.530 7.618735
53.535 7.90035
53.540 7.97995
53.545 7.719106
53.550 7.743945
53.555 7.405083
53.560 7.107831
53.565 6.697285
53.570 6.633375
53.575 6.736012
53.580 6.936974
53.585 6.95252
53.590 6.784473
53.595 7.244464
53.600 7.607277
53.605 7.6054
53.610 7.610205
53.615 8.211705
53.620 8.654908
53.625 8.91718
53.630 9.150898
53.635 8.920435
53.640 8.707552
53.645 8.168881
53.650 7.375441
53.655 7.288194
53.660 7.272723
53.665 6.977288
53.670 7.256366
53.675 7.426605
53.680 7.543429
53.685 7.871076
53.690 7.699666
53.695 7.675
53.700 7.91038
53.705 7.677804
53.710 7.876499
53.715 7.977202
53.720 7.903748
53.725 8.082511
53.730 7.593828
53.735 7.432159
53.740 7.659446
53.745 7.856446
53.750 7.960814
53.755 7.982609
53.760 8.322801
53.765 8.556446
53.770 8.727178
53.775 8.224292
53.780 7.665608
53.785 7.518916
53.790 7.297953
53.795 7.027115
53.800 7.07359
53.805 6.855185
53.810 7.242406
53.815 7.442627
53.820 7.569032
53.825 7.972236
53.830 8.467307
53.835 8.814239
53.840 8.816456
53.845 9.117066
53.850 9.279695
53.855 9.274684
53.860 9.236878
53.865 8.977098
53.870 8.917098
53.875 8.989401
53.880 8.921124
53.885 8.760705
53.890 8.641552
53.895 8.530121
53.900 8.472975
53.905 8.547882
53.910 8.389184
53.915 8.323482
53.920 8.57482
53.925 8.77018
53.930 8.9037
53.935 9.104845
53.940 9.324409
53.945 9.704181
53.950 9.527167
53.955 9.234912
53.960 8.419093
53.965 8.054655
53.970 8.002567
53.975 7.420731
53.980 7.117529
53.985 7.218079
53.990 7.797483
53.995 8.533527
54.000 8.753589
54.005 8.700794
54.010 8.738836
54.015 8.76692
54.020 8.522821
54.025 8.306156
54.030 8.142079
54.035 7.958183
54.040 7.94277
54.045 8.327489
54.050 8.290091
54.055 8.453815
54.060 8.686165
54.065 8.944613
54.070 9.345908
54.075 9.258619
54.080 8.947176
54.085 9.140371
54.090 9.11039
54.095 8.933103
54.100 8.876717
54.105 8.714627
54.110 8.914164
54.115 9.03269
54.120 8.79299
54.125 8.747173
54.130 8.312282
54.135 8.140633
54.140 8.026993
54.145 7.818076
54.150 7.748391
54.155 7.827004
54.160 7.550071
54.165 7.999595
54.170 7.790513
54.175 7.679402
54.180 7.862614
54.185 7.779623
54.190 7.729829
54.195 7.873003
54.200 8.121225
54.205 8.195614
54.210 8.092275
54.215 8.123929
54.220 8.659381
54.225 9.004775
54.230 9.082188
54.235 9.371229
54.240 9.76601
54.245 9.995847
54.250 9.929312
54.255 10.106236
54.260 10.298072
54.265 10.759542
54.270 11.157199
54.275 11.213792
54.280 11.835978
54.285 12.064665
54.290 11.97481
54.295 11.842959
54.300 10.850032
54.305 10.118541
54.310 9.687974
54.315 9.233537
54.320 9.119645
54.325 8.685074
54.330 8.544704
54.335 8.256031
54.340 8.113284
54.345 8.28329
54.350 8.347584
54.355 8.083915
54.360 8.077137
54.365 8.329073
54.370 8.745112
54.375 8.645352
54.380 8.308353
54.385 8.071401
54.390 8.477807
54.395 8.434165
54.400 8.055547
54.405 8.540651
54.410 8.986878
54.415 9.075798
54.420 8.978678
54.425 8.874971
54.430 9.102435
54.435 9.140779
54.440 8.785411
54.445 8.860442
54.450 8.681006
54.455 8.743075
54.460 8.889407
54.465 8.774255
54.470 9.329144
54.475 9.258361
54.480 9.399365
54.485 9.821272
54.490 9.265965
54.495 9.323841
54.500 9.470397
54.505 9.154558
54.510 9.348878
54.515 9.524199
54.520 9.623063
54.525 9.718653
54.530 9.228541
54.535 8.90931
54.540 8.905517
54.545 8.937401
54.550 8.377166
54.555 7.995031
54.560 8.104508
54.565 8.314463
54.570 8.535683
54.575 8.323788
54.580 7.990491
54.585 8.40321
54.590 8.886474
54.595 8.820738
54.600 9.150524
54.605 8.947502
54.610 8.924215
54.615 8.845316
54.620 8.630835
54.625 8.458323
54.630 8.622614
54.635 8.577041
54.640 8.736468
54.645 8.765731
54.650 9.259736
54.655 9.73809
54.660 9.994882
54.665 9.88843
54.670 9.61439
54.675 9.647097
54.680 9.801029
54.685 9.470308
54.690 9.12586
54.695 9.037945
54.700 9.104974
54.705 9.389591
54.710 9.176438
54.715 8.955917
54.720 8.776457
54.725 8.989008
54.730 9.053323
54.735 8.526752
54.740 8.320995
54.745 8.66508
54.750 8.881974
54.755 8.763988
54.760 8.562485
54.765 8.234815
54.770 8.72789
54.775 8.8773
54.780 8.371133
54.785 8.677478
54.790 8.889033
54.795 8.662062
54.800 8.852545
54.805 9.032635
54.810 9.218125
54.815 9.507811
54.820 8.910777
54.825 8.742146
54.830 9.162321
54.835 9.093875
54.840 8.874598
54.845 8.853177
54.850 9.365246
54.855 10.21594
54.860 10.817516
54.865 11.165566
54.870 11.118608
54.875 10.911293
54.880 10.712087
54.885 10.201382
54.890 9.893491
54.895 9.700694
54.900 9.651576
54.905 9.759342
54.910 10.089501
54.915 9.650969
54.920 9.097085
54.925 8.636588
54.930 8.618958
54.935 8.762587
54.940 8.466832
54.945 8.079062
54.950 8.437982
54.955 8.979992
54.960 9.254762
54.965 9.207889
54.970 8.927
54.975 8.930058
54.980 9.114746
54.985 9.05584
54.990 8.9552
54.995 8.797412
55.000 8.76836
55.005 9.176743
55.010 9.455003
55.015 9.752133
55.020 9.513268
55.025 9.44348
55.030 9.45913
55.035 9.00364
55.040 8.584782
55.045 8.341261
55.050 8.500005
55.055 9.004947
55.060 9.033954
55.065 8.955267
55.070 9.125405
55.075 9.632974
55.080 9.834205
55.085 8.902826
55.090 8.622294
55.095 8.418602
55.100 8.27158
55.105 8.196755
55.110 7.895379
55.115 7.83333
55.120 8.224946
55.125 8.102997
55.130 8.147266
55.135 8.440581
55.140 8.53452
55.145 8.694337
55.150 9.338328
55.155 9.80934
55.160 10.135516
55.165 10.159786
55.170 10.189181
55.175 10.213303
55.180 9.553823
55.185 8.652159
55.190 7.906014
55.195 7.703123
55.200 7.488646
55.205 7.354096
55.210 7.567331
55.215 8.095268
55.220 8.828863
55.225 9.478342
55.230 9.949056
55.235 9.908254
55.240 9.719347
55.245 9.879984
55.250 10.264441
55.255 10.286282
55.260 10.53094
55.265 10.526692
55.270 10.547555
55.275 10.716007
55.280 10.427024
55.285 9.925469
55.290 9.709672
55.295 9.5068
55.300 9.413072
55.305 9.634965
55.310 9.718748
55.315 9.903419
55.320 10.067313
55.325 10.344879
55.330 10.204283
55.335 10.346109
55.340 10.085523
55.345 10.081185
55.350 10.25318
55.355 10.298396
55.360 10.193975
55.365 9.978528
55.370 9.785792
55.375 9.737317
55.380 9.421839
55.385 9.336734
55.390 9.556952
55.395 9.469781
55.400 9.4692
55.405 9.78243
55.410 9.985311
55.415 10.009936
55.420 9.474046
55.425 9.058248
55.430 9.377831
55.435 9.711606
55.440 9.711171
55.445 9.944195
55.450 9.751931
55.455 10.248371
55.460 10.331564
55.465 10.136213
55.470 9.630594
55.475 9.436649
55.480 9.29983
55.485 9.551283
55.490 9.560433
55.495 9.660767
55.500 9.444192
55.505 10.018009
55.510 9.784203
55.515 9.964499
55.520 10.233275
55.525 10.422871
55.530 10.176682
55.535 10.171204
55.540 9.810891
55.545 9.573565
55.550 9.17499
55.555 8.958406
55.560 8.880509
55.565 9.598562
55.570 9.548416
55.575 9.597054
55.580 10.388083
55.585 10.8937
55.590 10.426875
55.595 10.424118
55.600 10.271914
55.605 10.8421
55.610 11.22853
55.615 11.077834
55.620 10.988103
55.625 11.459835
55.630 11.648383
55.635 11.630517
55.640 11.542681
55.645 11.039124
55.650 11.353491
55.655 11.395862
55.660 11.032624
55.665 10.970629
55.670 10.899372
55.675 10.945615
55.680 10.528457
55.685 9.780701
55.690 9.350734
55.695 9.321648
55.700 8.97815
55.705 9.07536
55.710 9.257183
55.715 9.560927
55.720 10.002134
55.725 10.318964
55.730 10.161667
55.735 10.264943
55.740 9.86623
55.745 9.743316
55.750 9.563564
55.755 9.312231
55.760 9.351096
55.765 9.660663
55.770 9.745588
55.775 10.046137
55.780 10.56095
55.785 11.210382
55.790 11.454872
55.795 11.384296
55.800 11.413144
55.805 11.790769
55.810 11.970848
55.815 11.922647
55.820 11.690664
55.825 11.609552
55.830 11.654403
55.835 12.062307
55.840 11.683456
55.845 11.438354
55.850 11.089644
55.855 10.98166
55.860 10.63168
55.865 10.003837
55.870 9.453074
55.875 9.523087
55.880 9.623462
55.885 9.92209
55.890 10.066172
55.895 10.597366
55.900 11.050113
55.905 11.387945
55.910 11.390334
55.915 11.044253
55.920 11.195086
55.925 10.991795
55.930 10.985137
55.935 11.040271
55.940 11.046675
55.945 11.237523
55.950 11.353242
55.955 11.081827
55.960 11.286025
55.965 11.050237
55.970 10.816887
55.975 10.603876
55.980 10.518363
55.985 10.581542
55.990 10.690566
55.995 10.799516
56.000 11.697358
56.005 11.768446
56.010 11.815286
56.015 12.186179
56.020 12.500103
56.025 12.054267
56.030 11.474603
56.035 10.689738
56.040 10.660362
56.045 10.500412
56.050 9.959854
56.055 9.673063
56.060 10.080373
56.065 10.4567
56.070 10.72082
56.075 11.326459
56.080 11.645736
56.085 11.611014
56.090 11.439603
56.095 11.340225
56.100 11.190996
56.105 10.806559
56.110 10.06075
56.115 9.95807
56.120 9.768595
56.125 10.120112
56.130 10.206828
56.135 10.423948
56.140 10.631029
56.145 10.297449
56.150 10.183863
56.155 10.265775
56.160 9.993935
56.165 10.041323
56.170 10.286892
56.175 10.825669
56.180 11.613241
56.185 11.625312
56.190 11.736319
56.195 11.805427
56.200 12.298147
56.205 12.359409
56.210 12.140714
56.215 11.772324
56.220 11.720993
56.225 11.954718
56.230 11.69547
56.235 11.594757
56.240 11.509543
56.245 11.801763
56.250 12.304479
56.255 12.63322
56.260 12.934317
56.265 12.718236
56.270 12.279941
56.275 12.125821
56.280 11.476787
56.285 11.144536
56.290 11.24728
56.295 11.357561
56.300 11.417348
56.305 11.501516
56.310 11.51299
56.315 11.521089
56.320 12.010861
56.325 11.893922
56.330 11.759178
56.335 11.879973
56.340 11.511748
56.345 11.419473
56.350 11.188707
56.355 11.109184
56.360 11.180181
56.365 11.186268
56.370 11.686856
56.375 12.300379
56.380 12.465483
56.385 12.555681
56.390 12.091083
56.395 12.026554
56.400 11.984373
56.405 11.129862
56.410 10.715903
56.415 10.423822
56.420 10.580459
56.425 10.962526
56.430 11.267471
56.435 11.111534
56.440 11.238272
56.445 11.2292
56.450 11.163326
56.455 11.028774
56.460 10.630686
56.465 10.099756
56.470 10.068104
56.475 10.235745
56.480 10.911984
56.485 11.263032
56.490 11.327567
56.495 10.970584
56.500 10.904334
56.505 11.445651
56.510 11.174013
56.515 10.35471
56.520 10.480784
56.525 10.904718
56.530 10.971042
56.535 10.833906
56.540 10.59304
56.545 10.864619
56.550 10.870089
56.555 10.212088
56.560 10.075642
56.565 10.450208
56.570 10.501768
56.575 10.297698
56.580 10.630961
56.585 10.990552
56.590 11.443774
56.595 12.091679
56.600 12.376642
56.605 12.571884
56.610 12.471274
56.615 11.774047
56.620 11.846016
56.625 11.292558
56.630 10.653462
56.635 10.574317
56.640 10.085379
56.645 9.92212
56.650 9.792661
56.655 9.775338
56.660 9.80951
56.665 10.168515
56.670 10.109212
56.675 10.92262
56.680 11.695328
56.685 12.260672
56.690 12.291508
56.695 12.317651
56.700 12.138826
56.705 12.240651
56.710 11.83559
56.715 11.706557
56.720 12.225586
56.725 12.509654
56.730 12.229207
56.735 12.11226
56.740 12.366632
56.745 12.472448
56.750 11.755187
56.755 11.576072
56.760 12.022923
56.765 13.015732
56.770 13.425159
56.775 13.407785
56.780 13.429429
56.785 13.984195
56.790 13.646505
56.795 13.181164
56.800 12.320762
56.805 12.149022
56.810 12.147153
56.815 12.287114
56.820 12.087618
56.825 12.186178
56.830 12.020637
56.835 12.08715
56.840 12.200453
56.845 11.890674
56.850 11.549191
56.855 11.375137
56.860 11.184786
56.865 11.508549
56.870 11.566782
56.875 11.082616
56.880 10.953405
56.885 11.039834
56.890 11.33304
56.895 11.352951
56.900 11.685269
56.905 11.861523
56.910 12.353869
56.915 13.217767
56.920 13.277102
56.925 13.192815
56.930 13.497145
56.935 12.877017
56.940 12.730847
56.945 12.665695
56.950 11.929777
56.955 11.840392
56.960 11.855541
56.965 11.949316
56.970 12.057946
56.975 12.348519
56.980 12.25857
56.985 12.944367
56.990 13.16122
56.995 12.854384
57.000 12.723321
57.005 12.648938
57.010 12.301925
57.015 12.349788
57.020 12.182785
57.025 11.901548
57.030 11.567169
57.035 11.231174
57.040 11.617933
57.045 11.799559
57.050 11.721342
57.055 12.131236
57.060 12.488092
57.065 13.235356
57.070 13.718164
57.075 13.95077
57.080 14.263787
57.085 14.342564
57.090 14.039707
57.095 13.870847
57.100 13.854809
57.105 13.901073
57.110 13.631036
57.115 13.39109
57.120 13.385365
57.125 13.685537
57.130 13.763302
57.135 13.54765
57.140 12.978398
57.145 12.461601
57.150 12.295056
57.155 12.018864
57.160 11.906565
57.165 11.974811
57.170 11.923492
57.175 12.09869
57.180 11.843709
57.185 12.112329
57.190 12.519945
57.195 12.159789
57.200 12.161536
57.205 11.903225
57.210 12.112344
57.215 12.82855
57.220 12.713452
57.225 12.3784
57.230 12.397413
57.235 12.595827
57.240 13.005442
57.245 12.57314
57.250 12.050942
57.255 11.861589
57.260 11.921532
57.265 11.783572
57.270 11.202618
57.275 11.332399
57.280 11.77562
57.285 11.816105
57.290 11.582231
57.295 11.436729
57.300 11.770036
57.305 12.333726
57.310 12.295273
57.315 12.401187
57.320 13.192725
57.325 13.460093
57.330 13.854027
57.335 13.902236
57.340 13.716373
57.345 13.889733
57.350 14.001458
57.355 13.641978
57.360 13.730011
57.365 14.043468
57.370 14.494884
57.375 14.643142
57.380 14.922154
57.385 14.500166
57.390 14.180771
57.395 14.137209
57.400 13.825222
57.405 13.322429
57.410 12.825709
57.415 12.387175
57.420 12.845471
57.425 13.216167
57.430 13.126099
57.435 12.718883
57.440 12.525325
57.445 12.481314
57.450 12.6861
57.455 12.750733
57.460 12.813172
57.465 13.069852
57.470 13.394386
57.475 13.416022
57.480 13.56895
57.485 13.398587
57.490 12.837034
57.495 12.102052
57.500 11.776625
57.505 11.66406
57.510 12.154347
57.515 12.225316
57.520 12.162348
57.525 12.779999
57.530 13.072299
57.535 13.390129
57.540 13.575629
57.545 13.367528
57.550 13.240206
57.555 13.534252
57.560 13.466321
57.565 13.519967
57.570 13.243171
57.575 12.542758
57.580 12.247516
57.585 11.819571
57.590 11.072566
57.595 10.988513
57.600 11.048748
57.605 10.893339
57.610 10.718186
57.615 10.681428
57.620 11.038174
57.625 11.600966
57.630 11.756181
57.635 12.08774
57.640 12.880024
57.645 13.3859
57.650 13.742475
57.655 13.621359
57.660 13.533807
57.665 13.902419
57.670 13.451954
57.675 13.20442
57.680 13.548376
57.685 13.762976
57.690 14.334432
57.695 14.176353
57.700 13.497787
57.705 13.208746
57.710 12.827749
57.715 12.668789
57.720 12.719837
57.725 12.578181
57.730 12.493406
57.735 12.975131
57.740 13.297783
57.745 13.417727
57.750 13.596071
57.755 13.777398
57.760 13.787486
57.765 13.876722
57.770 13.833491
57.775 13.919315
57.780 13.683022
57.785 13.130673
57.790 12.92948
57.795 13.241946
57.800 12.994642
57.805 12.779532
57.810 12.636668
57.815 12.948136
57.820 13.242844
57.825 13.124783
57.830 13.095776
57.835 13.260441
57.840 13.166755
57.845 12.915741
57.850 12.56563
57.855 12.610433
57.860 12.568948
57.865 12.541994
57.870 12.532651
57.875 12.557396
57.880 12.929613
57.885 12.890529
57.890 12.470963
57.895 12.4709
57.900 12.69352
57.905 13.362231
57.910 13.878713
57.915 13.974618
57.920 14.357775
57.925 14.30452
57.930 14.163532
57.935 13.885949
57.940 13.994368
57.945 13.812982
57.950 13.875317
57.955 13.693061
57.960 13.807697
57.965 13.710154
57.970 13.711946
57.975 13.29865
57.980 13.223242
57.985 13.021461
57.990 13.441519
57.995 13.040119
58.000 13.032281
58.005 13.240719
58.010 12.940229
58.015 13.205818
58.020 13.397877
58.025 13.587433
58.030 13.768781
58.035 14.031929
58.040 13.536237
58.045 13.711266
58.050 13.62029
58.055 13.225402
58.060 12.888429
58.065 12.673597
58.070 12.501925
58.075 12.93029
58.080 12.743957
58.085 13.06265
58.090 13.573778
58.095 14.154318
58.100 14.362653
58.105 14.493662
58.110 14.702182
58.115 15.121023
58.120 14.686912
58.125 13.848425
58.130 13.497266
58.135 13.727448
58.140 13.49547
58.145 13.034437
58.150 12.853722
58.155 12.98402
58.160 13.281515
58.165 13.469513
58.170 13.487082
58.175 13.919396
58.180 13.462494
58.185 13.363562
58.190 13.525544
58.195 13.363289
58.200 13.186322
58.205 12.889983
58.210 12.398012
58.215 13.057518
58.220 12.872313
58.225 12.55083
58.230 12.245506
58.235 12.086576
58.240 12.377864
58.245 12.589354
58.250 12.252479
58.255 12.120796
58.260 12.539474
58.265 12.836254
58.270 13.115724
58.275 13.125191
58.280 13.147982
58.285 13.245529
58.290 13.543401
58.295 13.799951
58.300 14.131386
58.305 14.282933
58.310 14.41276
58.315 14.411389
58.320 14.782249
58.325 14.815883
58.330 14.54824
58.335 14.629916
58.340 13.932135
58.345 13.385843
58.350 12.865933
58.355 12.523502
58.360 12.806236
58.365 13.093303
58.370 12.901352
58.375 13.566388
58.380 14.157098
58.385 15.142326
58.390 15.730827
58.395 16.302832
58.400 16.32361
58.405 16.452738
58.410 16.891386
58.415 17.147385
58.420 16.418844
58.425 15.523037
58.430 14.618677
58.435 14.609213
58.440 14.372962
58.445 13.6722
58.450 13.071679
58.455 13.262885
58.460 13.791177
58.465 13.898397
58.470 13.918255
58.475 14.107742
58.480 14.249888
58.485 14.607746
58.490 14.477043
58.495 14.367674
58.500 14.20077
58.505 13.765252
58.510 13.630616
58.515 13.53557
58.520 13.406455
58.525 13.292423
58.530 13.455633
58.535 13.236192
58.540 13.611879
58.545 13.935715
58.550 14.103378
58.555 14.37301
58.560 14.384246
58.565 14.006593
58.570 14.295295
58.575 13.946497
58.580 13.475391
58.585 13.329911
58.590 13.45686
58.595 13.942351
58.600 14.297696
58.605 14.259521
58.610 14.250882
58.615 14.285358
58.620 14.62022
58.625 14.693881
58.630 14.562327
58.635 13.973247
58.640 13.44576
58.645 13.506153
58.650 13.696591
58.655 13.218443
58.660 13.064794
58.665 13.246663
58.670 14.029275
58.675 14.866705
58.680 15.125445
58.685 15.178577
58.690 15.406769
58.695 15.293418
58.700 15.113417
58.705 14.744683
58.710 14.373969
58.715 13.978782
58.720 13.714315
58.725 13.553814
58.730 13.570833
58.735 14.240372
58.740 14.790869
58.745 15.117462
58.750 16.215157
58.755 16.570724
58.760 16.610151
58.765 16.873013
58.770 16.172266
58.775 15.401564
58.780 15.137623
58.785 14.086324
58.790 13.972065
58.795 13.982273
58.800 13.776012
58.805 13.305445
58.810 13.480337
58.815 12.95455
58.820 12.799215
58.825 12.527861
58.830 12.252839
58.835 12.829407
58.840 13.172457
58.845 12.8115
58.850 13.444662
58.855 13.918455
58.860 14.401413
58.865 14.648827
58.870 14.44439
58.875 14.482456
58.880 14.594149
58.885 14.512264
58.890 14.100576
58.895 14.368824
58.900 14.504956
58.905 14.173333
58.910 14.485085
58.915 14.522195
58.920 14.144336
58.925 14.17207
58.930 13.894833
58.935 13.418563
58.940 13.232157
58.945 12.94583
58.950 13.248006
58.955 14.264607
58.960 14.564125
58.965 14.600439
58.970 14.643164
58.975 15.073462
58.980 15.328755
58.985 15.178349
58.990 14.562113
58.995 14.559966
59.000 14.7955
59.005 14.650393
59.010 14.599366
59.015 14.951718
59.020 15.055527
59.025 15.071077
59.030 14.461233
59.035 14.118882
59.040 14.275448
59.045 14.636748
59.050 14.517238
59.055 14.897545
59.060 15.076679
59.065 15.264468
59.070 15.713436
59.075 16.334343
59.080 16.658104
59.085 16.669481
59.090 16.483624
59.095 16.529613
59.100 16.708946
59.105 16.063335
59.110 15.386736
59.115 14.77968
59.120 15.075876
59.125 15.118817
59.130 15.033106
59.135 15.221754
59.140 15.481034
59.145 15.513038
59.150 15.454695
59.155 15.045622
59.160 15.345853
59.165 15.270114
59.170 15.28386
59.175 15.345063
59.180 15.13102
59.185 14.984389
59.190 14.97428
59.195 14.527394
59.200 14.797026
59.205 14.275206
59.210 14.33893
59.215 14.426096
59.220 14.402907
59.225 14.630421
59.230 15.419115
59.235 15.060308
59.240 15.222768
59.245 15.499679
59.250 15.992192
59.255 16.594633
59.260 16.358217
59.265 15.993939
59.270 15.900997
59.275 16.181181
59.280 15.746353
59.285 15.304718
59.290 14.51631
59.295 14.650655
59.300 14.769834
59.305 14.703307
59.310 14.167463
59.315 14.538874
59.320 14.730084
59.325 15.69897
59.330 15.579527
59.335 15.175559
59.340 15.088038
59.345 14.850468
59.350 14.440571
59.355 14.647332
59.360 14.18541
59.365 13.835604
59.370 14.214003
59.375 14.985415
59.380 15.088138
59.385 14.928461
59.390 14.511618
59.395 14.26589
59.400 14.286826
59.405 14.396715
59.410 14.10122
59.415 14.54073
59.420 14.743785
59.425 14.934714
59.430 15.414509
59.435 15.972637
59.440 15.73155
59.445 15.928506
59.450 16.238117
59.455 16.474138
59.460 16.652645
59.465 16.295218
59.470 15.970106
59.475 16.638737
59.480 17.099722
59.485 17.034735
59.490 17.320278
59.495 17.337906
59.500 17.163609
59.505 17.184422
59.510 16.435854
59.515 16.107504
59.520 15.976183
59.525 15.844069
59.530 15.408899
59.535 15.40764
59.540 15.386893
59.545 15.905025
59.550 16.132114
59.555 16.172451
59.560 16.001585
59.565 16.2292
59.570 16.630604
59.575 16.928709
59.580 16.768723
59.585 16.383173
59.590 16.509998
59.595 16.287428
59.600 16.460627
59.605 16.710867
59.610 16.517828
59.615 16.825098
59.620 17.163418
59.625 16.995243
59.630 17.981983
59.635 18.315168
59.640 18.191294
59.645 18.442886
59.650 17.912361
59.655 17.557837
59.660 17.717268
59.665 17.051294
59.670 17.116535
59.675 17.367369
59.680 17.173174
59.685 16.9552
59.690 16.883627
59.695 17.347137
59.700 18.006508
59.705 17.88209
59.710 17.672518
59.715 17.656197
59.720 17.975241
59.725 17.908455
59.730 17.05578
59.735 16.869308
59.740 16.753788
59.745 17.099154
59.750 16.946344
59.755 16.728525
59.760 17.029177
59.765 17.382919
59.770 17.45746
59.775 17.781672
59.780 17.606932
59.785 17.888035
59.790 18.136177
59.795 18.193413
59.800 18.480947
59.805 17.898964
59.810 17.929195
59.815 18.594707
59.820 19.390753
59.825 19.638975
59.830 19.567764
59.835 19.549652
59.840 20.093004
59.845 19.836504
59.850 19.303173
59.855 18.793207
59.860 18.710661
59.865 19.061945
59.870 18.904383
59.875 19.188631
59.880 19.109003
59.885 19.123058
59.890 19.29772
59.895 19.420849
59.900 19.228485
59.905 19.321547
59.910 19.123081
59.915 19.252483
59.920 19.370493
59.925 19.490438
59.930 19.691797
59.935 19.808395
59.940 19.451088
59.945 18.556438
59.950 18.11965
59.955 18.350021
59.960 18.486885
59.965 18.416719
59.970 18.145216
59.975 17.973974
59.980 17.788944
59.985 18.227859
59.990 18.202055
59.995 17.766653
60.000 17.818542
60.005 17.995689
60.010 18.839422
60.015 19.019636
60.020 18.628275
60.025 18.845436
60.030 19.106808
60.035 19.100172
60.040 18.984037
60.045 19.545511
60.050 20.186195
60.055 20.417103
60.060 20.021347
60.065 19.326862
60.070 19.214369
60.075 19.270634
60.080 19.203644
60.085 20.312019
60.090 20.583866
60.095 20.745388
60.100 21.22509
60.105 21.951277
60.110 21.652302
60.115 21.037273
60.120 19.82609
60.125 19.628777
60.130 19.395433
60.135 19.341419
60.140 18.582943
60.145 18.649834
60.150 19.817282
60.155 20.673594
60.160 20.275217
60.165 20.301805
60.170 21.132231
60.175 21.778446
60.180 22.471668
60.185 21.775284
60.190 21.409306
60.195 21.958765
60.200 22.15987
60.205 21.462973
60.210 21.053179
60.215 20.405052
60.220 19.562845
60.225 19.646418
60.230 19.771179
60.235 19.858702
60.240 20.100197
60.245 19.841028
60.250 19.650696
60.255 20.071751
60.260 20.27692
60.265 20.129379
60.270 19.661299
60.275 19.729437
60.280 19.960222
60.285 20.488577
60.290 20.567307
60.295 19.737225
60.300 19.339243
60.305 19.543137
60.310 19.506014
60.315 19.781483
60.320 19.942505
60.325 19.954048
60.330 19.788527
60.335 20.481359
60.340 20.659363
60.345 20.038631
60.350 19.97014
60.355 19.705372
60.360 19.581007
60.365 19.941391
60.370 19.722057
60.375 19.456022
60.380 19.948681
60.385 19.343145
60.390 19.031858
60.395 20.295671
60.400 20.104273
60.405 20.235456
60.410 20.815573
60.415 21.334717
60.420 21.534023
60.425 21.261705
60.430 20.242386
60.435 20.320152
60.440 20.428719
60.445 20.222807
60.450 20.083992
60.455 20.227551
60.460 20.269808
60.465 20.670425
60.470 20.75214
60.475 20.229803
60.480 19.896778
60.485 19.27997
60.490 19.103529
60.495 19.837637
60.500 19.66259
60.505 19.81719
60.510 19.940226
60.515 20.244024
60.520 20.6374
60.525 20.977053
60.530 19.943027
60.535 19.889257
60.540 19.976774
60.545 19.472744
60.550 19.394224
60.555 19.338781
60.560 19.643492
60.565 19.98037
60.570 19.045004
60.575 18.555386
60.580 18.774525
60.585 19.1159
60.590 18.937847
60.595 18.238411
60.600 18.37948
60.605 19.000559
60.610 19.111568
60.615 18.974623
60.620 18.87801
60.625 18.934502
60.630 19.213907
60.635 18.943039
60.640 18.898138
60.645 19.044498
60.650 18.639612
60.655 18.26989
60.660 18.135229
60.665 17.949873
60.670 17.863014
60.675 17.204573
60.680 17.384125
60.685 17.49567
60.690 16.979847
60.695 17.168205
60.700 17.466303
60.705 17.867275
60.710 17.738365
60.715 17.590879
60.720 17.512794
60.725 17.383656
60.730 16.601749
60.735 16.054281
60.740 15.972252
60.745 16.22748
60.750 16.191271
60.755 16.392788
60.760 16.809864
60.765 17.822605
60.770 18.039284
60.775 17.943457
60.780 18.667034
60.785 18.735411
60.790 18.502039
60.795 18.702559
60.800 18.515257
60.805 18.50161
60.810 18.985809
60.815 18.202427
60.820 17.58239
60.825 17.485643
60.830 17.023043
60.835 17.276449
60.840 17.641691
60.845 17.461748
60.850 18.096949
60.855 18.917536
60.860 18.692696
60.865 18.263708
60.870 17.720745
60.875 17.235569
60.880 17.055527
60.885 16.622042
60.890 15.817089
60.895 16.253147
60.900 16.768057
60.905 17.013382
60.910 17.063011
60.915 16.419508
60.920 16.709412
60.925 17.452961
60.930 17.629076
60.935 17.817707
60.940 17.667797
60.945 17.720581
60.950 17.692984
60.955 17.462868
60.960 17.157925
60.965 16.307083
60.970 15.506319
60.975 15.486366
60.980 15.672413
60.985 15.761216
60.990 15.623216
60.995 15.394947
61.000 15.542483
61.005 15.528851
61.010 15.437284
61.015 14.892624
61.020 14.390768
61.025 14.116599
61.030 14.587921
61.035 15.557123
61.040 16.048134
61.045 16.190784
61.050 16.567152
61.055 17.331074
61.060 17.923416
61.065 18.066168
61.070 17.923544
61.075 17.503077
61.080 17.223404
61.085 17.409048
61.090 17.150539
61.095 17.125788
61.100 17.086691
61.105 17.004135
61.110 16.97208
61.115 16.822968
61.120 16.304653
61.125 16.156771
61.130 15.689429
61.135 15.28089
61.140 14.844554
61.145 15.27083
61.150 15.115917
61.155 14.717497
61.160 14.420808
61.165 14.254885
61.170 13.997807
61.175 14.628407
61.180 14.510581
61.185 14.730353
61.190 15.046131
61.195 15.682429
61.200 16.753513
61.205 16.847902
61.210 16.530699
61.215 16.879992
61.220 16.708689
61.225 16.783142
61.230 16.143581
61.235 15.572481
61.240 15.86487
61.245 15.848356
61.250 15.516388
61.255 16.102165
61.260 16.031816
61.265 15.941714
61.270 15.731129
61.275 15.021653
61.280 14.86169
61.285 15.279136
61.290 15.527332
61.295 15.778983
61.300 16.136385
61.305 16.364147
61.310 17.234337
61.315 17.303539
61.320 16.995317
61.325 16.961874
61.330 17.081539
61.335 17.169065
61.340 17.27816
61.345 16.804976
61.350 16.433538
61.355 15.846612
61.360 15.656989
61.365 15.736601
61.370 15.422471
61.375 14.949457
61.380 15.076496
61.385 15.278722
61.390 15.802199
61.395 15.728576
61.400 15.669733
61.405 16.232401
61.410 16.671476
61.415 16.248098
61.420 15.95542
61.425 15.815459
61.430 16.25938
61.435 16.156267
61.440 15.702981
61.445 15.840983
61.450 16.408388
61.455 17.082834
61.460 16.888567
61.465 16.331921
61.470 16.199289
61.475 16.101192
61.480 16.169899
61.485 16.099422
61.490 16.094728
61.495 16.397158
61.500 16.432575
61.505 16.228086
61.510 15.739549
61.515 15.525603
61.520 15.310407
61.525 15.286324
61.530 15.44382
61.535 15.428298
61.540 15.750735
61.545 16.583906
61.550 16.889053
61.555 17.22443
61.560 17.018053
61.565 17.226604
61.570 17.945053
61.575 17.794178
61.580 17.445269
61.585 17.337687
61.590 17.175035
61.595 16.929655
61.600 16.218056
61.605 15.76114
61.610 15.709093
61.615 15.597018
61.620 15.698677
61.625 15.775991
61.630 15.590069
61.635 15.791211
61.640 15.994419
61.645 16.498201
61.650 16.209299
61.655 15.60569
61.660 15.865817
61.665 16.224241
61.670 15.996979
61.675 15.913369
61.680 15.243799
61.685 15.056886
61.690 15.312274
61.695 15.464846
61.700 15.774698
61.705 16.076262
61.710 15.875642
61.715 16.373884
61.720 17.329733
61.725 17.488701
61.730 16.86109
61.735 17.139996
61.740 17.261038
61.745 17.579525
61.750 17.676203
61.755 17.262808
61.760 17.307831
61.765 17.325747
61.770 17.161348
61.775 17.019852
61.780 16.211071
61.785 15.417023
61.790 15.383014
61.795 15.395109
61.800 15.586746
61.805 15.061943
61.810 14.989464
61.815 16.000523
61.820 16.572882
61.825 16.801813
61.830 16.785721
61.835 16.350628
61.840 16.66412
61.845 16.978064
61.850 16.657661
61.855 16.489677
61.860 15.808422
61.865 15.878098
61.870 16.664356
61.875 16.847282
61.880 17.095016
61.885 17.392027
61.890 17.683586
61.895 18.084179
61.900 18.352383
61.905 18.247839
61.910 17.965593
61.915 17.758463
61.920 17.305414
61.925 17.153887
61.930 16.701231
61.935 16.232576
61.940 15.756826
61.945 15.148569
61.950 14.604559
61.955 14.590621
61.960 14.651253
61.965 15.095403
61.970 15.046567
61.975 15.202076
61.980 15.317711
61.985 15.527162
61.990 15.928615
61.995 15.884789
62.000 15.320742
62.005 15.325593
62.010 15.363094
62.015 15.748595
62.020 15.278288
62.025 15.139947
62.030 15.084609
62.035 15.160633
62.040 15.472429
62.045 15.8308
62.050 16.189066
62.055 16.078547
62.060 15.705039
62.065 15.575218
62.070 15.363427
62.075 15.303321
62.080 15.709121
62.085 16.018272
62.090 16.799391
62.095 17.055435
62.100 17.674028
62.105 17.572689
62.110 17.223482
62.115 16.458117
62.120 16.091999
62.125 15.973756
62.130 15.910298
62.135 15.874413
62.140 16.100573
62.145 16.113247
62.150 16.458361
62.155 16.532291
62.160 16.617689
62.165 17.011208
62.170 16.79549
62.175 16.619478
62.180 16.693535
62.185 16.683342
62.190 16.679953
62.195 16.344933
62.200 15.73922
62.205 15.31731
62.210 15.517792
62.215 14.993373
62.220 14.424414
62.225 14.297557
62.230 14.81379
62.235 14.824377
62.240 15.521845
62.245 15.538345
62.250 16.000406
62.255 16.403229
62.260 16.331894
62.265 16.34915
62.270 16.360039
62.275 16.179327
62.280 16.364292
62.285 16.062027
62.290 15.368008
62.295 15.302464
62.300 14.773338
62.305 14.440405
62.310 14.054742
62.315 13.969388
62.320 14.505629
62.325 15.272712
62.330 15.427205
62.335 16.109341
62.340 16.478716
62.345 16.908606
62.350 16.601673
62.355 16.814177
62.360 17.243887
62.365 17.156952
62.370 16.812109
62.375 16.800217
62.380 17.038074
62.385 17.591717
62.390 16.758902
62.395 16.2666
62.400 16.706543
62.405 17.310419
62.410 17.25701
62.415 16.801497
62.420 16.321608
62.425 16.73304
62.430 16.499643
62.435 16.107742
62.440 16.248302
62.445 16.511477
62.450 16.681166
62.455 16.886219
62.460 17.450108
62.465 18.17271
62.470 18.063885
62.475 17.426065
62.480 17.286297
62.485 17.131575
62.490 17.54903
62.495 17.252972
62.500 16.675131
62.505 16.95598
62.510 17.360338
62.515 17.692148
62.520 17.916031
62.525 17.330912
62.530 16.798176
62.535 16.942656
62.540 16.760303
62.545 16.666267
62.550 15.796519
62.555 15.313286
62.560 15.022858
62.565 15.102702
62.570 15.209455
62.575 15.549891
62.580 15.816931
62.585 16.256018
62.590 16.693905
62.595 16.937691
62.600 16.969725
62.605 16.840181
62.610 16.275181
62.615 15.805085
62.620 16.573807
62.625 16.634996
62.630 16.326797
62.635 15.901668
62.640 15.556931
62.645 15.149172
62.650 15.030252
62.655 14.231429
62.660 14.158529
62.665 14.621984
62.670 15.238005
62.675 15.422615
62.680 16.396282
62.685 16.497362
62.690 16.702068
62.695 17.006409
62.700 16.923166
62.705 17.098289
62.710 17.294777
62.715 16.906511
62.720 16.935829
62.725 17.070265
62.730 17.210192
62.735 17.972172
62.740 18.077776
62.745 18.281815
62.750 18.873714
62.755 19.461395
62.760 19.415003
62.765 19.345655
62.770 18.336731
62.775 17.818619
62.780 17.683998
62.785 17.224167
62.790 16.426998
62.795 15.989524
62.800 15.688636
62.805 16.295424
62.810 16.586985
62.815 16.310526
62.820 16.431343
62.825 16.918175
62.830 17.691626
62.835 17.87501
62.840 17.29291
62.845 17.219866
62.850 17.212347
62.855 16.85564
62.860 16.638876
62.865 15.902568
62.870 15.850304
62.875 16.339224
62.880 16.197899
62.885 16.018476
62.890 15.854973
62.895 15.631518
62.900 16.37862
62.905 16.787386
62.910 16.118864
62.915 15.659876
62.920 15.670185
62.925 15.912871
62.930 16.338945
62.935 15.513085
62.940 15.178814
62.945 15.50168
62.950 15.817869
62.955 15.950104
62.960 15.989304
62.965 15.490793
62.970 15.735364
62.975 15.632998
62.980 15.472209
62.985 15.592142
62.990 15.92642
62.995 16.354864
63.000 16.739346
63.005 17.202925
63.010 17.807806
63.015 18.563644
63.020 18.744026
63.025 18.577349
63.030 18.192774
63.035 18.396433
63.040 18.09967
63.045 17.55608
63.050 17.242138
63.055 17.2679
63.060 17.324192
63.065 17.268044
63.070 16.761705
63.075 16.483463
63.080 16.493237
63.085 16.75931
63.090 16.827831
63.095 16.372684
63.100 15.841187
63.105 16.202166
63.110 16.808428
63.115 17.072687
63.120 17.14863
63.125 16.910955
63.130 17.184698
63.135 17.69755
63.140 17.038998
63.145 16.335569
63.150 15.978454
63.155 15.883934
63.160 16.238197
63.165 15.63093
63.170 15.142654
63.175 15.240614
63.180 15.55372
63.185 15.524459
63.190 15.22439
63.195 14.740231
63.200 15.626371
63.205 16.075308
63.210 16.93788
63.215 16.773272
63.220 16.59947
63.225 15.905736
63.230 16.272371
63.235 16.166407
63.240 15.869191
63.245 15.701064
63.250 16.36655
63.255 16.636929
63.260 17.329142
63.265 17.067377
63.270 17.397018
63.275 17.828308
63.280 17.715729
63.285 17.093407
63.290 16.768322
63.295 16.830511
63.300 17.452223
63.305 17.147844
63.310 17.000395
63.315 16.682207
63.320 16.851231
63.325 17.311371
63.330 16.808062
63.335 16.391825
63.340 15.77638
63.345 15.788801
63.350 16.016775
63.355 16.63381
63.360 16.94306
63.365 17.197517
63.370 17.320686
63.375 17.828621
63.380 18.073046
63.385 17.786552
63.390 17.098543
63.395 16.843658
63.400 17.610289
63.405 17.850409
63.410 17.744589
63.415 17.047064
63.420 17.10042
63.425 17.465199
63.430 17.425728
63.435 16.969955
63.440 17.118572
63.445 17.479437
63.450 18.332571
63.455 18.703161
63.460 18.486422
63.465 18.511379
63.470 18.29726
63.475 17.8106
63.480 17.221895
63.485 16.796007
63.490 16.215824
63.495 16.065289
63.500 15.864193
63.505 16.252466
63.510 16.926392
63.515 17.426332
63.520 17.560278
63.525 17.678448
63.530 17.629021
63.535 17.562593
63.540 17.268505
63.545 17.327272
63.550 16.771957
63.555 16.369263
63.560 16.646427
63.565 17.269007
63.570 17.378929
63.575 17.574411
63.580 17.119864
63.585 17.007177
63.590 17.111441
63.595 16.222612
63.600 15.633761
63.605 15.976613
63.610 15.903749
63.615 15.978418
63.620 16.261822
63.625 16.352016
63.630 17.270063
63.635 17.117752
63.640 16.76165
63.645 16.682405
63.650 16.650988
63.655 16.743876
63.660 16.956039
63.665 17.00206
63.670 17.90291
63.675 17.511776
63.680 17.578344
63.685 17.589724
63.690 18.161837
63.695 17.712086
63.700 17.672539
63.705 17.545727
63.710 17.879736
63.715 17.82987
63.720 17.75803
63.725 17.181599
63.730 17.831776
63.735 17.785591
63.740 18.114269
63.745 18.065105
63.750 17.670383
63.755 17.416265
63.760 17.133459
63.765 16.281796
63.770 15.808377
63.775 15.192359
63.780 15.353931
63.785 16.149744
63.790 16.004452
63.795 16.562071
63.800 16.573704
63.805 17.228374
63.810 17.001486
63.815 17.472366
63.820 17.045656
63.825 17.056547
63.830 16.926319
63.835 17.87631
63.840 17.63846
63.845 17.823126
63.850 17.385717
63.855 17.240551
63.860 17.388084
63.865 16.983768
63.870 16.270706
63.875 16.320835
63.880 16.988028
63.885 17.169355
63.890 17.601133
63.895 17.709614
63.900 17.768291
63.905 17.755312
63.910 17.322565
63.915 16.825684
63.920 16.49087
63.925 16.648724
63.930 16.456413
63.935 17.067236
63.940 17.363464
63.945 17.28775
63.950 16.839962
63.955 16.872553
63.960 17.078564
63.965 17.306778
63.970 16.575483
63.975 16.258778
63.980 16.339863
63.985 16.624157
63.990 16.541718
63.995 15.963572
64.000 16.034431
64.005 16.584866
64.010 17.037359
64.015 17.706856
64.020 18.326277
64.025 18.636597
64.030 18.891335
64.035 19.020876
64.040 19.078936
64.045 18.698816
64.050 17.987576
64.055 17.755146
64.060 17.441772
64.065 17.091198
64.070 17.005772
64.075 17.260122
64.080 17.943375
64.085 18.326069
64.090 17.77944
64.095 18.146414
64.100 18.55234
64.105 18.645985
64.110 17.782745
64.115 17.615391
64.120 18.019938
64.125 18.059423
64.130 17.969568
64.135 17.886551
64.140 18.161488
64.145 18.771143
64.150 17.894842
64.155 17.471491
64.160 17.401361
64.165 17.588343
64.170 17.461168
64.175 17.087259
64.180 17.274097
64.185 17.855177
64.190 17.73591
64.195 17.491148
64.200 17.383678
64.205 17.437654
64.210 17.873848
64.215 17.858107
64.220 17.623852
64.225 17.395769
64.230 17.783455
64.235 17.703976
64.240 17.803328
64.245 17.0128
64.250 16.506187
64.255 16.639032
64.260 16.998863
64.265 16.809748
64.270 16.483759
64.275 16.287996
64.280 16.475096
64.285 16.606827
64.290 16.270641
64.295 16.238176
64.300 16.827662
64.305 17.260649
64.310 17.342878
64.315 17.525045
64.320 18.212219
64.325 18.801323
64.330 18.566206
64.335 18.036242
64.340 17.570137
64.345 17.743265
64.350 17.671553
64.355 17.234318
64.360 16.976664
64.365 17.163738
64.370 17.764805
64.375 17.816071
64.380 18.114586
64.385 18.390966
64.390 18.300188
64.395 18.202744
64.400 18.085741
64.405 17.872416
64.410 18.089016
64.415 17.91786
64.420 17.74745
64.425 17.653898
64.430 17.444143
64.435 17.249437
64.440 16.967409
64.445 16.775042
64.450 16.325974
64.455 16.241776
64.460 16.509771
64.465 16.498957
64.470 16.69706
64.475 16.747086
64.480 16.872923
64.485 17.416079
64.490 17.571306
64.495 17.852348
64.500 18.721296
64.505 19.205523
64.510 19.164003
64.515 19.221455
64.520 19.011333
64.525 18.558018
64.530 18.280006
64.535 18.185972
64.540 17.683027
64.545 17.419851
64.550 17.31707
64.555 17.229227
64.560 17.681532
64.565 17.94026
64.570 17.529924
64.575 17.875721
64.580 17.709162
64.585 17.505697
64.590 17.456472
64.595 17.159536
64.600 16.890368
64.605 16.9807
64.610 17.497194
64.615 17.847893
64.620 17.773462
64.625 17.979826
64.630 18.052792
64.635 18.285181
64.640 18.197458
64.645 17.884918
64.650 18.126154
64.655 18.869371
64.660 18.988935
64.665 19.167469
64.670 19.152416
64.675 19.348984
64.680 19.117146
64.685 18.843327
64.690 18.894445
64.695 19.18066
64.700 19.178045
64.705 19.165163
64.710 19.109009
64.715 19.474403
64.720 19.399006
64.725 18.620739
64.730 18.279625
64.735 18.100088
64.740 18.289854
64.745 18.026159
64.750 17.760832
64.755 17.355471
64.760 17.848074
64.765 18.260986
64.770 18.49843
64.775 18.665855
64.780 18.956215
64.785 19.029892
64.790 19.657482
64.795 19.346725
64.800 19.477095
64.805 19.056608
64.810 19.028719
64.815 18.96496
64.820 18.688324
64.825 18.334002
64.830 18.904497
64.835 18.872858
64.840 19.524832
64.845 19.708757
64.850 19.474522
64.855 19.600134
64.860 19.96306
64.865 19.958836
64.870 19.688967
64.875 19.1014
64.880 18.854464
64.885 18.804192
64.890 19.365433
64.895 19.044933
64.900 18.326202
64.905 18.395761
64.910 18.573788
64.915 19.457766
64.920 20.256937
64.925 20.215347
64.930 20.742445
64.935 21.138832
64.940 21.272627
64.945 20.935949
64.950 20.41489
64.955 19.962246
64.960 19.732855
64.965 19.757387
64.970 20.396748
64.975 20.628588
64.980 21.39114
64.985 21.483555
64.990 21.875448
64.995 22.039021
65.000 21.880487
65.005 21.520166
65.010 21.474594
65.015 20.684845
65.020 20.625256
65.025 20.335659
65.030 19.971323
65.035 20.139107
65.040 20.185759
65.045 20.172539
65.050 20.510017
65.055 20.280518
65.060 20.42528
65.065 20.741987
65.070 20.090336
65.075 19.482195
65.080 19.654154
65.085 20.103096
65.090 20.772276
65.095 21.085991
65.100 21.250546
65.105 22.218515
65.110 22.677498
65.115 22.256592
65.120 22.055353
65.125 22.574959
65.130 22.569771
65.135 22.72835
65.140 22.678118
65.145 22.827049
65.150 22.46814
65.155 22.885408
65.160 22.400961
65.165 21.93663
65.170 22.008003
65.175 21.384245
65.180 20.713099
65.185 20.76697
65.190 19.879213
65.195 19.796505
65.200 19.673695
65.205 19.281248
65.210 19.927166
65.215 20.456617
65.220 21.086899
65.225 21.409288
65.230 21.530994
65.235 21.553307
65.240 21.94886
65.245 22.147001
65.250 21.885406
65.255 21.571543
65.260 20.910618
65.265 20.621368
65.270 20.371801
65.275 19.954548
65.280 19.944878
65.285 20.284937
65.290 20.252779
65.295 21.190973
65.300 21.762129
65.305 22.817053
65.310 23.096785
65.315 22.956186
65.320 22.726616
65.325 22.973448
65.330 22.803349
65.335 22.829266
65.340 23.210978
65.345 23.242762
65.350 23.074997
65.355 22.945208
65.360 22.436686
65.365 21.978609
65.370 21.726379
65.375 20.82559
65.380 21.029186
65.385 21.366932
65.390 21.611969
65.395 21.811457
65.400 22.034647
65.405 22.600548
65.410 22.802822
65.415 22.781273
65.420 23.012299
65.425 23.003553
65.430 23.20635
65.435 22.848787
65.440 23.112177
65.445 23.217083
65.450 23.088491
65.455 22.574684
65.460 23.342855
65.465 24.390696
65.470 24.358707
65.475 23.660122
65.480 23.080595
65.485 22.860949
65.490 23.129993
65.495 22.91287
65.500 22.127266
65.505 22.536453
65.510 23.396923
65.515 24.014124
65.520 24.805185
65.525 25.253254
65.530 25.849104
65.535 26.568834
65.540 27.490229
65.545 27.632612
65.550 27.754036
65.555 27.691229
65.560 28.088255
65.565 27.925505
65.570 28.60457
65.575 28.555336
65.580 28.799313
65.585 29.171688
65.590 29.214426
65.595 29.526005
65.600 29.299751
65.605 28.91427
65.610 28.095098
65.615 27.743462
65.620 27.755354
65.625 27.728245
65.630 27.090919
65.635 27.1413
65.640 27.153156
65.645 27.691668
65.650 28.502239
65.655 28.780941
65.660 29.429667
65.665 30.105244
65.670 30.741207
65.675 30.967989
65.680 31.03281
65.685 30.70298
65.690 30.230577
65.695 30.57053
65.700 30.935949
65.705 30.872183
65.710 30.806477
65.715 31.567003
65.720 31.691586
65.725 31.645863
65.730 31.538937
65.735 32.087036
65.740 32.543865
65.745 33.036789
65.750 32.996704
65.755 34.04015
65.760 34.67894
65.765 34.763386
65.770 34.897045
65.775 35.152397
65.780 35.023495
65.785 36.284206
65.790 36.817806
65.795 36.970509
65.800 36.640511
65.805 36.496651
65.810 36.5504
65.815 37.158714
65.820 36.16856
65.825 35.576714
65.830 35.519878
65.835 36.201008
65.840 36.507481
65.845 35.851612
65.850 35.620583
65.855 36.414051
65.860 36.549614
65.865 36.020355
65.870 35.430431
65.875 35.374432
65.880 35.431519
65.885 35.033268
65.890 35.139202
65.895 35.880108
65.900 37.40015
65.905 38.505699
65.910 38.067795
65.915 38.386578
65.920 38.96582
65.925 38.505619
65.930 37.859371
65.935 36.685284
65.940 35.452854
65.945 35.166088
65.950 35.128326
65.955 34.827881
65.960 35.183411
65.965 35.764694
65.970 36.535198
65.975 37.437508
65.980 38.17152
65.985 38.04652
65.990 37.474571
65.995 36.800808
66.000 35.967323
66.005 34.608131
66.010 34.35461
66.015 34.767048
66.020 35.491169
66.025 36.08828
66.030 37.432976
66.035 38.076897
66.040 38.947575
66.045 38.366379
66.050 38.265362
66.055 38.331367
66.060 38.130398
66.065 38.407269
66.070 38.73988
66.075 39.359459
66.080 39.590023
66.085 38.923599
66.090 38.782413
66.095 38.504963
66.100 37.293926
66.105 36.730373
66.110 36.267658
66.115 36.516148
66.120 36.658497
66.125 36.116001
66.130 35.571613
66.135 35.618862
66.140 35.217857
66.145 34.838356
66.150 34.323097
66.155 33.997086
66.160 33.787289
66.165 34.261818
66.170 34.409103
66.175 34.123375
66.180 33.277702
66.185 33.286087
66.190 33.369518
66.195 34.215775
66.200 33.748722
66.205 34.001816
66.210 34.69545
66.215 34.925991
66.220 35.187038
66.225 34.984959
66.230 34.74902
66.235 34.822247
66.240 33.901352
66.245 33.702087
66.250 34.098194
66.255 34.354721
66.260 34.398479
66.265 33.763706
66.270 33.936409
66.275 33.533192
66.280 34.018253
66.285 33.552757
66.290 33.521385
66.295 33.683449
66.300 33.274475
66.305 33.367199
66.310 33.19006
66.315 32.840694
66.320 32.864311
66.325 32.305393
66.330 32.445705
66.335 32.44355
66.340 32.184814
66.345 32.362457
66.350 31.974899
66.355 31.964251
66.360 31.862783
66.365 30.663013
66.370 29.561251
66.375 28.935862
66.380 29.109365
66.385 28.86009
66.390 28.643373
66.395 28.844648
66.400 29.464808
66.405 29.832624
66.410 30.000042
66.415 30.223196
66.420 29.793976
66.425 29.73461
66.430 28.906279
66.435 28.540421
66.440 28.61743
66.445 28.102686
66.450 27.525402
66.455 27.566511
66.460 27.041452
66.465 27.721287
66.470 28.525652
66.475 29.181696
66.480 29.048761
66.485 29.00568
66.490 28.972786
66.495 28.836323
66.500 28.340042
66.505 27.941103
66.510 27.450079
66.515 27.198612
66.520 26.846994
66.525 26.48798
66.530 26.250109
66.535 26.362095
66.540 26.50646
66.545 26.552336
66.550 26.932682
66.555 26.937525
66.560 26.846809
66.565 26.905027
66.570 26.8866
66.575 26.239683
66.580 25.229193
66.585 24.232323
66.590 24.409416
66.595 24.510551
66.600 24.059984
66.605 23.657875
66.610 23.436842
66.615 24.219948
66.620 23.802685
66.625 23.501703
66.630 24.176086
66.635 24.763887
66.640 24.835373
66.645 24.572905
66.650 24.295225
66.655 24.661131
66.660 24.436083
66.665 23.754551
66.670 23.16868
66.675 23.428692
66.680 23.784142
66.685 23.591827
66.690 24.515917
66.695 25.137815
66.700 25.141928
66.705 25.15066
66.710 25.106224
66.715 24.812449
66.720 24.491177
66.725 23.427023
66.730 22.661289
66.735 22.536474
66.740 22.181694
66.745 22.17115
66.750 22.920715
66.755 23.294235
66.760 23.26886
66.765 23.717157
66.770 24.209646
66.775 24.302517
66.780 24.494806
66.785 24.213696
66.790 24.418737
66.795 24.259731
66.800 23.531202
66.805 22.859369
66.810 22.256948
66.815 22.158834
66.820 22.04113
66.825 21.86503
66.830 21.476757
66.835 21.764849
66.840 22.244307
66.845 22.669163
66.850 22.458406
66.855 22.445208
66.860 22.662107
66.865 23.201424
66.870 23.515713
66.875 23.306675
66.880 23.092699
66.885 23.081629
66.890 22.97121
66.895 23.110863
66.900 23.197565
66.905 23.153633
66.910 22.89328
66.915 22.420963
66.920 22.006338
66.925 21.656115
66.930 21.362377
66.935 21.551676
66.940 22.130848
66.945 22.636929
66.950 22.758303
66.955 22.283531
66.960 22.68236
66.965 23.110649
66.970 22.738211
66.975 22.340464
66.980 22.523911
66.985 23.042543
66.990 23.517494
66.995 23.425663
67.000 22.461246
67.005 22.359385
67.010 22.238268
67.015 22.089157
67.020 21.573717
67.025 21.373869
67.030 20.934776
67.035 21.553371
67.040 21.719048
67.045 21.313862
67.050 21.531607
67.055 21.777229
67.060 22.402027
67.065 22.834925
67.070 22.418846
67.075 22.22534
67.080 22.534334
67.085 22.443544
67.090 22.121059
67.095 21.68405
67.100 21.205454
67.105 21.033636
67.110 20.73357
67.115 20.930075
67.120 21.171926
67.125 21.448477
67.130 21.311703
67.135 21.507195
67.140 21.049917
67.145 21.488277
67.150 21.509377
67.155 20.992649
67.160 20.8069
67.165 20.804579
67.170 20.604198
67.175 21.23222
67.180 21.12583
67.185 21.388226
67.190 22.051723
67.195 21.983698
67.200 21.679752
67.205 21.597809
67.210 21.538548
67.215 21.130054
67.220 20.777887
67.225 20.668713
67.230 21.043127
67.235 22.035004
67.240 22.676176
67.245 22.777887
67.250 22.799702
67.255 23.302
67.260 22.863995
67.265 22.34058
67.270 21.388348
67.275 20.724564
67.280 20.870646
67.285 20.908842
67.290 20.626587
67.295 20.555779
67.300 20.777561
67.305 21.850311
67.310 22.19066
67.315 21.828505
67.320 21.584322
67.325 21.194067
67.330 21.194017
67.335 21.141758
67.340 20.318327
67.345 20.452553
67.350 20.497482
67.355 20.354626
67.360 20.684072
67.365 20.691158
67.370 21.212757
67.375 21.774035
67.380 21.412708
67.385 20.849781
67.390 20.167898
67.395 19.761446
67.400 19.768187
67.405 19.192041
67.410 18.876604
67.415 19.34483
67.420 20.104059
67.425 20.661339
67.430 20.61693
67.435 20.01849
67.440 19.430746
67.445 19.333149
67.450 18.918785
67.455 18.688343
67.460 19.167391
67.465 20.000471
67.470 20.709839
67.475 20.919933
67.480 20.854448
67.485 20.867023
67.490 21.070465
67.495 21.219952
67.500 21.025719
67.505 20.967924
67.510 20.803499
67.515 20.886497
67.520 21.679327
67.525 21.587587
67.530 20.945515
67.535 20.955023
67.540 21.251879
67.545 21.78997
67.550 21.333282
67.555 20.656075
67.560 20.212736
67.565 20.240984
67.570 19.809376
67.575 19.228664
67.580 18.93202
67.585 19.002228
67.590 19.33102
67.595 19.805826
67.600 19.81111
67.605 19.835484
67.610 19.860109
67.615 19.673977
67.620 19.504547
67.625 19.048561
67.630 18.913084
67.635 18.865896
67.640 18.872726
67.645 19.238811
67.650 19.590387
67.655 19.896933
67.660 20.046597
67.665 20.109035
67.670 20.782459
67.675 21.54442
67.680 21.390217
67.685 21.453781
67.690 21.053835
67.695 21.435415
67.700 21.474207
67.705 21.154131
67.710 20.700947
67.715 21.127764
67.720 21.362743
67.725 22.219128
67.730 21.973423
67.735 22.495039
67.740 22.483746
67.745 22.115747
67.750 21.519848
67.755 20.940508
67.760 20.49975
67.765 20.144014
67.770 19.661348
67.775 19.927824
67.780 19.897459
67.785 20.013132
67.790 20.731916
67.795 21.511076
67.800 21.593485
67.805 21.277277
67.810 20.630026
67.815 20.414854
67.820 20.627848
67.825 20.146711
67.830 19.622179
67.835 19.501753
67.840 19.641685
67.845 19.990788
67.850 20.819397
67.855 20.664303
67.860 20.924713
67.865 21.207926
67.870 21.228878
67.875 21.409391
67.880 21.860323
67.885 21.668291
67.890 21.742483
67.895 21.849857
67.900 21.863457
67.905 22.15449
67.910 22.164625
67.915 21.516468
67.920 21.21711
67.925 21.073893
67.930 20.663961
67.935 20.502598
67.940 20.686699
67.945 20.568571
67.950 21.320269
67.955 21.782228
67.960 21.45838
67.965 21.101377
67.970 21.03022
67.975 20.567408
67.980 20.459583
67.985 19.43063
67.990 18.954329
67.995 19.046816
68.000 19.089714
68.005 18.946093
68.010 19.427021
68.015 19.962065
68.020 20.560968
68.025 20.910702
68.030 20.868429
68.035 20.819738
68.040 20.911287
68.045 20.812902
68.050 20.64485
68.055 20.868074
68.060 20.653559
68.065 21.252365
68.070 21.850916
68.075 21.629879
68.080 20.964565
68.085 20.79196
68.090 20.898003
68.095 20.487906
68.100 20.124807
68.105 20.254307
68.110 20.246872
68.115 20.772335
68.120 20.628197
68.125 21.02639
68.130 21.750061
68.135 21.733574
68.140 21.284174
68.145 21.54101
68.150 21.344501
68.155 21.490992
68.160 21.571915
68.165 21.758821
68.170 21.984091
68.175 22.205742
68.180 22.346931
68.185 22.256359
68.190 22.364496
68.195 21.93932
68.200 21.476507
68.205 21.522699
68.210 21.377995
68.215 21.910681
68.220 22.279612
68.225 21.506054
68.230 21.331991
68.235 21.373865
68.240 21.089863
68.245 20.67333
68.250 20.233698
68.255 19.955688
68.260 20.077229
68.265 20.291489
68.270 20.016264
68.275 19.75948
68.280 19.760948
68.285 19.274294
68.290 19.488987
68.295 19.512611
68.300 19.507486
68.305 19.143602
68.310 19.01689
68.315 18.867369
68.320 18.889318
68.325 19.088173
68.330 18.782003
68.335 18.668793
68.340 19.403381
68.345 19.997515
68.350 20.532375
68.355 20.326389
68.360 20.690802
68.365 21.016907
68.370 21.771795
68.375 21.923933
68.380 21.542521
68.385 21.259266
68.390 21.50473
68.395 21.582005
68.400 21.917631
68.405 21.634356
68.410 20.845604
68.415 20.833113
68.420 20.944538
68.425 20.519852
68.430 20.522846
68.435 20.376705
68.440 20.197987
68.445 20.462322
68.450 21.08449
68.455 21.154018
68.460 21.034901
68.465 20.891001
68.470 20.839079
68.475 20.816631
68.480 20.468004
68.485 20.094418
68.490 20.084213
68.495 20.612616
68.500 20.781082
68.505 20.34403
68.510 19.982075
68.515 20.07674
68.520 19.476606
68.525 18.959066
68.530 18.654263
68.535 18.503202
68.540 18.819237
68.545 19.669706
68.550 19.341417
68.555 19.729237
68.560 20.274557
68.565 19.898619
68.570 19.475014
68.575 19.578934
68.580 19.561701
68.585 20.27388
68.590 20.224579
68.595 19.892385
68.600 20.04257
68.605 20.184416
68.610 20.23251
68.615 20.639978
68.620 20.539824
68.625 20.950344
68.630 21.536573
68.635 21.704193
68.640 22.395817
68.645 22.8216
68.650 23.277437
68.655 23.006525
68.660 22.762993
68.665 22.471123
68.670 22.706774
68.675 22.032837
68.680 21.376774
68.685 20.816996
68.690 21.008339
68.695 21.498394
68.700 21.159283
68.705 20.355232
68.710 20.380514
68.715 20.712473
68.720 20.880877
68.725 20.968122
68.730 20.13221
68.735 20.59984
68.740 20.681572
68.745 20.660713
68.750 20.506569
68.755 20.614367
68.760 20.943701
68.765 21.427683
68.770 21.537962
68.775 22.284985
68.780 21.836514
68.785 21.908577
68.790 22.24943
68.795 22.214491
68.800 22.101295
68.805 21.922735
68.810 21.853012
68.815 21.983011
68.820 21.317842
68.825 20.411425
68.830 20.030777
68.835 20.810156
68.840 20.619062
68.845 20.428188
68.850 20.419231
68.855 21.435543
68.860 21.742584
68.865 22.298294
68.870 22.37742
68.875 22.655304
68.880 23.112116
68.885 23.32445
68.890 23.276318
68.895 23.75963
68.900 23.008478
68.905 23.163084
68.910 23.042471
68.915 22.942648
68.920 22.275452
68.925 22.349909
68.930 22.731855
68.935 22.923315
68.940 22.623779
68.945 22.740423
68.950 22.570829
68.955 23.505379
68.960 23.574818
68.965 23.085983
68.970 23.0231
68.975 23.384981
68.980 23.797365
68.985 23.835609
68.990 23.051239
68.995 22.259331
69.000 22.749893
69.005 22.778509
69.010 22.764587
69.015 22.04814
69.020 21.837259
69.025 21.916225
69.030 22.372007
69.035 21.968319
69.040 22.009617
69.045 22.45653
69.050 23.08423
69.055 23.328283
69.060 23.669174
69.065 23.788973
69.070 23.803482
69.075 23.830097
69.080 23.741396
69.085 23.714682
69.090 24.188322
69.095 24.093838
69.100 23.984589
69.105 24.568071
69.110 23.974667
69.115 24.241781
69.120 24.288023
69.125 24.43697
69.130 24.57382
69.135 24.943548
69.140 25.148367
69.145 26.07106
69.150 26.064278
69.155 26.061571
69.160 25.772604
69.165 25.497646
69.170 25.657974
69.175 25.931101
69.180 25.747416
69.185 25.701576
69.190 25.728109
69.195 25.921696
69.200 25.409327
69.205 25.001677
69.210 24.899361
69.215 25.068626
69.220 25.224739
69.225 25.134655
69.230 24.960773
69.235 25.335697
69.240 25.777925
69.245 25.72323
69.250 26.061462
69.255 26.46615
69.260 26.547401
69.265 27.223803
69.270 27.790535
69.275 27.80689
69.280 27.380625
69.285 26.801271
69.290 27.168634
69.295 27.824547
69.300 27.427519
69.305 27.331841
69.310 27.348383
69.315 27.313713
69.320 27.252672
69.325 26.708776
69.330 26.074387
69.335 25.950487
69.340 24.53455
69.345 24.172636
69.350 25.07933
69.355 24.776764
69.360 24.743488
69.365 25.252831
69.370 26.030298
69.375 26.802515
69.380 26.768841
69.385 26.062586
69.390 26.005592
69.395 26.00564
69.400 26.296186
69.405 25.809338
69.410 26.150063
69.415 26.508444
69.420 26.959871
69.425 27.024401
69.430 27.090078
69.435 27.291271
69.440 28.086861
69.445 28.627151
69.450 28.804131
69.455 29.039158
69.460 29.341753
69.465 29.090998
69.470 28.654346
69.475 28.738852
69.480 28.574379
69.485 29.228168
69.490 29.853191
69.495 29.753452
69.500 29.889666
69.505 30.007118
69.510 29.841076
69.515 29.964878
69.520 29.717247
69.525 28.913382
69.530 28.757969
69.535 28.797157
69.540 29.321142
69.545 29.173773
69.550 29.14282
69.555 28.794981
69.560 30.165581
69.565 30.80662
69.570 30.748219
69.575 30.526564
69.580 30.308229
69.585 30.378391
69.590 30.323132
69.595 29.926001
69.600 29.766232
69.605 29.760006
69.610 28.778429
69.615 28.330805
69.620 28.056065
69.625 27.583975
69.630 26.938723
69.635 26.515261
69.640 26.495592
69.645 26.86248
69.650 27.115837
69.655 26.662863
69.660 27.121372
69.665 26.52874
69.670 26.245605
69.675 26.161396
69.680 26.25004
69.685 26.316673
69.690 26.091393
69.695 26.110935
69.700 27.208923
69.705 27.351908
69.710 27.635368
69.715 27.600986
69.720 27.534306
69.725 27.820265
69.730 27.521116
69.735 26.443483
69.740 26.473658
69.745 26.104677
69.750 25.908325
69.755 25.705217
69.760 25.562813
69.765 25.482338
69.770 25.88924
69.775 25.644348
69.780 26.002758
69.785 26.230354
69.790 26.972303
69.795 26.624599
69.800 26.335846
69.805 25.986086
69.810 25.781872
69.815 25.338476
69.820 24.743687
69.825 24.199236
69.830 24.367529
69.835 24.79141
69.840 24.523199
69.845 23.745356
69.850 24.5795
69.855 24.664354
69.860 24.958427
69.865 24.539854
69.870 24.382935
69.875 24.880484
69.880 25.051359
69.885 24.56904
69.890 24.697313
69.895 24.613998
69.900 24.80267
69.905 24.570192
69.910 23.97542
69.915 23.921272
69.920 23.527613
69.925 23.377687
69.930 23.119932
69.935 23.095522
69.940 23.230844
69.945 23.54944
69.950 23.775728
69.955 23.485809
69.960 22.613932
69.965 21.930653
69.970 21.938772
69.975 21.862194
69.980 21.339039
69.985 21.306673
69.990 21.416676
69.995 22.490089
70.000 22.589622
70.005 22.226845
70.010 22.409454
70.015 22.561962
70.020 22.279734
70.025 22.301428
70.030 21.532721
70.035 21.504858
70.040 21.814913
70.045 20.985121
70.050 20.764521
70.055 20.824867
70.060 20.747683
70.065 21.227459
70.070 21.046392
70.075 20.880789
70.080 21.692324
70.085 21.598532
70.090 21.74811
70.095 21.563051
70.100 20.984995
70.105 20.436852
70.110 20.172508
70.115 19.378729
70.120 18.975428
70.125 18.862392
70.130 19.144487
70.135 19.348129
70.140 19.761871
70.145 19.948761
70.150 20.721375
70.155 20.53903
70.160 20.159697
70.165 19.651831
70.170 19.128368
70.175 18.776361
70.180 18.668713
70.185 19.222513
70.190 19.507328
70.195 20.035532
70.200 20.451784
70.205 21.520464
70.210 21.438837
70.215 20.687433
70.220 20.276268
70.225 19.843119
70.230 19.075354
70.235 18.648411
70.240 18.705692
70.245 19.583166
70.250 19.875246
70.255 19.993
70.260 20.423986
70.265 21.202972
70.270 21.012629
70.275 20.152588
70.280 20.019529
70.285 20.498283
70.290 20.609007
70.295 20.0898
70.300 19.665497
70.305 19.891495
70.310 19.484161
70.315 19.165852
70.320 18.782549
70.325 18.771301
70.330 19.173038
70.335 19.4568
70.340 19.7276
70.345 20.407734
70.350 20.035183
70.355 19.500946
70.360 19.118296
70.365 19.044586
70.370 19.120567
70.375 18.515394
70.380 18.064713
70.385 18.322851
70.390 19.231831
70.395 19.933676
70.400 19.797947
70.405 19.335758
70.410 19.86248
70.415 19.651636
70.420 19.378202
70.425 19.140074
70.430 18.529343
70.435 18.181351
70.440 17.782322
70.445 17.84288
70.450 17.970182
70.455 17.697569
70.460 17.56583
70.465 18.03981
70.470 18.700121
70.475 19.163355
70.480 18.657991
70.485 18.881796
70.490 19.310823
70.495 19.170605
70.500 19.264782
70.505 19.070461
70.510 19.992523
70.515 20.627367
70.520 20.69449
70.525 19.896149
70.530 19.522696
70.535 19.239346
70.540 19.09396
70.545 18.504114
70.550 18.391424
70.555 18.93775
70.560 19.48242
70.565 19.566723
70.570 19.867956
70.575 19.796492
70.580 19.609243
70.585 19.496952
70.590 19.262321
70.595 19.062384
70.600 19.003452
70.605 18.869307
70.610 19.064121
70.615 19.306772
70.620 18.791988
70.625 18.82769
70.630 19.579525
70.635 19.56093
70.640 19.312014
70.645 19.220201
70.650 19.025354
70.655 19.358761
70.660 19.164583
70.665 18.826731
70.670 19.364819
70.675 19.763184
70.680 19.879015
70.685 20.24897
70.690 20.448408
70.695 20.581139
70.700 20.021955
70.705 19.370512
70.710 19.17391
70.715 19.147741
70.720 19.049711
70.725 19.233345
70.730 18.721512
70.735 19.083443
70.740 19.235605
70.745 19.303295
70.750 19.100912
70.755 19.598318
70.760 19.867224
70.765 20.786322
70.770 20.895828
70.775 20.827572
70.780 20.743885
70.785 20.132713
70.790 19.956028
70.795 19.199919
70.800 18.517271
70.805 18.458828
70.810 18.677517
70.815 18.708937
70.820 18.421671
70.825 17.93207
70.830 18.29014
70.835 18.398695
70.840 18.308405
70.845 18.082411
70.850 18.138844
70.855 18.275126
70.860 17.965382
70.865 17.953396
70.870 18.250992
70.875 18.477209
70.880 19.117813
70.885 19.508774
70.890 19.532816
70.895 19.479237
70.900 19.424667
70.905 19.280918
70.910 19.414961
70.915 19.079046
70.920 19.52145
70.925 19.478981
70.930 19.131294
70.935 19.62439
70.940 19.030792
70.945 18.21328
70.950 17.876659
70.955 17.52891
70.960 18.017818
70.965 18.430361
70.970 18.206989
70.975 18.85322
70.980 19.29859
70.985 19.468283
70.990 19.186974
70.995 19.182032
71.000 18.534437
71.005 18.176512
71.010 17.09832
71.015 17.057932
71.020 17.46929
71.025 17.657839
71.030 18.17247
71.035 18.483923
71.040 18.956539
71.045 19.684446
71.050 19.761452
71.055 19.258305
71.060 18.877537
71.065 18.616457
71.070 18.2686
71.075 17.834351
71.080 17.46739
71.085 17.242353
71.090 17.430153
71.095 17.484007
71.100 17.936472
71.105 18.507137
71.110 19.002289
71.115 19.407389
71.120 19.854139
71.125 19.950285
71.130 20.196747
71.135 19.596144
71.140 19.342508
71.145 18.743225
71.150 18.88961
71.155 18.546404
71.160 18.801785
71.165 19.05945
71.170 18.992716
71.175 19.194082
71.180 19.24267
71.185 18.286842
71.190 18.669001
71.195 18.263556
71.200 18.181412
71.205 18.285662
71.210 18.656605
71.215 18.670408
71.220 18.988287
71.225 18.847788
71.230 19.180883
71.235 19.245495
71.240 19.091072
71.245 19.411739
71.250 19.91008
71.255 19.873413
71.260 19.293085
71.265 19.575758
71.270 19.380045
71.275 19.686596
71.280 18.967312
71.285 18.666426
71.290 18.509737
71.295 18.386684
71.300 17.95756
71.305 18.527441
71.310 18.780281
71.315 18.881506
71.320 18.969297
71.325 19.100296
71.330 19.350887
71.335 19.367062
71.340 18.392651
71.345 17.825949
71.350 17.758976
71.355 18.740149
71.360 19.081778
71.365 18.929346
71.370 19.088928
71.375 19.112598
71.380 19.315041
71.385 19.274759
71.390 19.003817
71.395 19.149395
71.400 19.437544
71.405 19.511036
71.410 19.58255
71.415 19.511301
71.420 19.393188
71.425 19.144749
71.430 18.644283
71.435 18.160355
71.440 18.342409
71.445 18.049984
71.450 18.207924
71.455 17.955675
71.460 18.061787
71.465 18.619101
71.470 18.689001
71.475 18.527609
71.480 19.036993
71.485 19.112366
71.490 19.037434
71.495 19.043093
71.500 19.036858
71.505 19.618206
71.510 20.326517
71.515 19.774939
71.520 20.100811
71.525 20.22864
71.530 20.123095
71.535 19.862213
71.540 19.310373
71.545 19.094398
71.550 19.080053
71.555 19.239363
71.560 19.364075
71.565 19.548948
71.570 19.351984
71.575 19.513391
71.580 19.416317
71.585 19.450438
71.590 19.375399
71.595 19.613964
71.600 19.246161
71.605 19.369993
71.610 19.648211
71.615 19.331551
71.620 18.957342
71.625 18.240013
71.630 17.384441
71.635 17.100754
71.640 17.878504
71.645 17.725159
71.650 18.047924
71.655 18.540218
71.660 18.871655
71.665 19.203428
71.670 18.986877
71.675 18.399975
71.680 18.140095
71.685 18.170467
71.690 18.209446
71.695 18.534838
71.700 18.671469
71.705 18.621094
71.710 18.276922
71.715 18.087849
71.720 17.456873
71.725 17.052183
71.730 17.201105
71.735 17.436016
71.740 17.854975
71.745 17.942078
71.750 17.768925
71.755 17.879557
71.760 18.313549
71.765 18.235973
71.770 18.191223
71.775 17.801098
71.780 17.93659
71.785 18.461248
71.790 18.590952
71.795 18.19309
71.800 18.139177
71.805 18.53322
71.810 18.610851
71.815 18.329865
71.820 18.043663
71.825 17.790831
71.830 17.862919
71.835 18.108612
71.840 17.922836
71.845 18.623335
71.850 18.936361
71.855 19.983967
71.860 20.332932
71.865 19.99391
71.870 19.804413
71.875 19.910685
71.880 19.226679
71.885 19.193224
71.890 18.729576
71.895 18.491356
71.900 18.366524
71.905 17.647915
71.910 17.604095
71.915 18.049467
71.920 18.232346
71.925 18.247404
71.930 18.276258
71.935 19.019506
71.940 18.546997
71.945 18.040808
71.950 18.11731
71.955 17.780928
71.960 17.493704
71.965 16.97348
71.970 17.107523
71.975 17.826044
71.980 18.556149
71.985 19.10363
71.990 19.049784
71.995 19.526901
72.000 19.636139
72.005 19.588634
72.010 19.319712
72.015 18.489246
72.020 18.081284
72.025 18.25819
72.030 18.380898
72.035 18.006441
72.040 17.829758
72.045 17.621811
72.050 17.843229
72.055 17.807373
72.060 17.827225
72.065 18.020325
72.070 18.617117
72.075 18.781767
72.080 18.817543
72.085 18.810032
72.090 18.530537
72.095 18.171427
72.100 17.880007
72.105 18.343327
72.110 18.451315
72.115 18.016781
72.120 18.287144
72.125 18.052872
72.130 18.42347
72.135 18.393845
72.140 18.088453
72.145 18.362951
72.150 18.234646
72.155 18.289532
72.160 18.099501
72.165 18.56007
72.170 18.994019
72.175 19.069708
72.180 18.875742
72.185 19.233631
72.190 19.361753
72.195 19.565044
72.200 18.953693
72.205 18.82778
72.210 18.555874
72.215 18.265759
72.220 17.931334
72.225 17.644688
72.230 18.247074
72.235 18.69459
72.240 18.427259
72.245 18.816353
72.250 19.056091
72.255 19.153805
72.260 19.439674
72.265 18.702932
72.270 18.458893
72.275 19.148252
72.280 19.457201
72.285 19.897093
72.290 19.901651
72.295 19.442106
72.300 19.088989
72.305 19.282976
72.310 18.931517
72.315 18.674883
72.320 18.355991
72.325 18.691273
72.330 18.963926
72.335 19.166628
72.340 18.722851
72.345 18.53698
72.350 18.526773
72.355 18.59716
72.360 18.377235
72.365 18.561792
72.370 18.655252
72.375 18.965887
72.380 19.291676
72.385 18.70233
72.390 18.609943
72.395 18.338917
72.400 18.29278
72.405 18.611233
72.410 18.364269
72.415 18.203588
72.420 18.601332
72.425 18.688915
72.430 19.043547
72.435 18.298893
72.440 18.214088
72.445 18.373568
72.450 18.334639
72.455 17.930088
72.460 17.755171
72.465 17.886789
72.470 17.38361
72.475 16.78458
72.480 16.365217
72.485 16.417723
72.490 16.378872
72.495 15.827842
72.500 15.489637
72.505 15.678839
72.510 15.734432
72.515 15.577826
72.520 15.156534
72.525 15.620807
72.530 16.546934
72.535 16.802979
72.540 16.593136
72.545 16.222347
72.550 16.948465
72.555 17.807768
72.560 17.469824
72.565 17.250263
72.570 17.588533
72.575 17.9625
72.580 18.781326
72.585 18.524237
72.590 18.136494
72.595 18.627375
72.600 18.816423
72.605 19.029144
72.610 19.207308
72.615 18.740002
72.620 18.076237
72.625 17.861443
72.630 17.235697
72.635 17.013832
72.640 17.046091
72.645 17.229467
72.650 17.112103
72.655 16.791264
72.660 16.686956
72.665 16.651901
72.670 16.562855
72.675 16.584625
72.680 16.454689
72.685 17.127386
72.690 18.122873
72.695 18.509842
72.700 19.116211
72.705 19.431677
72.710 18.999727
72.715 18.789946
72.720 18.17098
72.725 17.271311
72.730 16.842848
72.735 16.102612
72.740 15.36231
72.745 15.475372
72.750 15.536774
72.755 16.061859
72.760 16.291636
72.765 16.737608
72.770 17.122448
72.775 17.862881
72.780 17.937647
72.785 17.92387
72.790 18.190325
72.795 18.796099
72.800 18.888626
72.805 18.428946
72.810 17.94062
72.815 17.791504
72.820 17.108803
72.825 16.601702
72.830 15.627888
72.835 15.771402
72.840 15.916953
72.845 16.027037
72.850 16.928215
72.855 17.498983
72.860 17.398651
72.865 17.46941
72.870 17.079746
72.875 16.781246
72.880 16.459528
72.885 15.950097
72.890 15.5928
72.895 16.273355
72.900 16.424913
72.905 16.372244
72.910 16.69495
72.915 16.79612
72.920 17.05994
72.925 17.405075
72.930 16.531786
72.935 15.975052
72.940 16.006327
72.945 16.272062
72.950 16.291143
72.955 16.312611
72.960 16.023493
72.965 16.613953
72.970 17.127007
72.975 16.960327
72.980 16.990276
72.985 17.357138
72.990 17.820408
72.995 17.849962
73.000 17.940359
