!@!!GADDS PLOTSO FILE: Chi integration type
!@!!Title/SampleName: map-101
!@!!Comment: ?
!@!!User: Bruker Instrument Administrator
!@!!Site: University of Illinois Chicago
!@!!Frame: map-101_01_000.gfrm
!@!!Wavelengths    1.54184   1.54056   1.54439
!@!!Frame angles: 2Theta: 63.000 Omega: 50.000 Phi: 0.000 Chi: 90.000
!@!!Integration range: 2Theta: 53.000 to 73.000  Gamma: -105.000 to -75.000
!@!!Integration method: bin normalized
!@!N
!@!SS
!@!M
!@!L 0.0 0.0 0.0 0.0
!@!XDegrees
!@!YCounts
53.000 9.978374
53.005 10.056627
53.010 9.886247
53.015 10.082369
53.020 10.074056
53.025 10.080713
53.030 9.830032
53.035 9.785479
53.040 9.567068
53.045 9.724934
53.050 9.902438
53.055 10.087562
53.060 10.558136
53.065 11.315934
53.070 12.192911
53.075 12.375127
53.080 12.260612
53.085 12.468109
53.090 12.631196
53.095 12.691561
53.100 11.590452
53.105 10.913853
53.110 11.032225
53.115 10.899557
53.120 10.35097
53.125 9.843246
53.130 9.866852
53.135 10.280486
53.140 10.087758
53.145 10.185426
53.150 10.181753
53.155 10.464765
53.160 10.531838
53.165 10.467592
53.170 10.873691
53.175 11.063299
53.180 10.658134
53.185 10.573281
53.190 10.873927
53.195 10.763467
53.200 10.62625
53.205 10.177404
53.210 10.003768
53.215 10.333606
53.220 9.978306
53.225 9.665573
53.230 9.564817
53.235 9.318217
53.240 9.363341
53.245 9.255424
53.250 9.483689
53.255 9.812868
53.260 10.079254
53.265 10.227435
53.270 10.722948
53.275 10.874767
53.280 11.378119
53.285 11.184196
53.290 11.361449
53.295 11.168435
53.300 11.27047
53.305 11.195164
53.310 11.21819
53.315 10.970334
53.320 11.275477
53.325 11.559961
53.330 11.418535
53.335 11.346982
53.340 11.21385
53.345 10.944238
53.350 10.909099
53.355 10.270837
53.360 10.068811
53.365 9.877973
53.370 10.102227
53.375 10.45861
53.380 10.711421
53.385 10.281868
53.390 10.591973
53.395 11.050979
53.400 11.665998
53.405 11.437987
53.410 11.379834
53.415 11.745804
53.420 12.242814
53.425 11.986334
53.430 11.286221
53.435 11.095317
53.440 11.4374
53.445 11.357375
53.450 10.894163
53.455 10.70967
53.460 10.541172
53.465 10.480999
53.470 10.450129
53.475 10.281437
53.480 10.199206
53.485 10.231401
53.490 10.700477
53.495 11.83794
53.500 12.55305
53.505 12.317559
53.510 12.575892
53.515 13.079523
53.520 13.406802
53.525 13.166601
53.530 12.314831
53.535 11.946785
53.540 12.503788
53.545 12.142411
53.550 11.908217
53.555 11.681582
53.560 11.592011
53.565 12.068573
53.570 12.125195
53.575 11.823357
53.580 12.045444
53.585 12.36588
53.590 12.566986
53.595 12.798436
53.600 12.800778
53.605 13.16227
53.610 13.288554
53.615 13.297337
53.620 13.302469
53.625 13.247618
53.630 13.237604
53.635 13.005298
53.640 12.793369
53.645 12.346919
53.650 11.831828
53.655 11.217836
53.660 10.942754
53.665 10.639551
53.670 10.385045
53.675 10.299071
53.680 10.289745
53.685 10.758489
53.690 11.289563
53.695 11.758755
53.700 11.702551
53.705 11.56751
53.710 11.513631
53.715 11.865246
53.720 11.800477
53.725 10.919287
53.730 10.584052
53.735 10.621347
53.740 11.237245
53.745 11.257362
53.750 11.033327
53.755 10.797947
53.760 10.725404
53.765 11.520997
53.770 11.776274
53.775 11.454135
53.780 11.405995
53.785 11.682101
53.790 12.569378
53.795 12.864339
53.800 12.293567
53.805 11.921076
53.810 12.062963
53.815 12.014689
53.820 11.687617
53.825 11.211083
53.830 11.107703
53.835 10.87132
53.840 11.12927
53.845 11.39884
53.850 11.426495
53.855 11.365714
53.860 11.688539
53.865 11.498964
53.870 11.673438
53.875 12.400418
53.880 12.086975
53.885 12.187841
53.890 12.78171
53.895 12.809446
53.900 13.153236
53.905 12.81749
53.910 12.547705
53.915 12.927924
53.920 12.93003
53.925 12.335132
53.930 12.024883
53.935 11.861776
53.940 11.942781
53.945 11.477221
53.950 11.256456
53.955 11.219032
53.960 11.383415
53.965 11.752228
53.970 11.992951
53.975 12.07957
53.980 12.197067
53.985 12.375743
53.990 12.154867
53.995 12.201274
54.000 12.218463
54.005 12.086198
54.010 12.157758
54.015 12.153856
54.020 11.846136
54.025 11.891379
54.030 11.930161
54.035 11.654899
54.040 11.557839
54.045 11.828415
54.050 11.884177
54.055 11.825318
54.060 11.782415
54.065 11.795036
54.070 11.81219
54.075 11.994061
54.080 11.649134
54.085 11.573814
54.090 11.825669
54.095 11.84168
54.100 11.944076
54.105 12.585438
54.110 12.555037
54.115 12.607998
54.120 12.440705
54.125 12.425546
54.130 12.057584
54.135 11.666101
54.140 11.13318
54.145 10.799761
54.150 10.946486
54.155 11.252838
54.160 11.490824
54.165 11.814259
54.170 12.177102
54.175 12.468668
54.180 12.734808
54.185 12.35992
54.190 12.394935
54.195 12.548498
54.200 12.787898
54.205 12.654179
54.210 12.719705
54.215 12.794786
54.220 13.007161
54.225 13.233263
54.230 12.796217
54.235 12.686347
54.240 12.920128
54.245 12.752515
54.250 12.801294
54.255 12.776966
54.260 12.657137
54.265 13.254016
54.270 13.533699
54.275 13.283853
54.280 13.586038
54.285 13.393825
54.290 13.224179
54.295 12.905449
54.300 12.810348
54.305 12.771848
54.310 12.911802
54.315 12.885017
54.320 13.035592
54.325 12.784219
54.330 13.096
54.335 13.258197
54.340 13.267132
54.345 13.407296
54.350 13.351733
54.355 13.800724
54.360 14.216864
54.365 13.736267
54.370 13.732071
54.375 13.331239
54.380 13.02769
54.385 12.757295
54.390 12.544985
54.395 12.617524
54.400 12.596602
54.405 12.107319
54.410 12.745312
54.415 12.95134
54.420 13.01726
54.425 12.554096
54.430 12.435791
54.435 12.22165
54.440 11.59509
54.445 11.155909
54.450 10.762649
54.455 11.585339
54.460 11.563478
54.465 11.79203
54.470 12.950266
54.475 13.365744
54.480 13.871408
54.485 13.75921
54.490 13.339614
54.495 13.783058
54.500 13.701125
54.505 13.164784
54.510 12.720939
54.515 12.728658
54.520 13.02217
54.525 12.860257
54.530 12.059632
54.535 11.778171
54.540 12.212185
54.545 12.591202
54.550 12.145429
54.555 11.735346
54.560 11.953651
54.565 12.128185
54.570 11.927086
54.575 11.405966
54.580 10.80476
54.585 11.278324
54.590 11.43619
54.595 11.352486
54.600 11.572241
54.605 11.709962
54.610 11.994783
54.615 12.577778
54.620 12.593148
54.625 12.804859
54.630 13.224675
54.635 12.989549
54.640 12.978515
54.645 12.96204
54.650 12.405317
54.655 12.216628
54.660 11.910486
54.665 11.587811
54.670 11.804908
54.675 11.912005
54.680 12.137282
54.685 11.995936
54.690 12.317438
54.695 12.692705
54.700 12.798373
54.705 12.78173
54.710 13.123784
54.715 12.997829
54.720 13.199903
54.725 13.054111
54.730 12.791207
54.735 12.701797
54.740 12.453512
54.745 12.284887
54.750 12.280074
54.755 11.939082
54.760 11.693783
54.765 11.569736
54.770 11.867805
54.775 11.758339
54.780 11.542922
54.785 11.383535
54.790 11.575134
54.795 11.776616
54.800 11.999664
54.805 11.902256
54.810 12.130697
54.815 12.631612
54.820 12.954471
54.825 13.008819
54.830 12.794577
54.835 12.722028
54.840 12.821197
54.845 12.667155
54.850 12.332228
54.855 12.651969
54.860 12.50517
54.865 12.354479
54.870 11.751513
54.875 11.45013
54.880 11.808216
54.885 11.367639
54.890 10.841096
54.895 10.894321
54.900 10.964671
54.905 10.932742
54.910 11.45849
54.915 11.67345
54.920 11.686256
54.925 11.913292
54.930 12.034187
54.935 12.440423
54.940 13.09618
54.945 13.003554
54.950 13.139891
54.955 12.996368
54.960 12.933528
54.965 12.805182
54.970 12.544507
54.975 12.431423
54.980 12.499308
54.985 12.853703
54.990 13.470393
54.995 13.712763
55.000 14.112066
55.005 14.503614
55.010 13.95837
55.015 13.425878
55.020 13.51011
55.025 13.245854
55.030 13.279032
55.035 12.99782
55.040 12.208182
55.045 12.772088
55.050 12.644018
55.055 12.441339
55.060 12.630326
55.065 12.139636
55.070 12.529519
55.075 12.414762
55.080 11.96249
55.085 12.090899
55.090 11.815205
55.095 11.691396
55.100 12.065704
55.105 11.938826
55.110 12.04443
55.115 12.460767
55.120 12.607577
55.125 12.68028
55.130 12.916792
55.135 12.760233
55.140 12.50772
55.145 12.970425
55.150 13.009888
55.155 13.292611
55.160 13.314224
55.165 13.204601
55.170 12.984312
55.175 13.501088
55.180 13.188722
55.185 13.254909
55.190 13.072247
55.195 12.770928
55.200 12.538941
55.205 12.630795
55.210 11.955775
55.215 11.659844
55.220 11.283961
55.225 11.668466
55.230 11.882683
55.235 12.173795
55.240 12.500232
55.245 12.919667
55.250 12.827808
55.255 12.455338
55.260 11.945134
55.265 12.033624
55.270 12.130932
55.275 11.859576
55.280 11.884687
55.285 12.058869
55.290 12.139477
55.295 12.435276
55.300 12.569687
55.305 12.553573
55.310 12.64465
55.315 12.462051
55.320 12.616165
55.325 14.016953
55.330 13.856204
55.335 13.948191
55.340 13.939229
55.345 13.961715
55.350 14.512178
55.355 14.206081
55.360 13.113376
55.365 13.456256
55.370 13.054015
55.375 12.844526
55.380 12.823771
55.385 12.68714
55.390 13.163422
55.395 13.161374
55.400 12.813667
55.405 12.990973
55.410 13.690767
55.415 13.733361
55.420 13.537127
55.425 13.430162
55.430 13.578928
55.435 14.118798
55.440 14.090411
55.445 14.038466
55.450 14.613656
55.455 14.926348
55.460 14.614981
55.465 14.582522
55.470 14.642178
55.475 14.936187
55.480 14.686559
55.485 14.111506
55.490 14.192672
55.495 14.44354
55.500 15.151764
55.505 15.260803
55.510 14.566102
55.515 14.330465
55.520 14.078545
55.525 13.820556
55.530 13.539296
55.535 12.549656
55.540 12.030153
55.545 11.760679
55.550 11.795328
55.555 12.311621
55.560 12.529824
55.565 12.766194
55.570 12.41808
55.575 12.248321
55.580 12.972271
55.585 13.577681
55.590 13.243933
55.595 13.045562
55.600 12.425391
55.605 13.03877
55.610 13.357006
55.615 13.126314
55.620 12.986449
55.625 13.057055
55.630 12.776544
55.635 13.261825
55.640 13.185122
55.645 13.397068
55.650 13.236328
55.655 13.126986
55.660 13.171699
55.665 13.279104
55.670 13.075247
55.675 12.307726
55.680 12.35479
55.685 12.080296
55.690 12.06869
55.695 12.835657
55.700 13.193488
55.705 13.287804
55.710 13.408044
55.715 13.034326
55.720 13.540187
55.725 13.590665
55.730 12.593932
55.735 12.61218
55.740 12.817565
55.745 13.063273
55.750 13.316861
55.755 13.527935
55.760 12.994206
55.765 13.17947
55.770 12.843243
55.775 13.022642
55.780 13.191735
55.785 13.099901
55.790 12.998486
55.795 13.51113
55.800 13.948582
55.805 13.814269
55.810 13.855428
55.815 14.150625
55.820 14.617441
55.825 14.789554
55.830 14.954904
55.835 15.261605
55.840 15.05965
55.845 14.893415
55.850 14.95901
55.855 14.470809
55.860 13.832256
55.865 13.275706
55.870 12.722788
55.875 13.638271
55.880 13.62791
55.885 13.594744
55.890 13.812852
55.895 14.065001
55.900 14.439776
55.905 14.260619
55.910 13.952185
55.915 14.032755
55.920 14.011167
55.925 13.926431
55.930 13.707877
55.935 14.135962
55.940 14.796023
55.945 15.399464
55.950 15.173317
55.955 14.836718
55.960 15.128431
55.965 15.691645
55.970 15.243555
55.975 14.793277
55.980 14.187135
55.985 14.121624
55.990 14.191724
55.995 13.936321
56.000 13.245941
56.005 12.890538
56.010 13.125319
56.015 13.403335
56.020 13.709648
56.025 13.577197
56.030 13.740411
56.035 14.112358
56.040 14.462329
56.045 14.353391
56.050 14.262201
56.055 14.238747
56.060 14.223345
56.065 14.597507
56.070 15.222827
56.075 14.842965
56.080 14.88446
56.085 14.909097
56.090 15.145998
56.095 15.307026
56.100 14.834438
56.105 14.386725
56.110 14.779749
56.115 14.405447
56.120 13.998914
56.125 13.844785
56.130 13.490055
56.135 13.403695
56.140 13.339812
56.145 13.337658
56.150 13.62515
56.155 14.008488
56.160 13.964308
56.165 14.223267
56.170 14.098605
56.175 13.620454
56.180 13.448513
56.185 13.427697
56.190 13.440248
56.195 13.309504
56.200 13.248182
56.205 13.800994
56.210 14.470564
56.215 14.941142
56.220 15.219146
56.225 14.925203
56.230 14.908376
56.235 15.226243
56.240 15.225121
56.245 15.171651
56.250 14.932032
56.255 14.834625
56.260 15.206211
56.265 15.576832
56.270 15.277237
56.275 14.443381
56.280 13.907271
56.285 14.087477
56.290 13.837615
56.295 13.011517
56.300 12.565687
56.305 12.434385
56.310 12.985879
56.315 13.086019
56.320 12.493072
56.325 12.185678
56.330 12.187122
56.335 12.430514
56.340 12.599011
56.345 12.454769
56.350 12.748337
56.355 13.190206
56.360 13.642149
56.365 14.290618
56.370 13.967318
56.375 14.217336
56.380 14.079835
56.385 13.709901
56.390 13.197801
56.395 13.29197
56.400 13.278476
56.405 13.195739
56.410 12.922002
56.415 13.213663
56.420 13.399293
56.425 13.915268
56.430 14.177109
56.435 14.31947
56.440 14.379034
56.445 14.55057
56.450 14.37917
56.455 13.422834
56.460 13.185361
56.465 12.847223
56.470 13.023613
56.475 13.35535
56.480 13.563635
56.485 14.081875
56.490 15.244095
56.495 15.438593
56.500 15.163724
56.505 15.408119
56.510 15.354518
56.515 14.688074
56.520 14.204789
56.525 13.935669
56.530 14.006546
56.535 13.695767
56.540 13.338232
56.545 13.343818
56.550 13.820691
56.555 14.221982
56.560 13.971964
56.565 14.206965
56.570 14.298418
56.575 13.979293
56.580 13.777223
56.585 13.545359
56.590 13.050727
56.595 13.541575
56.600 13.277829
56.605 13.42555
56.610 13.94117
56.615 14.192963
56.620 14.801259
56.625 15.443181
56.630 14.978868
56.635 14.998885
56.640 15.087582
56.645 14.524129
56.650 13.926071
56.655 13.437035
56.660 13.444752
56.665 13.552952
56.670 13.525935
56.675 13.078136
56.680 13.685513
56.685 14.172474
56.690 14.666983
56.695 14.567924
56.700 14.983222
56.705 15.589375
56.710 15.840991
56.715 16.028446
56.720 15.713326
56.725 15.226056
56.730 15.418811
56.735 15.486647
56.740 15.486797
56.745 15.677938
56.750 15.738503
56.755 16.424061
56.760 16.918669
56.765 16.679121
56.770 15.95819
56.775 15.93323
56.780 15.695982
56.785 15.158537
56.790 14.678685
56.795 14.497544
56.800 14.818866
56.805 14.874181
56.810 14.517678
56.815 14.448838
56.820 14.377047
56.825 14.301872
56.830 14.40202
56.835 14.839041
56.840 15.223812
56.845 15.815804
56.850 16.049786
56.855 15.933816
56.860 15.520212
56.865 15.629637
56.870 15.669214
56.875 16.223936
56.880 15.997447
56.885 15.554497
56.890 15.804634
56.895 16.398203
56.900 16.096285
56.905 15.012196
56.910 14.001167
56.915 14.101072
56.920 14.618268
56.925 14.686366
56.930 14.30505
56.935 14.345376
56.940 14.213227
56.945 14.627245
56.950 14.703947
56.955 14.689196
56.960 14.601268
56.965 14.325667
56.970 14.018956
56.975 14.587305
56.980 14.435596
56.985 14.191186
56.990 13.944007
56.995 13.676874
57.000 13.653194
57.005 13.579712
57.010 13.309323
57.015 13.128106
57.020 13.267607
57.025 13.384779
57.030 13.509969
57.035 14.117435
57.040 14.694921
57.045 14.844189
57.050 14.978744
57.055 14.764257
57.060 14.802054
57.065 14.637306
57.070 14.137134
57.075 14.276382
57.080 14.456767
57.085 14.444285
57.090 14.219416
57.095 14.220654
57.100 14.515161
57.105 14.373281
57.110 14.296368
57.115 13.968598
57.120 13.990849
57.125 13.911386
57.130 14.10715
57.135 14.087288
57.140 14.578461
57.145 14.768986
57.150 14.531147
57.155 15.092939
57.160 15.808237
57.165 16.32206
57.170 17.041025
57.175 16.980728
57.180 17.283337
57.185 17.56757
57.190 17.315788
57.195 17.175097
57.200 16.763845
57.205 16.098959
57.210 15.794241
57.215 15.423066
57.220 16.00247
57.225 16.087036
57.230 15.863448
57.235 15.434306
57.240 15.745823
57.245 15.435799
57.250 15.836655
57.255 15.607719
57.260 15.634415
57.265 15.452757
57.270 16.036352
57.275 16.126303
57.280 15.906371
57.285 15.166363
57.290 14.852024
57.295 14.790265
57.300 15.111385
57.305 14.817622
57.310 14.439887
57.315 14.870625
57.320 14.961986
57.325 14.856124
57.330 14.995314
57.335 14.546071
57.340 14.66288
57.345 14.766441
57.350 14.47358
57.355 14.891093
57.360 14.856838
57.365 15.262256
57.370 15.466511
57.375 15.499712
57.380 15.506388
57.385 15.982525
57.390 16.389761
57.395 16.172861
57.400 16.084848
57.405 16.060364
57.410 16.085958
57.415 15.93934
57.420 15.767784
57.425 15.184814
57.430 15.63293
57.435 15.739076
57.440 15.794447
57.445 15.559295
57.450 15.737904
57.455 15.573301
57.460 15.505866
57.465 15.631262
57.470 15.821465
57.475 15.984431
57.480 15.587356
57.485 15.149079
57.490 15.527112
57.495 15.403656
57.500 15.233483
57.505 15.645721
57.510 15.736036
57.515 16.500696
57.520 16.757839
57.525 16.741381
57.530 16.75275
57.535 16.470123
57.540 16.068054
57.545 15.820078
57.550 15.698116
57.555 15.972246
57.560 15.552908
57.565 15.804565
57.570 16.490147
57.575 16.41535
57.580 16.38464
57.585 16.369318
57.590 16.070583
57.595 16.739851
57.600 16.614689
57.605 15.584145
57.610 15.584633
57.615 15.600103
57.620 15.944309
57.625 16.643486
57.630 16.789186
57.635 17.003122
57.640 16.826059
57.645 16.841852
57.650 16.726215
57.655 15.913582
57.660 14.904075
57.665 13.995871
57.670 14.376219
57.675 14.621531
57.680 14.755705
57.685 14.761453
57.690 15.146262
57.695 15.79667
57.700 15.670188
57.705 15.294257
57.710 15.210151
57.715 15.606388
57.720 16.400454
57.725 16.414778
57.730 16.847687
57.735 17.417486
57.740 17.394897
57.745 17.457674
57.750 17.27927
57.755 17.426456
57.760 17.376442
57.765 16.837898
57.770 16.387518
57.775 16.464008
57.780 16.799006
57.785 16.537004
57.790 15.931798
57.795 15.834684
57.800 15.909912
57.805 16.198944
57.810 16.103725
57.815 16.020947
57.820 16.175177
57.825 16.809256
57.830 17.138918
57.835 17.01347
57.840 16.982414
57.845 17.453619
57.850 17.631672
57.855 17.659981
57.860 17.408182
57.865 17.333046
57.870 17.344175
57.875 17.318316
57.880 16.727682
57.885 16.055033
57.890 15.782917
57.895 15.321035
57.900 15.437905
57.905 15.691993
57.910 15.480849
57.915 15.68642
57.920 15.889299
57.925 16.198555
57.930 17.01391
57.935 17.280054
57.940 17.668909
57.945 17.700375
57.950 17.753387
57.955 17.831425
57.960 17.461092
57.965 17.13484
57.970 16.703959
57.975 16.413128
57.980 17.040728
57.985 17.268326
57.990 17.357693
57.995 17.864737
58.000 18.096638
58.005 18.24024
58.010 18.59816
58.015 18.612329
58.020 18.621544
58.025 18.559784
58.030 18.369511
58.035 18.137299
58.040 18.345978
58.045 18.44294
58.050 17.763964
58.055 17.823544
58.060 17.920132
58.065 17.409626
58.070 17.260754
58.075 17.42746
58.080 17.221909
58.085 17.395164
58.090 17.339375
58.095 17.42979
58.100 18.165915
58.105 19.045673
58.110 18.77039
58.115 18.76096
58.120 19.173632
58.125 19.230476
58.130 19.823849
58.135 20.146305
58.140 20.12001
58.145 20.331873
58.150 20.67359
58.155 20.742264
58.160 20.221727
58.165 19.640335
58.170 19.12501
58.175 19.589397
58.180 20.215033
58.185 20.05385
58.190 20.310673
58.195 20.902515
58.200 21.248882
58.205 21.158834
58.210 20.160547
58.215 19.541458
58.220 19.393499
58.225 19.583002
58.230 19.448143
58.235 19.530851
58.240 19.685499
58.245 20.090189
58.250 21.011559
58.255 21.047266
58.260 21.331896
58.265 21.238712
58.270 21.022329
58.275 21.145658
58.280 20.710562
58.285 20.135782
58.290 19.801558
58.295 19.964888
58.300 20.489944
58.305 21.029243
58.310 21.064442
58.315 21.82185
58.320 22.99029
58.325 24.027966
58.330 23.744541
58.335 24.323368
58.340 24.396112
58.345 24.830614
58.350 24.994406
58.355 24.583805
58.360 24.52989
58.365 24.515202
58.370 23.949383
58.375 23.501413
58.380 23.03017
58.385 22.333429
58.390 22.11581
58.395 21.858889
58.400 22.159338
58.405 22.520842
58.410 23.428812
58.415 24.134558
58.420 24.623344
58.425 25.680025
58.430 26.659603
58.435 27.402815
58.440 27.591564
58.445 27.54722
58.450 27.532206
58.455 28.135454
58.460 28.567881
58.465 28.959377
58.470 28.600328
58.475 28.624184
58.480 28.455837
58.485 28.652578
58.490 28.553276
58.495 28.260065
58.500 27.620701
58.505 27.48756
58.510 27.60964
58.515 28.07814
58.520 28.445667
58.525 29.089285
58.530 28.953941
58.535 29.319181
58.540 29.952425
58.545 30.237432
58.550 30.336006
58.555 29.411955
58.560 28.553493
58.565 28.389675
58.570 29.03693
58.575 28.839672
58.580 28.607037
58.585 28.556107
58.590 29.0179
58.595 29.026518
58.600 29.601044
58.605 28.831112
58.610 29.736925
58.615 29.724449
58.620 29.458347
58.625 29.804964
58.630 30.300476
58.635 29.360659
58.640 28.872141
58.645 27.934853
58.650 27.52684
58.655 27.680601
58.660 27.556219
58.665 27.329168
58.670 27.864021
58.675 28.134464
58.680 28.123503
58.685 28.207048
58.690 28.409288
58.695 28.747036
58.700 28.457258
58.705 28.442339
58.710 28.301712
58.715 28.039106
58.720 28.340591
58.725 28.593681
58.730 28.260529
58.735 27.518688
58.740 26.738489
58.745 26.773188
58.750 26.336481
58.755 26.233744
58.760 26.6007
58.765 25.61363
58.770 24.897224
58.775 24.595537
58.780 24.320005
58.785 24.205374
58.790 24.212618
58.795 23.499857
58.800 24.028164
58.805 25.040867
58.810 25.318924
58.815 25.316349
58.820 24.94129
58.825 23.915298
58.830 23.232599
58.835 22.038881
58.840 21.871418
58.845 21.824768
58.850 21.741486
58.855 22.288862
58.860 22.449032
58.865 22.503859
58.870 22.50861
58.875 22.2232
58.880 21.472765
58.885 21.342745
58.890 21.262587
58.895 21.5203
58.900 21.940725
58.905 22.315443
58.910 22.86474
58.915 23.362659
58.920 23.301382
58.925 22.740114
58.930 21.797306
58.935 21.616077
58.940 21.680685
58.945 21.346378
58.950 21.069695
58.955 21.12359
58.960 21.49497
58.965 22.158716
58.970 22.325638
58.975 21.844282
58.980 21.371023
58.985 20.738369
58.990 19.965729
58.995 19.496088
59.000 19.232721
59.005 19.630774
59.010 20.395067
59.015 20.577316
59.020 21.095335
59.025 21.579145
59.030 21.789726
59.035 21.762896
59.040 21.113808
59.045 20.728628
59.050 20.716295
59.055 20.275082
59.060 20.334396
59.065 20.4431
59.070 20.127075
59.075 19.485044
59.080 19.016108
59.085 18.624271
59.090 18.447992
59.095 18.142448
59.100 18.152302
59.105 18.558279
59.110 18.623178
59.115 19.017815
59.120 18.956079
59.125 19.719179
59.130 20.365232
59.135 20.96508
59.140 21.325113
59.145 22.127325
59.150 22.431576
59.155 22.521334
59.160 22.101887
59.165 21.753559
59.170 21.087057
59.175 20.988546
59.180 20.533976
59.185 20.028214
59.190 19.657633
59.195 19.368774
59.200 19.40439
59.205 18.957607
59.210 18.516232
59.215 18.739574
59.220 18.790239
59.225 19.162991
59.230 19.130064
59.235 19.216949
59.240 19.685541
59.245 19.552849
59.250 19.262045
59.255 19.203951
59.260 18.874495
59.265 18.661919
59.270 18.902973
59.275 18.509556
59.280 18.888618
59.285 18.908863
59.290 19.118427
59.295 19.446409
59.300 19.384867
59.305 18.954048
59.310 18.995657
59.315 19.020445
59.320 19.216705
59.325 19.490204
59.330 19.833061
59.335 20.23925
59.340 20.243958
59.345 20.594076
59.350 20.582464
59.355 19.807171
59.360 19.591232
59.365 19.042925
59.370 18.616842
59.375 18.079439
59.380 17.607132
59.385 17.865326
59.390 18.196445
59.395 17.91432
59.400 17.995094
59.405 18.322149
59.410 19.035679
59.415 18.740465
59.420 18.345671
59.425 17.991306
59.430 18.259552
59.435 17.90589
59.440 17.599432
59.445 17.431456
59.450 17.850975
59.455 18.333227
59.460 19.383368
59.465 19.690142
59.470 20.460875
59.475 20.586065
59.480 20.427591
59.485 20.229799
59.490 20.061502
59.495 19.65328
59.500 19.433357
59.505 19.517826
59.510 20.164085
59.515 20.257071
59.520 20.186146
59.525 19.944983
59.530 19.638618
59.535 19.08349
59.540 18.296177
59.545 18.0229
59.550 18.63884
59.555 18.733986
59.560 19.14311
59.565 19.870611
59.570 20.131153
59.575 20.719749
59.580 20.595909
59.585 20.412037
59.590 20.081594
59.595 19.612335
59.600 19.268433
59.605 19.150946
59.610 18.640432
59.615 18.484587
59.620 18.423904
59.625 18.319363
59.630 18.709156
59.635 18.415459
59.640 18.364784
59.645 18.43067
59.650 18.0982
59.655 17.649998
59.660 17.368437
59.665 16.440212
59.670 16.232204
59.675 15.867152
59.680 15.530141
59.685 15.135562
59.690 15.381912
59.695 16.212383
59.700 16.687901
59.705 18.076714
59.710 18.510672
59.715 19.228338
59.720 19.874643
59.725 19.809139
59.730 19.422791
59.735 19.468475
59.740 18.95915
59.745 18.822433
59.750 18.624725
59.755 18.592913
59.760 19.127054
59.765 19.144241
59.770 18.872103
59.775 18.658415
59.780 18.54262
59.785 18.465729
59.790 18.24041
59.795 18.41437
59.800 18.254961
59.805 18.874458
59.810 19.79055
59.815 19.930168
59.820 19.921019
59.825 19.6653
59.830 19.687874
59.835 19.984398
59.840 19.580805
59.845 19.49979
59.850 19.74946
59.855 19.87956
59.860 20.071373
59.865 19.927286
59.870 20.176901
59.875 19.712873
59.880 19.185558
59.885 19.172976
59.890 18.97266
59.895 18.891348
59.900 18.54455
59.905 17.815138
59.910 17.893242
59.915 18.150652
59.920 18.430241
59.925 18.371635
59.930 18.035168
59.935 18.048166
59.940 18.410418
59.945 17.654932
59.950 16.814714
59.955 16.691856
59.960 16.105614
59.965 16.354433
59.970 15.827483
59.975 15.517933
59.980 16.435364
59.985 16.87261
59.990 16.76162
59.995 17.486664
60.000 17.539757
60.005 17.933218
60.010 18.521671
60.015 18.735842
60.020 18.42296
60.025 18.518871
60.030 18.564987
60.035 18.43124
60.040 18.504332
60.045 18.711744
60.050 19.213251
60.055 19.27346
60.060 19.077717
60.065 19.043486
60.070 19.307287
60.075 19.483494
60.080 18.846462
60.085 17.783136
60.090 17.757971
60.095 17.854092
60.100 17.89052
60.105 17.820583
60.110 17.556089
60.115 17.2379
60.120 17.460705
60.125 17.23016
60.130 16.608374
60.135 16.888409
60.140 16.946659
60.145 17.085344
60.150 17.054464
60.155 17.356834
60.160 17.639563
60.165 17.817434
60.170 17.41473
60.175 16.999117
60.180 17.086828
60.185 17.696346
60.190 17.596119
60.195 17.984867
60.200 18.41172
60.205 18.671438
60.210 18.999529
60.215 18.620403
60.220 17.829601
60.225 17.98267
60.230 17.63932
60.235 17.250036
60.240 17.136795
60.245 16.580751
60.250 17.01638
60.255 17.883656
60.260 17.602726
60.265 17.461317
60.270 17.000383
60.275 16.742868
60.280 16.834093
60.285 16.707613
60.290 16.094166
60.295 15.885351
60.300 15.555668
60.305 16.057413
60.310 16.448891
60.315 16.591717
60.320 16.526476
60.325 16.533739
60.330 16.172935
60.335 16.479715
60.340 16.590282
60.345 16.683466
60.350 16.316761
60.355 15.688312
60.360 15.724517
60.365 16.443207
60.370 16.794304
60.375 16.400209
60.380 15.729704
60.385 16.204647
60.390 16.751625
60.395 16.815544
60.400 16.35985
60.405 15.865723
60.410 15.893959
60.415 16.677883
60.420 16.994394
60.425 17.254704
60.430 16.791632
60.435 16.903835
60.440 17.073381
60.445 17.305351
60.450 16.962187
60.455 16.706358
60.460 16.384304
60.465 17.035097
60.470 17.697147
60.475 17.867184
60.480 18.043993
60.485 18.833307
60.490 19.052523
60.495 19.620682
60.500 19.140543
60.505 19.085745
60.510 19.203262
60.515 19.316717
60.520 18.776569
60.525 18.60961
60.530 18.084673
60.535 18.588112
60.540 18.26013
60.545 18.112961
60.550 17.71146
60.555 17.688805
60.560 17.814739
60.565 17.934874
60.570 17.557795
60.575 17.133633
60.580 16.910749
60.585 17.07893
60.590 16.833368
60.595 16.875597
60.600 16.654133
60.605 17.11936
60.610 17.667435
60.615 17.790138
60.620 17.782354
60.625 17.568119
60.630 17.510275
60.635 17.772419
60.640 17.736673
60.645 18.051088
60.650 18.21471
60.655 17.848892
60.660 18.21501
60.665 18.189665
60.670 17.783596
60.675 17.041264
60.680 16.748014
60.685 16.378307
60.690 16.522329
60.695 16.908709
60.700 17.026182
60.705 17.432182
60.710 17.489389
60.715 17.005377
60.720 16.829142
60.725 16.642981
60.730 15.861918
60.735 15.67325
60.740 15.237576
60.745 15.580638
60.750 15.986664
60.755 16.384172
60.760 16.765793
60.765 16.722956
60.770 16.652668
60.775 17.509966
60.780 17.302116
60.785 16.921795
60.790 16.991781
60.795 16.829468
60.800 16.961752
60.805 16.980886
60.810 17.001774
60.815 16.974575
60.820 17.149181
60.825 17.594723
60.830 18.279457
60.835 18.535414
60.840 18.136686
60.845 17.863026
60.850 18.390615
60.855 18.666327
60.860 18.422525
60.865 18.250515
60.870 18.163658
60.875 18.77883
60.880 18.739525
60.885 18.128313
60.890 18.15835
60.895 17.064735
60.900 16.662176
60.905 16.530888
60.910 16.224146
60.915 16.027952
60.920 16.435289
60.925 16.186239
60.930 16.508396
60.935 16.535336
60.940 16.766499
60.945 17.043282
60.950 17.159752
60.955 17.056931
60.960 17.26852
60.965 16.749331
60.970 16.780527
60.975 16.674873
60.980 16.325827
60.985 16.143461
60.990 15.616654
60.995 15.400404
61.000 15.810351
61.005 16.193653
61.010 16.539936
61.015 16.775738
61.020 16.717936
61.025 16.88496
61.030 17.388008
61.035 17.578239
61.040 17.237846
61.045 16.898726
61.050 16.203325
61.055 15.950988
61.060 16.040947
61.065 16.572109
61.070 16.524376
61.075 16.146919
61.080 16.366003
61.085 16.636415
61.090 17.016014
61.095 17.100088
61.100 16.555285
61.105 16.655794
61.110 16.901405
61.115 16.853037
61.120 17.012012
61.125 17.27281
61.130 17.941893
61.135 18.465195
61.140 18.573711
61.145 18.470974
61.150 18.427055
61.155 18.465271
61.160 17.91328
61.165 17.008329
61.170 16.628967
61.175 16.848875
61.180 17.037064
61.185 16.497347
61.190 16.262159
61.195 16.77306
61.200 17.365353
61.205 17.254923
61.210 16.85813
61.215 17.002491
61.220 17.573982
61.225 18.268106
61.230 18.090624
61.235 17.489965
61.240 17.395132
61.245 17.269993
61.250 17.301733
61.255 17.455976
61.260 17.203541
61.265 17.345707
61.270 18.009974
61.275 18.05335
61.280 18.322533
61.285 18.765167
61.290 18.723625
61.295 18.171572
61.300 17.945847
61.305 17.279486
61.310 17.011435
61.315 16.54114
61.320 15.984301
61.325 15.794601
61.330 16.214695
61.335 16.687235
61.340 17.112221
61.345 16.945068
61.350 16.96961
61.355 16.848717
61.360 17.019581
61.365 16.679409
61.370 15.840041
61.375 15.475982
61.380 15.848851
61.385 15.762185
61.390 16.055813
61.395 15.912973
61.400 16.270559
61.405 16.888418
61.410 16.767382
61.415 16.940687
61.420 16.497072
61.425 16.107351
61.430 16.283272
61.435 15.92232
61.440 16.019028
61.445 16.715105
61.450 16.815094
61.455 16.970678
61.460 17.122467
61.465 16.975565
61.470 17.277334
61.475 17.73774
61.480 17.718403
61.485 18.139149
61.490 18.360867
61.495 18.633459
61.500 18.788189
61.505 18.273956
61.510 17.200138
61.515 17.285786
61.520 16.482435
61.525 16.406778
61.530 16.409061
61.535 16.082106
61.540 16.602472
61.545 16.844522
61.550 16.872292
61.555 17.702414
61.560 18.133568
61.565 18.388716
61.570 18.785675
61.575 18.890039
61.580 18.895445
61.585 18.671976
61.590 18.172283
61.595 17.284449
61.600 17.098522
61.605 17.245407
61.610 17.256733
61.615 17.130692
61.620 16.062946
61.625 15.813478
61.630 16.400297
61.635 15.93568
61.640 15.661031
61.645 15.569024
61.650 15.936277
61.655 17.161015
61.660 17.371538
61.665 17.355772
61.670 17.654379
61.675 17.895288
61.680 18.192499
61.685 18.513662
61.690 18.588692
61.695 19.1626
61.700 19.63755
61.705 19.542397
61.710 19.754267
61.715 19.556898
61.720 18.770472
61.725 18.701508
61.730 17.603399
61.735 16.935106
61.740 16.848526
61.745 16.38324
61.750 16.913723
61.755 17.533569
61.760 17.644854
61.765 18.355389
61.770 18.819838
61.775 18.954725
61.780 19.159384
61.785 18.30265
61.790 17.78117
61.795 17.861767
61.800 17.677479
61.805 17.86647
61.810 18.14147
61.815 17.961105
61.820 18.110657
61.825 18.31476
61.830 17.968607
61.835 18.112871
61.840 17.495268
61.845 17.084921
61.850 17.177452
61.855 17.499056
61.860 18.062798
61.865 18.003235
61.870 17.954388
61.875 18.377142
61.880 18.797512
61.885 19.000162
61.890 18.714935
61.895 17.964165
61.900 18.520584
61.905 18.563972
61.910 18.124773
61.915 17.840527
61.920 17.454613
61.925 17.496668
61.930 17.590361
61.935 17.245358
61.940 17.380659
61.945 17.816019
61.950 17.677933
61.955 17.566412
61.960 17.231319
61.965 17.20956
61.970 16.974344
61.975 16.818626
61.980 16.867214
61.985 17.075958
61.990 17.025616
61.995 17.068848
62.000 17.399338
62.005 17.549219
62.010 17.525169
62.015 17.632357
62.020 17.675276
62.025 18.001402
62.030 18.347996
62.035 17.866253
62.040 17.898354
62.045 17.836826
62.050 17.876141
62.055 17.783649
62.060 17.680372
62.065 17.256607
62.070 17.582018
62.075 17.768148
62.080 17.429407
62.085 16.927109
62.090 16.758499
62.095 16.320108
62.100 15.933392
62.105 16.088709
62.110 16.568602
62.115 16.519655
62.120 16.222225
62.125 16.315592
62.130 16.688631
62.135 17.377119
62.140 17.112753
62.145 16.075525
62.150 15.988228
62.155 16.720236
62.160 17.113747
62.165 17.467237
62.170 17.994875
62.175 18.146778
62.180 18.171127
62.185 18.209494
62.190 17.922018
62.195 17.585367
62.200 17.108973
62.205 16.089556
62.210 15.924128
62.215 16.476931
62.220 16.302998
62.225 15.674128
62.230 15.624397
62.235 15.882643
62.240 16.297064
62.245 15.972808
62.250 15.918096
62.255 16.422043
62.260 17.3986
62.265 17.425554
62.270 17.083731
62.275 17.814293
62.280 18.033384
62.285 18.352345
62.290 18.263968
62.295 18.532421
62.300 18.933697
62.305 19.061424
62.310 18.633223
62.315 18.648388
62.320 18.169817
62.325 17.786573
62.330 17.030083
62.335 16.632593
62.340 16.401388
62.345 16.184265
62.350 16.439962
62.355 16.586952
62.360 17.30147
62.365 17.248228
62.370 17.608263
62.375 18.061909
62.380 18.244387
62.385 18.250582
62.390 17.781786
62.395 17.277508
62.400 17.324261
62.405 16.889297
62.410 17.290871
62.415 17.965906
62.420 18.431047
62.425 19.207678
62.430 19.438784
62.435 19.86928
62.440 19.912748
62.445 19.584606
62.450 19.451338
62.455 19.771013
62.460 20.454351
62.465 20.692261
62.470 20.745285
62.475 21.202404
62.480 21.101133
62.485 20.602045
62.490 19.978416
62.495 18.95887
62.500 18.520187
62.505 17.913227
62.510 17.623341
62.515 17.402737
62.520 17.708992
62.525 17.56946
62.530 17.964689
62.535 18.078138
62.540 18.171055
62.545 18.202497
62.550 18.18339
62.555 17.646523
62.560 17.243879
62.565 16.891136
62.570 16.549047
62.575 16.605505
62.580 15.964617
62.585 15.43001
62.590 15.505193
62.595 16.027906
62.600 16.419724
62.605 17.155359
62.610 17.080273
62.615 17.419014
62.620 18.610767
62.625 18.986542
62.630 18.781574
62.635 18.361834
62.640 18.025591
62.645 17.617691
62.650 17.786772
62.655 17.150497
62.660 16.991158
62.665 16.775948
62.670 16.802614
62.675 17.316193
62.680 18.280186
62.685 17.996872
62.690 18.128054
62.695 18.156628
62.700 18.180958
62.705 18.416824
62.710 18.040419
62.715 17.73509
62.720 18.101448
62.725 18.237953
62.730 19.006594
62.735 19.523878
62.740 19.25577
62.745 19.464483
62.750 19.530878
62.755 19.28105
62.760 19.145885
62.765 18.804747
62.770 18.460648
62.775 17.979111
62.780 17.741903
62.785 17.582273
62.790 17.403856
62.795 16.845011
62.800 16.292379
62.805 16.434292
62.810 16.914598
62.815 16.546425
62.820 16.68564
62.825 16.785255
62.830 17.282425
62.835 17.443254
62.840 17.175301
62.845 17.05945
62.850 17.061176
62.855 17.215155
62.860 17.820042
62.865 17.82423
62.870 17.405699
62.875 17.072506
62.880 16.952648
62.885 17.53306
62.890 17.477449
62.895 17.089834
62.900 16.792028
62.905 17.502556
62.910 18.672924
62.915 19.826841
62.920 19.969524
62.925 20.119514
62.930 19.638443
62.935 19.400911
62.940 19.082661
62.945 17.984701
62.950 16.927355
62.955 16.671816
62.960 16.805193
62.965 17.461895
62.970 18.257389
62.975 18.808388
62.980 19.305119
62.985 19.414207
62.990 19.750586
62.995 19.181665
63.000 18.514799
63.005 17.377705
63.010 17.268482
63.015 17.180225
63.020 17.083027
63.025 16.755945
63.030 17.119596
63.035 17.678921
63.040 18.667137
63.045 18.184038
63.050 18.072062
63.055 17.570482
63.060 17.371311
63.065 17.344872
63.070 17.012651
63.075 16.548101
63.080 17.127605
63.085 17.613745
63.090 18.216051
63.095 18.349733
63.100 18.100193
63.105 18.400076
63.110 18.563803
63.115 18.669733
63.120 18.675619
63.125 18.577168
63.130 18.42544
63.135 18.212271
63.140 17.666971
63.145 17.309799
63.150 16.826368
63.155 16.806158
63.160 17.016979
63.165 17.037117
63.170 17.691553
63.175 18.236294
63.180 18.913631
63.185 19.153208
63.190 18.837734
63.195 18.792433
63.200 18.935518
63.205 18.838877
63.210 18.954988
63.215 18.642775
63.220 19.062143
63.225 18.687798
63.230 18.553387
63.235 18.767733
63.240 18.56419
63.245 18.043669
63.250 17.8943
63.255 17.894716
63.260 18.384001
63.265 18.271822
63.270 18.33448
63.275 18.327333
63.280 18.862391
63.285 18.727394
63.290 18.301674
63.295 18.263849
63.300 19.086664
63.305 19.185005
63.310 19.417166
63.315 19.061567
63.320 19.112061
63.325 18.68417
63.330 18.413589
63.335 17.570398
63.340 17.624554
63.345 17.602003
63.350 17.794823
63.355 17.721285
63.360 18.242836
63.365 18.453163
63.370 19.032013
63.375 18.883675
63.380 18.798637
63.385 19.176773
63.390 19.485451
63.395 20.02799
63.400 20.194059
63.405 19.520472
63.410 19.227797
63.415 18.689646
63.420 18.461727
63.425 18.2565
63.430 17.826422
63.435 18.041296
63.440 18.118315
63.445 18.48926
63.450 18.977287
63.455 19.57143
63.460 19.675617
63.465 19.334242
63.470 19.030809
63.475 19.311657
63.480 19.602736
63.485 19.633896
63.490 19.094376
63.495 19.521049
63.500 20.290087
63.505 20.509512
63.510 20.650974
63.515 20.397366
63.520 19.984247
63.525 20.027294
63.530 19.661072
63.535 19.65341
63.540 19.024439
63.545 18.660856
63.550 18.633797
63.555 19.077108
63.560 18.960007
63.565 18.670248
63.570 18.439787
63.575 19.161829
63.580 19.356171
63.585 19.837709
63.590 20.340626
63.595 21.176649
63.600 21.55444
63.605 21.796284
63.610 22.235428
63.615 22.80817
63.620 22.544031
63.625 21.667404
63.630 21.177296
63.635 20.952938
63.640 20.56329
63.645 20.220411
63.650 19.638577
63.655 19.36585
63.660 19.932066
63.665 19.752199
63.670 20.211399
63.675 20.504761
63.680 20.86879
63.685 21.272768
63.690 21.277863
63.695 20.976444
63.700 20.706366
63.705 20.283962
63.710 19.791155
63.715 19.433775
63.720 19.51239
63.725 19.603733
63.730 19.846472
63.735 20.358526
63.740 20.809889
63.745 21.387239
63.750 21.126598
63.755 21.245098
63.760 21.788559
63.765 21.12701
63.770 20.742781
63.775 19.807091
63.780 20.073612
63.785 20.706814
63.790 20.528873
63.795 20.785263
63.800 21.548189
63.805 22.193914
63.810 22.366692
63.815 21.638079
63.820 21.358028
63.825 21.95521
63.830 21.844429
63.835 21.900806
63.840 21.919378
63.845 22.600641
63.850 22.579937
63.855 22.271778
63.860 21.544294
63.865 21.402988
63.870 22.273623
63.875 23.011078
63.880 23.111517
63.885 23.523752
63.890 23.839579
63.895 23.483492
63.900 23.390425
63.905 22.776638
63.910 22.54817
63.915 22.480419
63.920 22.578102
63.925 22.454645
63.930 22.917828
63.935 22.861925
63.940 23.253267
63.945 23.654682
63.950 24.483517
63.955 24.959286
63.960 25.585175
63.965 26.433306
63.970 27.726494
63.975 27.431393
63.980 26.898943
63.985 27.007252
63.990 27.437683
63.995 28.055321
64.000 28.019403
64.005 27.482424
64.010 28.530546
64.015 29.12867
64.020 29.536791
64.025 29.461416
64.030 29.321701
64.035 29.675993
64.040 29.593485
64.045 30.063602
64.050 30.488832
64.055 30.384653
64.060 30.527225
64.065 30.425613
64.070 30.718647
64.075 30.935324
64.080 30.612988
64.085 31.057041
64.090 31.635021
64.095 31.814274
64.100 32.181358
64.105 32.482796
64.110 32.543736
64.115 33.091686
64.120 33.382439
64.125 32.697369
64.130 33.374367
64.135 33.606503
64.140 33.490284
64.145 33.254471
64.150 32.186615
64.155 31.273567
64.160 31.556143
64.165 30.903812
64.170 30.435091
64.175 30.604782
64.180 31.11787
64.185 31.692934
64.190 32.252548
64.195 31.928612
64.200 31.905025
64.205 31.58923
64.210 31.503311
64.215 30.930353
64.220 30.973392
64.225 31.671698
64.230 31.898727
64.235 31.511635
64.240 31.834116
64.245 31.20347
64.250 31.329588
64.255 31.654806
64.260 31.209995
64.265 31.028984
64.270 30.999256
64.275 30.889118
64.280 31.162325
64.285 30.641523
64.290 29.746412
64.295 29.464979
64.300 30.26251
64.305 30.646
64.310 30.553591
64.315 30.470783
64.320 30.619576
64.325 30.627546
64.330 30.715769
64.335 30.06147
64.340 29.67325
64.345 29.872051
64.350 30.628115
64.355 30.842705
64.360 30.574854
64.365 30.50725
64.370 30.513849
64.375 30.316612
64.380 29.898975
64.385 29.065546
64.390 28.984615
64.395 29.511868
64.400 29.621355
64.405 29.70764
64.410 29.845919
64.415 29.601768
64.420 29.489908
64.425 29.718086
64.430 29.105801
64.435 28.741518
64.440 29.181252
64.445 29.407818
64.450 29.607517
64.455 30.097937
64.460 29.275515
64.465 28.982224
64.470 28.729982
64.475 28.136028
64.480 28.142704
64.485 28.118038
64.490 28.153141
64.495 29.002386
64.500 29.291908
64.505 28.684456
64.510 27.933558
64.515 26.929722
64.520 25.788349
64.525 25.533979
64.530 25.494125
64.535 24.81325
64.540 24.579411
64.545 24.410078
64.550 24.964716
64.555 25.53731
64.560 25.376478
64.565 25.172361
64.570 25.298538
64.575 25.632418
64.580 26.1429
64.585 25.827467
64.590 26.131653
64.595 26.029886
64.600 25.41733
64.605 25.304379
64.610 25.699774
64.615 25.792679
64.620 25.367342
64.625 24.163603
64.630 23.97047
64.635 24.198761
64.640 24.038261
64.645 23.103828
64.650 22.789778
64.655 23.507721
64.660 24.159864
64.665 24.082111
64.670 24.23925
64.675 24.611593
64.680 25.249495
64.685 25.456343
64.690 24.685135
64.695 24.05891
64.700 24.299177
64.705 23.811489
64.710 22.631271
64.715 21.819777
64.720 21.461172
64.725 21.577599
64.730 21.69665
64.735 21.195927
64.740 21.075468
64.745 21.506001
64.750 21.25561
64.755 21.115427
64.760 21.352879
64.765 21.445259
64.770 21.906313
64.775 22.137451
64.780 22.673811
64.785 23.433249
64.790 23.520741
64.795 23.174206
64.800 22.952818
64.805 23.087126
64.810 23.365931
64.815 23.27697
64.820 22.83844
64.825 23.012947
64.830 23.35288
64.835 23.307549
64.840 22.698824
64.845 21.829151
64.850 21.985477
64.855 22.053314
64.860 21.878603
64.865 22.180553
64.870 21.936895
64.875 22.163044
64.880 22.632799
64.885 23.098034
64.890 23.772144
64.895 24.182081
64.900 24.228645
64.905 24.80488
64.910 25.080788
64.915 24.946932
64.920 24.728064
64.925 24.119431
64.930 23.515652
64.935 23.559622
64.940 23.55546
64.945 23.411926
64.950 23.630915
64.955 24.334089
64.960 25.102283
64.965 25.400188
64.970 25.209955
64.975 24.904818
64.980 24.561302
64.985 24.290628
64.990 24.093071
64.995 23.858356
65.000 24.038851
65.005 23.841921
65.010 23.751217
65.015 24.581902
65.020 25.480722
65.025 24.986612
65.030 24.79088
65.035 24.907639
65.040 25.225239
65.045 25.449751
65.050 24.978212
65.055 24.037615
65.060 24.208733
65.065 24.23665
65.070 24.230995
65.075 24.327818
65.080 24.350393
65.085 24.097252
65.090 23.918274
65.095 24.327581
65.100 24.663103
65.105 24.609993
65.110 24.724911
65.115 24.829306
65.120 25.588358
65.125 26.22858
65.130 25.564213
65.135 25.733904
65.140 26.065422
65.145 25.933428
65.150 26.33404
65.155 26.185001
65.160 25.233601
65.165 25.216734
65.170 24.829977
65.175 24.760902
65.180 25.059229
65.185 24.49564
65.190 23.60693
65.195 23.98772
65.200 23.664991
65.205 22.967407
65.210 22.972176
65.215 22.527857
65.220 22.744743
65.225 23.439873
65.230 23.043783
65.235 23.3365
65.240 23.927214
65.245 24.07959
65.250 24.218321
65.255 24.316339
65.260 23.744164
65.265 23.624414
65.270 23.470867
65.275 23.403854
65.280 23.148611
65.285 22.561588
65.290 22.397196
65.295 22.67639
65.300 22.996885
65.305 23.094574
65.310 22.758701
65.315 22.949701
65.320 23.403532
65.325 23.344719
65.330 23.791538
65.335 23.914766
65.340 24.417892
65.345 24.330181
65.350 24.382402
65.355 24.557674
65.360 24.817301
65.365 24.979929
65.370 25.354454
65.375 24.610428
65.380 24.385662
65.385 24.593254
65.390 24.721474
65.395 25.239544
65.400 25.800478
65.405 25.920609
65.410 26.237053
65.415 26.622332
65.420 26.695028
65.425 26.380743
65.430 26.138752
65.435 25.636522
65.440 25.586849
65.445 25.604399
65.450 25.939484
65.455 25.634569
65.460 25.617516
65.465 24.641439
65.470 24.794491
65.475 25.156914
65.480 25.26034
65.485 25.319592
65.490 24.929594
65.495 25.99312
65.500 27.373762
65.505 27.191544
65.510 27.061617
65.515 27.132355
65.520 26.995977
65.525 27.18873
65.530 26.930393
65.535 26.970396
65.540 27.076956
65.545 27.365356
65.550 27.308886
65.555 27.589754
65.560 28.095026
65.565 27.720503
65.570 27.362362
65.575 27.347841
65.580 27.45788
65.585 27.377617
65.590 27.025251
65.595 26.808601
65.600 26.767483
65.605 26.951479
65.610 27.891804
65.615 27.872589
65.620 28.536718
65.625 28.547499
65.630 28.575216
65.635 29.010324
65.640 29.02854
65.645 28.154268
65.650 28.778681
65.655 29.109192
65.660 29.755823
65.665 29.665867
65.670 29.385059
65.675 29.556599
65.680 29.876322
65.685 29.767405
65.690 30.06122
65.695 31.171335
65.700 32.753487
65.705 32.819946
65.710 32.410404
65.715 32.418236
65.720 32.41888
65.725 32.039951
65.730 31.357021
65.735 30.298979
65.740 30.281847
65.745 31.353554
65.750 32.25
65.755 32.347965
65.760 32.083229
65.765 32.084206
65.770 32.632786
65.775 32.737171
65.780 32.20953
65.785 32.266209
65.790 32.907566
65.795 33.504284
65.800 33.381496
65.805 33.439613
65.810 34.168728
65.815 34.186859
65.820 34.345085
65.825 34.12048
65.830 34.159557
65.835 34.209053
65.840 33.753708
65.845 33.887184
65.850 33.496208
65.855 33.474308
65.860 33.616962
65.865 33.112549
65.870 34.323807
65.875 35.13303
65.880 35.765266
65.885 36.80455
65.890 36.404819
65.895 36.588676
65.900 37.191448
65.905 36.021503
65.910 36.000824
65.915 35.736774
65.920 35.346195
65.925 35.20578
65.930 35.686298
65.935 36.383728
65.940 36.966759
65.945 37.11668
65.950 37.096962
65.955 37.596451
65.960 38.580971
65.965 37.829491
65.970 37.546452
65.975 37.76701
65.980 37.990681
65.985 38.454136
65.990 38.545273
65.995 38.840607
66.000 39.077621
66.005 39.353859
66.010 38.793419
66.015 38.213676
66.020 37.669876
66.025 37.520267
66.030 37.676476
66.035 37.899673
66.040 38.152267
66.045 38.460079
66.050 38.330341
66.055 38.607021
66.060 38.552788
66.065 38.787148
66.070 38.88805
66.075 38.165497
66.080 38.547657
66.085 38.323425
66.090 38.240993
66.095 38.17495
66.100 37.331322
66.105 36.894344
66.110 37.24411
66.115 37.804409
66.120 38.877842
66.125 39.687542
66.130 39.474293
66.135 39.662716
66.140 39.948322
66.145 40.012611
66.150 38.848774
66.155 38.101551
66.160 37.843864
66.165 37.751919
66.170 37.388172
66.175 37.558525
66.180 37.4571
66.185 37.462795
66.190 37.258564
66.195 37.031536
66.200 37.537903
66.205 38.078102
66.210 38.22057
66.215 38.876019
66.220 39.384869
66.225 38.852646
66.230 38.372196
66.235 38.536137
66.240 38.36483
66.245 37.967407
66.250 37.573891
66.255 37.681293
66.260 38.436531
66.265 38.890022
66.270 37.817722
66.275 38.191765
66.280 38.082897
66.285 37.644115
66.290 37.397816
66.295 36.536503
66.300 35.737705
66.305 35.962582
66.310 35.059891
66.315 34.616016
66.320 34.148975
66.325 34.343468
66.330 34.745625
66.335 34.59177
66.340 34.322906
66.345 34.276585
66.350 34.542694
66.355 34.707035
66.360 34.118618
66.365 33.63361
66.370 33.350426
66.375 32.927094
66.380 32.520336
66.385 31.987284
66.390 30.976484
66.395 30.459673
66.400 30.920376
66.405 31.789326
66.410 32.363659
66.415 32.259571
66.420 32.617416
66.425 32.815483
66.430 32.328968
66.435 32.310841
66.440 31.927593
66.445 31.424173
66.450 30.673433
66.455 29.818277
66.460 29.082821
66.465 28.936304
66.470 28.248577
66.475 27.31778
66.480 26.813267
66.485 27.070601
66.490 27.187969
66.495 27.804117
66.500 28.221554
66.505 28.368567
66.510 28.400423
66.515 27.842066
66.520 27.452621
66.525 26.371464
66.530 26.122803
66.535 26.04327
66.540 25.410862
66.545 25.38204
66.550 25.723633
66.555 25.545938
66.560 25.821566
66.565 25.612104
66.570 25.117641
66.575 25.01088
66.580 24.036371
66.585 22.90287
66.590 22.430099
66.595 22.985405
66.600 23.066666
66.605 23.474344
66.610 24.263037
66.615 24.65049
66.620 24.83856
66.625 25.374805
66.630 25.207111
66.635 25.039921
66.640 24.320824
66.645 23.522524
66.650 23.751818
66.655 24.207333
66.660 23.997438
66.665 24.298891
66.670 24.285049
66.675 23.898901
66.680 23.75733
66.685 24.180513
66.690 23.904688
66.695 24.035986
66.700 23.349941
66.705 23.043179
66.710 22.921453
66.715 22.383451
66.720 21.973175
66.725 21.599133
66.730 20.752228
66.735 20.539228
66.740 21.051346
66.745 21.415916
66.750 22.068951
66.755 22.492994
66.760 22.682001
66.765 22.993807
66.770 22.997925
66.775 22.718517
66.780 22.777948
66.785 21.913431
66.790 20.703447
66.795 20.635502
66.800 20.915251
66.805 20.89683
66.810 20.610554
66.815 20.691187
66.820 20.743303
66.825 21.591013
66.830 21.447504
66.835 20.774704
66.840 20.933447
66.845 21.279598
66.850 21.411177
66.855 21.509323
66.860 20.746109
66.865 20.607069
66.870 20.758863
66.875 20.729929
66.880 20.6772
66.885 20.527132
66.890 20.898748
66.895 21.741539
66.900 22.116083
66.905 21.940136
66.910 21.642496
66.915 21.243736
66.920 20.97921
66.925 20.965275
66.930 20.946922
66.935 20.896683
66.940 21.049299
66.945 21.230509
66.950 21.549561
66.955 21.324276
66.960 21.001143
66.965 20.495058
66.970 21.112619
66.975 21.074223
66.980 20.38859
66.985 21.01544
66.990 21.393097
66.995 20.976318
67.000 21.195026
67.005 20.865917
67.010 21.154993
67.015 21.243523
67.020 20.358131
67.025 20.308022
67.030 20.450594
67.035 19.84973
67.040 19.041441
67.045 18.76564
67.050 19.50605
67.055 19.911283
67.060 20.10107
67.065 20.324877
67.070 20.33493
67.075 20.305193
67.080 20.533335
67.085 20.032909
67.090 19.901972
67.095 19.69125
67.100 19.832228
67.105 20.100897
67.110 20.761194
67.115 20.560747
67.120 20.305618
67.125 20.059925
67.130 19.931993
67.135 20.265467
67.140 20.044271
67.145 19.629499
67.150 19.74268
67.155 20.417463
67.160 21.138905
67.165 21.144688
67.170 20.914007
67.175 21.670301
67.180 21.66082
67.185 22.036291
67.190 22.010317
67.195 21.556498
67.200 21.82144
67.205 21.621616
67.210 20.602421
67.215 20.582138
67.220 20.134247
67.225 19.506342
67.230 19.668459
67.235 19.33651
67.240 19.269968
67.245 19.468916
67.250 19.472214
67.255 19.547915
67.260 20.184801
67.265 20.436926
67.270 20.403267
67.275 20.533794
67.280 20.91699
67.285 21.063416
67.290 21.230461
67.295 20.497499
67.300 19.923082
67.305 19.770405
67.310 19.503077
67.315 19.609276
67.320 19.412687
67.325 19.320217
67.330 19.738392
67.335 20.332092
67.340 20.733131
67.345 21.217585
67.350 21.199955
67.355 20.822329
67.360 21.017294
67.365 20.88666
67.370 20.432848
67.375 20.330744
67.380 20.254051
67.385 19.740187
67.390 20.336466
67.395 20.115599
67.400 20.034676
67.405 20.018293
67.410 20.354322
67.415 20.82933
67.420 20.854275
67.425 20.287895
67.430 20.093437
67.435 20.205309
67.440 19.902367
67.445 19.291489
67.450 19.041319
67.455 19.014843
67.460 19.068209
67.465 19.160824
67.470 19.515112
67.475 19.62738
67.480 19.868099
67.485 20.115135
67.490 20.320721
67.495 20.646318
67.500 20.734047
67.505 20.574842
67.510 20.8836
67.515 20.662016
67.520 20.814402
67.525 20.663229
67.530 20.308361
67.535 20.285646
67.540 20.498629
67.545 20.32658
67.550 19.922461
67.555 19.365999
67.560 19.861954
67.565 20.047468
67.570 19.525793
67.575 18.782022
67.580 18.753567
67.585 19.200884
67.590 19.276722
67.595 19.230305
67.600 19.082689
67.605 19.456438
67.610 20.262812
67.615 20.676851
67.620 20.977671
67.625 21.107862
67.630 20.573009
67.635 20.499557
67.640 20.182098
67.645 19.872686
67.650 19.830212
67.655 19.977446
67.660 19.772152
67.665 20.535685
67.670 20.218801
67.675 19.84671
67.680 19.821671
67.685 19.788607
67.690 19.218731
67.695 18.831663
67.700 18.283882
67.705 19.042639
67.710 18.74193
67.715 19.187195
67.720 18.873735
67.725 19.369856
67.730 20.128359
67.735 20.393623
67.740 20.410229
67.745 20.453863
67.750 19.905472
67.755 19.569681
67.760 19.17692
67.765 19.178061
67.770 19.053411
67.775 19.387051
67.780 19.942322
67.785 20.235138
67.790 20.523376
67.795 20.14406
67.800 20.040819
67.805 19.851068
67.810 19.475029
67.815 18.99143
67.820 18.545691
67.825 18.843016
67.830 20.181549
67.835 20.285702
67.840 19.906651
67.845 19.774649
67.850 20.506809
67.855 20.298595
67.860 19.658657
67.865 18.427721
67.870 18.525986
67.875 19.435629
67.880 19.407402
67.885 18.878328
67.890 19.71669
67.895 20.978943
67.900 21.888407
67.905 22.028675
67.910 21.709339
67.915 22.088486
67.920 22.234184
67.925 21.389576
67.930 20.597467
67.935 20.477922
67.940 20.364004
67.945 20.740067
67.950 20.836926
67.955 21.214647
67.960 21.444092
67.965 21.667854
67.970 21.300652
67.975 21.125702
67.980 20.677332
67.985 20.577286
67.990 20.24317
67.995 20.100178
68.000 19.891777
68.005 19.691769
68.010 19.551897
68.015 19.487059
68.020 19.286879
68.025 19.376209
68.030 19.515545
68.035 19.8064
68.040 19.742102
68.045 20.221794
68.050 20.787958
68.055 21.107912
68.060 21.486528
68.065 21.399302
68.070 20.911127
68.075 21.060919
68.080 21.1021
68.085 20.919163
68.090 20.857176
68.095 20.800678
68.100 20.64859
68.105 21.238167
68.110 21.657887
68.115 21.420395
68.120 21.346405
68.125 21.01573
68.130 20.912169
68.135 20.935213
68.140 20.322451
68.145 20.108807
68.150 19.71121
68.155 19.251274
68.160 19.613577
68.165 19.790688
68.170 19.816904
68.175 19.863285
68.180 19.952663
68.185 20.550919
68.190 20.498981
68.195 19.824934
68.200 19.462442
68.205 19.420473
68.210 19.635521
68.215 19.233137
68.220 18.765512
68.225 18.645044
68.230 18.652151
68.235 18.596752
68.240 18.766235
68.245 18.887505
68.250 19.245783
68.255 20.053598
68.260 20.772566
68.265 21.613056
68.270 22.311026
68.275 22.622263
68.280 22.477503
68.285 22.424007
68.290 22.309443
68.295 22.078541
68.300 21.67934
68.305 21.271999
68.310 21.097198
68.315 20.707264
68.320 20.285173
68.325 20.15802
68.330 19.703266
68.335 19.678801
68.340 19.605766
68.345 19.781595
68.350 19.941229
68.355 19.946527
68.360 19.594566
68.365 19.274885
68.370 18.927914
68.375 18.906479
68.380 18.901775
68.385 19.374847
68.390 19.758057
68.395 20.154644
68.400 20.91387
68.405 21.214827
68.410 21.337051
68.415 21.492535
68.420 21.185192
68.425 21.529621
68.430 21.512808
68.435 21.403927
68.440 21.096106
68.445 21.002525
68.450 20.899153
68.455 20.691578
68.460 20.525164
68.465 20.442768
68.470 20.879721
68.475 21.454489
68.480 20.709579
68.485 20.803806
68.490 20.854481
68.495 20.769962
68.500 20.894192
68.505 21.201353
68.510 21.197487
68.515 21.737463
68.520 21.470486
68.525 21.390247
68.530 21.561716
68.535 21.348837
68.540 20.565248
68.545 20.792301
68.550 21.106441
68.555 21.288794
68.560 21.206539
68.565 21.536385
68.570 21.293734
68.575 20.52951
68.580 20.61244
68.585 20.589195
68.590 20.821312
68.595 21.169281
68.600 20.335571
68.605 20.788429
68.610 21.796331
68.615 21.739864
68.620 22.539051
68.625 22.447178
68.630 22.64171
68.635 23.515173
68.640 23.569658
68.645 23.361029
68.650 22.647053
68.655 21.838717
68.660 22.015217
68.665 22.044962
68.670 21.730049
68.675 21.885014
68.680 22.270067
68.685 22.598122
68.690 22.99552
68.695 23.308857
68.700 23.626232
68.705 23.762362
68.710 24.047169
68.715 23.806471
68.720 23.629375
68.725 23.587835
68.730 23.519363
68.735 23.128918
68.740 23.829741
68.745 23.517572
68.750 23.208012
68.755 23.602629
68.760 23.424828
68.765 23.442621
68.770 23.876612
68.775 23.410927
68.780 23.307938
68.785 23.652515
68.790 24.073549
68.795 24.851103
68.800 25.150616
68.805 25.061068
68.810 25.487896
68.815 25.811548
68.820 25.687019
68.825 25.620565
68.830 25.984228
68.835 25.912157
68.840 25.814631
68.845 25.710094
68.850 26.010151
68.855 26.880985
68.860 27.428341
68.865 27.623444
68.870 27.986088
68.875 28.15888
68.880 28.937321
68.885 28.745001
68.890 28.057901
68.895 28.131029
68.900 27.99703
68.905 28.310431
68.910 28.164503
68.915 27.325726
68.920 27.44154
68.925 27.599268
68.930 27.102926
68.935 27.25536
68.940 26.899508
68.945 27.467716
68.950 28.000704
68.955 28.305498
68.960 28.43726
68.965 28.362799
68.970 29.100346
68.975 29.454569
68.980 28.83147
68.985 28.997086
68.990 28.6026
68.995 28.770489
69.000 28.485386
69.005 28.219854
69.010 28.817694
69.015 29.862436
69.020 30.322039
69.025 31.46026
69.030 31.728622
69.035 31.346867
69.040 31.335732
69.045 31.359966
69.050 31.256756
69.055 30.914608
69.060 29.855654
69.065 30.644279
69.070 31.386787
69.075 31.734915
69.080 31.848221
69.085 31.828304
69.090 31.634399
69.095 31.708868
69.100 31.698532
69.105 31.624651
69.110 31.446171
69.115 31.657145
69.120 31.707663
69.125 32.260063
69.130 32.46904
69.135 32.535053
69.140 33.246338
69.145 33.348972
69.150 33.835495
69.155 34.293526
69.160 34.225864
69.165 34.379078
69.170 34.100948
69.175 33.41375
69.180 33.038082
69.185 33.021275
69.190 33.228947
69.195 32.928818
69.200 32.12571
69.205 32.382946
69.210 33.008835
69.215 33.113495
69.220 33.233482
69.225 33.112869
69.230 33.800541
69.235 34.294247
69.240 34.459469
69.245 34.450615
69.250 35.302734
69.255 35.271862
69.260 35.287247
69.265 34.991642
69.270 34.509388
69.275 34.140648
69.280 33.623661
69.285 32.548134
69.290 31.968136
69.295 31.397018
69.300 31.598238
69.305 31.99687
69.310 32.428631
69.315 32.931469
69.320 32.703178
69.325 32.843975
69.330 33.470234
69.335 33.518314
69.340 33.791859
69.345 33.758194
69.350 33.110989
69.355 33.029102
69.360 32.506542
69.365 32.909187
69.370 32.208981
69.375 31.915487
69.380 31.370529
69.385 31.512871
69.390 32.192348
69.395 32.491619
69.400 31.653563
69.405 32.245926
69.410 32.255047
69.415 32.260807
69.420 31.573042
69.425 30.782671
69.430 31.462118
69.435 31.854828
69.440 31.817434
69.445 32.130421
69.450 32.464802
69.455 32.140533
69.460 31.980242
69.465 31.122337
69.470 30.930166
69.475 30.732738
69.480 30.386515
69.485 30.203836
69.490 31.200155
69.495 32.124977
69.500 31.904373
69.505 31.806576
69.510 32.454937
69.515 32.487507
69.520 32.788326
69.525 32.306644
69.530 31.417768
69.535 31.418446
69.540 31.038279
69.545 31.237932
69.550 31.474058
69.555 30.893711
69.560 29.908342
69.565 30.310152
69.570 30.763636
69.575 31.167685
69.580 30.997641
69.585 30.265274
69.590 30.844906
69.595 31.487082
69.600 31.326218
69.605 31.050438
69.610 30.529367
69.615 29.999462
69.620 29.48753
69.625 28.750256
69.630 28.618376
69.635 28.460384
69.640 28.204023
69.645 27.88792
69.650 28.32135
69.655 28.724747
69.660 29.124893
69.665 28.685648
69.670 28.481426
69.675 28.628002
69.680 27.759897
69.685 27.055569
69.690 27.303661
69.695 27.037741
69.700 27.309298
69.705 27.443148
69.710 27.565573
69.715 28.173008
69.720 28.718697
69.725 28.289785
69.730 28.148432
69.735 27.445854
69.740 26.973269
69.745 26.4021
69.750 25.950233
69.755 25.472269
69.760 25.749781
69.765 25.77453
69.770 25.592037
69.775 25.03776
69.780 24.548355
69.785 24.81097
69.790 24.167063
69.795 23.341919
69.800 23.030287
69.805 23.003347
69.810 23.619593
69.815 24.034191
69.820 23.663744
69.825 23.121166
69.830 23.390617
69.835 24.66708
69.840 24.921862
69.845 25.1126
69.850 25.542953
69.855 25.685398
69.860 25.784807
69.865 25.099218
69.870 23.728687
69.875 23.712513
69.880 23.600864
69.885 23.800501
69.890 24.048346
69.895 24.014994
69.900 24.06044
69.905 24.369007
69.910 24.013258
69.915 23.117796
69.920 22.44022
69.925 22.346701
69.930 22.664642
69.935 22.376066
69.940 22.143854
69.945 22.273548
69.950 22.301355
69.955 22.530468
69.960 21.853764
69.965 21.7192
69.970 21.407684
69.975 20.675055
69.980 20.210443
69.985 20.3626
69.990 20.094896
69.995 20.284342
70.000 20.246679
70.005 20.376421
70.010 21.020002
70.015 20.921816
70.020 20.226421
70.025 20.272461
70.030 20.135258
70.035 20.43943
70.040 19.916136
70.045 19.816031
70.050 19.828743
70.055 20.427179
70.060 20.377958
70.065 20.618546
70.070 20.910933
70.075 21.323471
70.080 21.458742
70.085 21.834665
70.090 21.638124
70.095 22.026869
70.100 21.393824
70.105 20.579142
70.110 20.949665
70.115 20.299314
70.120 19.745817
70.125 20.248112
70.130 20.518732
70.135 20.06291
70.140 19.974377
70.145 20.019531
70.150 20.184362
70.155 19.817764
70.160 18.736776
70.165 18.905375
70.170 19.099897
70.175 19.144806
70.180 18.795002
70.185 19.06143
70.190 19.207453
70.195 19.338375
70.200 19.428038
70.205 19.840742
70.210 19.525715
70.215 19.261797
70.220 18.762863
70.225 18.765385
70.230 18.339758
70.235 18.236177
70.240 17.87245
70.245 18.342745
70.250 18.587685
70.255 19.143404
70.260 19.117546
70.265 19.431929
70.270 19.462353
70.275 20.227528
70.280 20.172501
70.285 20.235209
70.290 20.48782
70.295 20.483297
70.300 20.234547
70.305 20.02317
70.310 19.829523
70.315 19.920671
70.320 19.406536
70.325 19.057238
70.330 18.530724
70.335 18.65975
70.340 18.411154
70.345 18.389198
70.350 18.5555
70.355 18.896494
70.360 19.418423
70.365 19.778925
70.370 19.759962
70.375 20.127289
70.380 20.177641
70.385 19.894493
70.390 19.869688
70.395 20.175766
70.400 20.563747
70.405 20.307728
70.410 20.105654
70.415 19.689304
70.420 19.706793
70.425 19.409307
70.430 19.622154
70.435 19.548361
70.440 19.773478
70.445 20.55051
70.450 20.416027
70.455 20.524998
70.460 20.561907
70.465 20.003723
70.470 20.128935
70.475 19.97279
70.480 19.661669
70.485 19.689512
70.490 19.833082
70.495 20.214775
70.500 20.15802
70.505 20.413044
70.510 20.483978
70.515 20.650225
70.520 20.641653
70.525 20.104216
70.530 19.282413
70.535 19.116663
70.540 18.629347
70.545 18.056007
70.550 18.111073
70.555 17.880777
70.560 18.145319
70.565 18.402983
70.570 17.917704
70.575 18.567093
70.580 19.258904
70.585 20.074203
70.590 20.451347
70.595 20.130095
70.600 20.618689
70.605 21.096632
70.610 20.7761
70.615 19.736948
70.620 18.842234
70.625 18.679146
70.630 18.895756
70.635 18.727894
70.640 18.238665
70.645 18.484396
70.650 18.911674
70.655 19.945786
70.660 20.507832
70.665 21.100019
70.670 21.303925
70.675 21.695999
70.680 22.054596
70.685 22.213833
70.690 21.75985
70.695 20.948185
70.700 20.584352
70.705 20.578239
70.710 20.021996
70.715 20.177807
70.720 20.012747
70.725 19.386736
70.730 19.539537
70.735 19.254545
70.740 18.992353
70.745 19.082266
70.750 18.156454
70.755 17.917801
70.760 18.287447
70.765 18.571245
70.770 18.700102
70.775 18.727892
70.780 18.581915
70.785 19.064451
70.790 18.811897
70.795 18.739437
70.800 18.397392
70.805 19.063105
70.810 19.402637
70.815 19.449308
70.820 19.7005
70.825 20.574251
70.830 20.260839
70.835 20.168543
70.840 19.644112
70.845 19.425543
70.850 19.70817
70.855 19.484703
70.860 19.230051
70.865 19.504396
70.870 19.674698
70.875 19.402208
70.880 19.056871
70.885 18.826036
70.890 19.168482
70.895 18.819681
70.900 18.938477
70.905 18.680128
70.910 18.8806
70.915 19.029253
70.920 18.93774
70.925 18.73016
70.930 18.981876
70.935 19.095221
70.940 18.817732
70.945 18.754055
70.950 19.059715
70.955 18.965399
70.960 18.974421
70.965 19.070059
70.970 19.549891
70.975 19.940454
70.980 19.85062
70.985 19.802845
70.990 20.131285
70.995 20.9154
71.000 20.208582
71.005 19.303976
71.010 19.630133
71.015 19.884773
71.020 19.901358
71.025 19.247627
71.030 18.58485
71.035 18.901739
71.040 19.034456
71.045 18.797178
71.050 18.85681
71.055 18.836079
71.060 18.956047
71.065 19.340601
71.070 19.481836
71.075 19.350611
71.080 19.509645
71.085 19.251387
71.090 19.083174
71.095 18.802019
71.100 17.940315
71.105 18.337557
71.110 18.543385
71.115 18.235376
71.120 18.300873
71.125 18.079113
71.130 18.734789
71.135 18.924213
71.140 18.923971
71.145 18.936049
71.150 18.702808
71.155 18.639099
71.160 18.844835
71.165 19.082146
71.170 18.965292
71.175 18.866165
71.180 18.947916
71.185 18.727068
71.190 18.762035
71.195 18.44838
71.200 18.069168
71.205 18.047358
71.210 18.453497
71.215 18.322399
71.220 18.155525
71.225 18.183176
71.230 18.907652
71.235 18.981554
71.240 18.463486
71.245 18.263258
71.250 19.358553
71.255 19.560022
71.260 19.078979
71.265 18.670998
71.270 18.493364
71.275 18.85281
71.280 18.671844
71.285 18.91629
71.290 18.940763
71.295 18.728447
71.300 18.599281
71.305 19.267984
71.310 19.196495
71.315 19.098537
71.320 18.449986
71.325 18.881153
71.330 19.128666
71.335 20.00816
71.340 20.165554
71.345 19.743019
71.350 19.461552
71.355 19.514492
71.360 19.596584
71.365 20.067924
71.370 19.586338
71.375 19.101458
71.380 19.004887
71.385 19.427921
71.390 19.37055
71.395 19.043961
71.400 18.997787
71.405 18.851625
71.410 19.296431
71.415 19.352867
71.420 19.141109
71.425 19.558451
71.430 19.296188
71.435 18.742405
71.440 18.497828
71.445 18.577093
71.450 19.275146
71.455 19.706409
71.460 19.773008
71.465 19.763704
71.470 19.834873
71.475 19.922049
71.480 20.063293
71.485 19.435341
71.490 18.364208
71.495 17.906071
71.500 17.464287
71.505 17.513439
71.510 17.522417
71.515 16.699968
71.520 16.697048
71.525 17.265291
71.530 17.411249
71.535 17.843864
71.540 17.450974
71.545 17.670639
71.550 18.412086
71.555 18.525684
71.560 18.962166
71.565 19.24395
71.570 18.849573
71.575 18.895721
71.580 18.235128
71.585 17.905691
71.590 18.206593
71.595 18.001774
71.600 18.246515
71.605 18.751808
71.610 19.146532
71.615 20.225012
71.620 20.014616
71.625 19.297714
71.630 19.057802
71.635 19.159515
71.640 19.596941
71.645 18.444422
71.650 17.905928
71.655 18.417948
71.660 18.924473
71.665 19.426764
71.670 19.249115
71.675 19.125854
71.680 19.506964
71.685 19.503349
71.690 19.15147
71.695 18.60758
71.700 18.703154
71.705 18.878828
71.710 18.831299
71.715 18.767933
71.720 18.739346
71.725 18.741568
71.730 18.196379
71.735 17.622301
71.740 17.075739
71.745 17.355635
71.750 17.255369
71.755 17.026655
71.760 17.030527
71.765 17.572767
71.770 17.584011
71.775 18.521009
71.780 18.66824
71.785 19.226213
71.790 19.180431
71.795 19.226881
71.800 19.504227
71.805 19.64212
71.810 19.765314
71.815 19.750929
71.820 19.709078
71.825 19.695366
71.830 19.069666
71.835 18.659302
71.840 18.354982
71.845 18.791246
71.850 18.206974
71.855 18.227209
71.860 18.336834
71.865 18.86104
71.870 18.598646
71.875 19.352314
71.880 19.613901
71.885 19.903791
71.890 19.782125
71.895 19.765484
71.900 20.064665
71.905 19.834625
71.910 18.471291
71.915 17.851549
71.920 18.125235
71.925 18.75861
71.930 18.844872
71.935 19.287128
71.940 19.671616
71.945 20.136362
71.950 20.083773
71.955 20.074188
71.960 19.558887
71.965 19.82099
71.970 19.557863
71.975 19.158398
71.980 18.946974
71.985 18.708546
71.990 17.983192
71.995 17.967424
72.000 17.767103
72.005 18.595751
72.010 18.907951
72.015 18.837784
72.020 19.006489
72.025 19.258169
72.030 18.949383
72.035 18.889086
72.040 17.987862
72.045 17.953156
72.050 18.215101
72.055 18.495235
72.060 18.438486
72.065 17.987083
72.070 17.880043
72.075 18.234365
72.080 18.454329
72.085 18.201906
72.090 18.621801
72.095 19.362736
72.100 19.870981
72.105 19.754114
72.110 19.300451
72.115 18.481047
72.120 18.266022
72.125 18.350769
72.130 18.334375
72.135 18.086983
72.140 18.348175
72.145 18.706007
72.150 18.958122
72.155 19.293497
72.160 19.089548
72.165 18.68466
72.170 18.561045
72.175 18.489643
72.180 18.512896
72.185 19.04701
72.190 18.414782
72.195 17.820601
72.200 17.792788
72.205 18.011501
72.210 18.054123
72.215 17.851593
72.220 17.532475
72.225 18.103775
72.230 18.875944
72.235 18.845547
72.240 18.649359
72.245 19.271326
72.250 19.62282
72.255 18.535389
72.260 18.32918
72.265 17.820364
72.270 18.060158
72.275 17.706831
72.280 16.917208
72.285 17.186905
72.290 18.057159
72.295 18.628485
72.300 19.042097
72.305 18.577402
72.310 18.915941
72.315 18.921698
72.320 18.771664
72.325 18.09395
72.330 17.446598
72.335 17.204996
72.340 17.358963
72.345 17.282757
72.350 16.892256
72.355 17.577276
72.360 17.631227
72.365 17.78458
72.370 18.209204
72.375 18.225515
72.380 17.928514
72.385 18.209885
72.390 17.617476
72.395 17.605255
72.400 17.484625
72.405 17.696526
72.410 17.723646
72.415 18.048935
72.420 17.904167
72.425 17.665525
72.430 17.695576
72.435 17.644852
72.440 17.287361
72.445 17.946085
72.450 18.252131
72.455 18.360088
72.460 17.900898
72.465 17.767731
72.470 17.699785
72.475 17.512594
72.480 16.699306
72.485 17.088921
72.490 17.458523
72.495 17.745853
72.500 17.789209
72.505 17.967463
72.510 17.982098
72.515 18.189186
72.520 18.298445
72.525 18.823921
72.530 19.345873
72.535 19.557625
72.540 19.448389
72.545 19.225206
72.550 19.794062
72.555 18.918922
72.560 18.379324
72.565 18.364443
72.570 17.908319
72.575 18.460812
72.580 18.738071
72.585 18.011129
72.590 18.91997
72.595 19.045029
72.600 19.234606
72.605 19.553431
72.610 18.777449
72.615 18.531073
72.620 18.307409
72.625 18.027931
72.630 18.078686
72.635 17.987719
72.640 18.07218
72.645 18.265903
72.650 18.197292
72.655 18.942097
72.660 19.159582
72.665 18.614101
72.670 18.111506
72.675 17.793533
72.680 17.595169
72.685 17.238949
72.690 16.758301
72.695 16.711439
72.700 16.852808
72.705 16.692806
72.710 16.290731
72.715 16.640102
72.720 16.590767
72.725 16.410471
72.730 16.619236
72.735 16.6061
72.740 17.469051
72.745 17.954622
72.750 17.93354
72.755 17.587828
72.760 16.981306
72.765 16.910864
72.770 17.220867
72.775 16.781157
72.780 16.623701
72.785 16.322567
72.790 16.826708
72.795 17.716991
72.800 17.665205
72.805 16.713005
72.810 16.573938
72.815 16.693262
72.820 16.832415
72.825 16.231207
72.830 15.055182
72.835 15.405359
72.840 15.541464
72.845 15.485468
72.850 15.855906
72.855 15.905093
72.860 16.006243
72.865 16.773153
72.870 17.433218
72.875 17.450644
72.880 17.455229
72.885 17.034225
72.890 16.974007
72.895 17.026331
72.900 16.690599
72.905 16.483562
72.910 16.696795
72.915 16.952803
72.920 17.119864
72.925 17.391552
72.930 17.117216
72.935 17.008976
72.940 17.041704
72.945 17.324131
72.950 17.702667
72.955 17.949291
72.960 18.100885
72.965 17.839516
72.970 17.574656
72.975 17.529131
72.980 16.969646
72.985 16.730129
72.990 16.258682
72.995 16.59379
73.000 16.523781
