!@!!GADDS PLOTSO FILE: Chi integration type
!@!!Title/SampleName: map-17e
!@!!Comment: ?
!@!!User: Bruker Instrument Administrator
!@!!Site: University of Illinois Chicago
!@!!Frame: map-17e_01_000.gfrm
!@!!Wavelengths    1.54184   1.54056   1.54439
!@!!Frame angles: 2Theta: 63.000 Omega: 50.000 Phi: 0.000 Chi: 90.000
!@!!Integration range: 2Theta: 53.000 to 73.000  Gamma: -105.000 to -75.000
!@!!Integration method: bin normalized
!@!N
!@!SS
!@!M
!@!L 0.0 0.0 0.0 0.0
!@!XDegrees
!@!YCounts
53.000 8.367485
53.005 8.35758
53.010 8.24248
53.015 8.307091
53.020 8.013712
53.025 7.868266
53.030 7.938606
53.035 7.612069
53.040 7.794077
53.045 7.737001
53.050 7.812531
53.055 7.914671
53.060 8.024836
53.065 8.392094
53.070 8.897726
53.075 8.822818
53.080 8.834608
53.085 8.680757
53.090 8.846247
53.095 8.892929
53.100 8.296498
53.105 8.06104
53.110 8.397007
53.115 8.336037
53.120 8.733578
53.125 8.732215
53.130 8.470717
53.135 8.446014
53.140 8.407507
53.145 8.468586
53.150 8.444571
53.155 8.540814
53.160 8.577154
53.165 9.170908
53.170 9.374063
53.175 9.437541
53.180 9.199808
53.185 9.349755
53.190 9.397839
53.195 8.919623
53.200 8.619537
53.205 8.7271
53.210 9.079206
53.215 9.200545
53.220 9.099758
53.225 8.670077
53.230 9.031692
53.235 9.068942
53.240 8.401387
53.245 7.951246
53.250 7.903981
53.255 8.672758
53.260 8.777611
53.265 8.11107
53.270 8.293005
53.275 8.107515
53.280 8.101286
53.285 8.034855
53.290 7.626721
53.295 7.670301
53.300 7.770781
53.305 7.814802
53.310 8.563329
53.315 8.712879
53.320 8.635507
53.325 8.881029
53.330 8.881197
53.335 8.915214
53.340 9.130949
53.345 8.514029
53.350 8.568615
53.355 8.378104
53.360 8.428823
53.365 8.738926
53.370 8.863767
53.375 8.567973
53.380 8.814852
53.385 8.350478
53.390 8.499422
53.395 8.625522
53.400 8.749827
53.405 8.624057
53.410 8.786592
53.415 9.112973
53.420 9.287571
53.425 8.783282
53.430 8.324347
53.435 8.079547
53.440 7.814271
53.445 7.680722
53.450 7.583194
53.455 7.734161
53.460 8.235054
53.465 8.450538
53.470 8.346498
53.475 8.726525
53.480 8.691222
53.485 8.525221
53.490 8.723507
53.495 8.295325
53.500 8.423074
53.505 8.937829
53.510 8.867702
53.515 8.924376
53.520 8.770403
53.525 8.989114
53.530 9.44609
53.535 9.542101
53.540 9.34208
53.545 9.021127
53.550 9.22878
53.555 9.535399
53.560 9.763355
53.565 9.82339
53.570 9.725266
53.575 9.90048
53.580 9.979456
53.585 9.48926
53.590 8.834688
53.595 8.672747
53.600 8.625527
53.605 8.644995
53.610 9.029952
53.615 9.15239
53.620 9.493143
53.625 9.321256
53.630 9.174906
53.635 9.150644
53.640 9.303919
53.645 8.824575
53.650 8.803069
53.655 8.449818
53.660 8.661598
53.665 9.177828
53.670 9.155336
53.675 8.647401
53.680 8.677661
53.685 8.708962
53.690 8.844321
53.695 9.277089
53.700 8.69895
53.705 9.197688
53.710 9.499543
53.715 9.332667
53.720 9.696388
53.725 10.325103
53.730 9.930083
53.735 9.773024
53.740 9.247121
53.745 9.32479
53.750 9.481742
53.755 9.109776
53.760 8.547988
53.765 8.406027
53.770 8.580021
53.775 8.906555
53.780 9.014503
53.785 9.134352
53.790 9.11798
53.795 9.347807
53.800 9.19059
53.805 9.406664
53.810 9.726664
53.815 9.386361
53.820 9.048026
53.825 9.159686
53.830 9.127609
53.835 9.427688
53.840 8.708318
53.845 8.360896
53.850 8.947376
53.855 8.845951
53.860 8.810781
53.865 8.853476
53.870 8.787259
53.875 8.723856
53.880 9.032398
53.885 8.961206
53.890 9.022934
53.895 8.994847
53.900 8.42006
53.905 8.736852
53.910 8.987087
53.915 8.628338
53.920 8.71208
53.925 9.290504
53.930 9.862934
53.935 9.814075
53.940 9.194868
53.945 9.281556
53.950 9.429864
53.955 9.424036
53.960 8.808307
53.965 8.692625
53.970 9.299829
53.975 9.546035
53.980 9.282478
53.985 9.019813
53.990 8.877807
53.995 9.036994
54.000 9.094845
54.005 9.045081
54.010 9.123359
54.015 9.580589
54.020 9.686912
54.025 9.914581
54.030 9.923476
54.035 9.577466
54.040 9.400343
54.045 9.236461
54.050 8.98081
54.055 8.800591
54.060 8.376307
54.065 8.409684
54.070 8.678333
54.075 8.610974
54.080 8.852133
54.085 9.10962
54.090 9.525524
54.095 9.521698
54.100 9.545139
54.105 9.223857
54.110 9.082012
54.115 8.657197
54.120 8.233121
54.125 8.023765
54.130 7.947808
54.135 8.309137
54.140 8.721448
54.145 9.059776
54.150 9.363214
54.155 9.572745
54.160 9.807269
54.165 9.687959
54.170 9.269548
54.175 8.986938
54.180 8.963884
54.185 8.896064
54.190 9.128803
54.195 9.353883
54.200 9.726853
54.205 9.863243
54.210 9.9524
54.215 9.615691
54.220 9.623643
54.225 9.447285
54.230 9.540789
54.235 9.442639
54.240 9.423285
54.245 9.536872
54.250 9.872184
54.255 10.11367
54.260 10.280628
54.265 10.21849
54.270 10.69125
54.275 10.56894
54.280 10.231163
54.285 9.85021
54.290 9.673127
54.295 9.388666
54.300 8.758988
54.305 8.558416
54.310 9.189423
54.315 9.366108
54.320 9.718973
54.325 9.482675
54.330 9.564467
54.335 9.847495
54.340 9.290499
54.345 8.745967
54.350 9.128781
54.355 9.273616
54.360 9.487371
54.365 9.268123
54.370 9.073655
54.375 9.333376
54.380 9.063478
54.385 8.561893
54.390 8.037916
54.395 7.828738
54.400 7.83634
54.405 7.645523
54.410 7.864989
54.415 7.944758
54.420 7.945143
54.425 7.920874
54.430 7.853896
54.435 8.132118
54.440 8.277473
54.445 8.544588
54.450 8.945233
54.455 9.4701
54.460 9.87633
54.465 9.940198
54.470 9.939902
54.475 10.143996
54.480 10.171202
54.485 10.104424
54.490 9.92914
54.495 9.756315
54.500 9.921423
54.505 10.319826
54.510 9.92795
54.515 9.362676
54.520 8.900556
54.525 8.629413
54.530 8.583722
54.535 8.534576
54.540 8.203759
54.545 8.377834
54.550 8.55216
54.555 9.053412
54.560 9.673921
54.565 9.833809
54.570 9.772992
54.575 9.934697
54.580 9.964526
54.585 10.146399
54.590 9.674055
54.595 9.073412
54.600 8.880132
54.605 8.7974
54.610 8.554989
54.615 8.561189
54.620 8.658177
54.625 8.882936
54.630 9.136645
54.635 9.593824
54.640 9.962322
54.645 10.042423
54.650 10.286658
54.655 9.711107
54.660 9.483361
54.665 9.166053
54.670 8.890688
54.675 8.854135
54.680 8.785995
54.685 8.593455
54.690 9.440282
54.695 9.664121
54.700 9.62606
54.705 9.303432
54.710 9.067424
54.715 9.135919
54.720 9.230128
54.725 8.940155
54.730 9.229053
54.735 9.273582
54.740 9.855846
54.745 10.309942
54.750 10.515998
54.755 10.387288
54.760 9.900363
54.765 9.723633
54.770 9.757812
54.775 9.965601
54.780 9.498441
54.785 9.415964
54.790 9.46768
54.795 9.925922
54.800 10.066523
54.805 9.827826
54.810 9.480828
54.815 10.028794
54.820 9.685184
54.825 9.171321
54.830 8.755929
54.835 8.913648
54.840 8.82701
54.845 8.660419
54.850 8.354988
54.855 8.39946
54.860 8.665765
54.865 8.96113
54.870 8.913032
54.875 9.018356
54.880 9.023684
54.885 9.102223
54.890 9.737084
54.895 10.127188
54.900 10.39724
54.905 10.38524
54.910 10.591555
54.915 10.851758
54.920 11.189312
54.925 11.407753
54.930 11.056278
54.935 10.56855
54.940 10.613837
54.945 10.444972
54.950 10.415401
54.955 9.968262
54.960 9.691407
54.965 10.430842
54.970 10.48773
54.975 10.474433
54.980 10.224291
54.985 10.292642
54.990 10.311166
54.995 9.74825
55.000 9.372676
55.005 9.357876
55.010 9.850783
55.015 9.952669
55.020 10.083214
55.025 10.556211
55.030 10.618503
55.035 10.572797
55.040 10.265759
55.045 9.842887
55.050 9.544888
55.055 9.344445
55.060 9.513602
55.065 9.259361
55.070 9.227501
55.075 8.933331
55.080 9.04882
55.085 9.536061
55.090 9.153453
55.095 8.968922
55.100 9.143389
55.105 9.540656
55.110 9.987139
55.115 10.117455
55.120 10.896895
55.125 11.543158
55.130 11.870299
55.135 11.778875
55.140 11.540664
55.145 11.426142
55.150 10.517452
55.155 9.830637
55.160 9.428589
55.165 9.657214
55.170 9.790034
55.175 9.322222
55.180 8.922507
55.185 9.171776
55.190 9.232519
55.195 9.102794
55.200 8.585546
55.205 8.973418
55.210 9.389292
55.215 9.866506
55.220 10.258355
55.225 9.710885
55.230 9.561376
55.235 9.789179
55.240 9.470202
55.245 9.492514
55.250 9.33237
55.255 8.527853
55.260 8.884215
55.265 9.154764
55.270 8.997711
55.275 9.059219
55.280 9.005555
55.285 9.055803
55.290 9.339705
55.295 9.03784
55.300 8.904943
55.305 9.064763
55.310 9.084651
55.315 8.936016
55.320 9.013319
55.325 9.112662
55.330 9.565841
55.335 9.407825
55.340 9.574418
55.345 9.621971
55.350 9.814984
55.355 9.982549
55.360 10.165689
55.365 10.719374
55.370 10.811077
55.375 10.598999
55.380 10.862658
55.385 10.638141
55.390 10.703357
55.395 10.678942
55.400 10.225637
55.405 10.33246
55.410 10.290169
55.415 10.198104
55.420 10.709876
55.425 10.654713
55.430 10.816883
55.435 11.21888
55.440 11.313518
55.445 11.565291
55.450 11.25103
55.455 10.93084
55.460 10.877291
55.465 10.451796
55.470 10.315598
55.475 9.875248
55.480 9.993718
55.485 10.354218
55.490 10.127541
55.495 10.833136
55.500 10.533435
55.505 10.359254
55.510 10.14505
55.515 9.652348
55.520 9.907439
55.525 9.580254
55.530 8.824383
55.535 9.064675
55.540 8.919598
55.545 9.5599
55.550 9.699041
55.555 9.393799
55.560 9.734716
55.565 9.651341
55.570 9.718349
55.575 10.096416
55.580 10.198452
55.585 10.364933
55.590 10.621545
55.595 10.963501
55.600 11.277987
55.605 11.032054
55.610 11.215741
55.615 10.632236
55.620 10.576201
55.625 10.131266
55.630 10.03851
55.635 9.655054
55.640 9.549221
55.645 9.700552
55.650 10.139764
55.655 10.583529
55.660 10.639387
55.665 10.480101
55.670 10.558871
55.675 10.438586
55.680 10.213796
55.685 10.074134
55.690 10.238003
55.695 10.180958
55.700 10.006787
55.705 10.265653
55.710 10.322062
55.715 10.65531
55.720 10.656421
55.725 10.334397
55.730 10.521056
55.735 10.421759
55.740 10.322715
55.745 9.938016
55.750 9.673693
55.755 9.359333
55.760 9.394737
55.765 9.277996
55.770 9.405382
55.775 9.781284
55.780 10.009283
55.785 9.630454
55.790 9.84434
55.795 10.082847
55.800 10.314814
55.805 10.224663
55.810 9.774388
55.815 10.463584
55.820 10.851099
55.825 10.914286
55.830 10.394113
55.835 10.627338
55.840 11.538852
55.845 11.937349
55.850 11.765675
55.855 11.437693
55.860 11.083676
55.865 11.147559
55.870 10.714582
55.875 10.145235
55.880 10.180624
55.885 10.278773
55.890 10.527366
55.895 10.941208
55.900 10.928617
55.905 10.903762
55.910 10.504644
55.915 10.333898
55.920 9.902421
55.925 9.543958
55.930 9.401859
55.935 9.730073
55.940 10.05898
55.945 10.416465
55.950 10.210046
55.955 10.567568
55.960 10.63838
55.965 10.466357
55.970 10.18592
55.975 10.233974
55.980 10.73805
55.985 10.838864
55.990 11.236344
55.995 11.59932
56.000 11.732833
56.005 11.681937
56.010 10.824811
56.015 10.106004
56.020 10.026934
56.025 9.640127
56.030 9.777481
56.035 9.94232
56.040 10.522657
56.045 11.296292
56.050 11.545723
56.055 11.026269
56.060 10.58997
56.065 10.612391
56.070 10.468185
56.075 10.140688
56.080 9.848833
56.085 10.383438
56.090 10.809104
56.095 11.246688
56.100 10.760871
56.105 10.467248
56.110 10.699544
56.115 10.853054
56.120 10.57307
56.125 10.291404
56.130 10.302081
56.135 10.653254
56.140 11.193469
56.145 11.003235
56.150 10.787639
56.155 10.670526
56.160 11.105981
56.165 11.143953
56.170 10.728063
56.175 9.970513
56.180 9.444495
56.185 9.611382
56.190 9.940001
56.195 9.717689
56.200 9.351062
56.205 9.60892
56.210 9.952415
56.215 10.014988
56.220 9.694192
56.225 9.363932
56.230 9.584381
56.235 10.118005
56.240 10.491378
56.245 11.045821
56.250 11.2543
56.255 11.278196
56.260 11.179676
56.265 10.523257
56.270 9.895185
56.275 9.476251
56.280 9.474443
56.285 9.531342
56.290 9.578168
56.295 9.876539
56.300 10.026487
56.305 10.208011
56.310 10.068334
56.315 9.8744
56.320 10.344422
56.325 10.897846
56.330 11.186765
56.335 11.802046
56.340 11.674984
56.345 11.409619
56.350 11.262162
56.355 11.074688
56.360 10.494081
56.365 10.331157
56.370 10.106488
56.375 10.571314
56.380 10.787845
56.385 10.886222
56.390 11.221994
56.395 11.649418
56.400 11.495495
56.405 11.58631
56.410 11.709232
56.415 11.555676
56.420 11.44421
56.425 10.969917
56.430 11.110959
56.435 10.992028
56.440 10.789115
56.445 11.027465
56.450 11.414606
56.455 11.610678
56.460 11.535101
56.465 11.653047
56.470 11.742668
56.475 11.586451
56.480 11.38109
56.485 11.612386
56.490 11.843152
56.495 12.068241
56.500 11.747957
56.505 11.789431
56.510 12.083207
56.515 11.888844
56.520 11.554453
56.525 11.195222
56.530 10.878502
56.535 10.906938
56.540 10.904296
56.545 11.090508
56.550 11.115599
56.555 11.378006
56.560 11.337632
56.565 11.489985
56.570 11.831503
56.575 11.724981
56.580 11.540452
56.585 11.408043
56.590 11.095996
56.595 11.322445
56.600 11.058025
56.605 10.696988
56.610 11.031125
56.615 11.18119
56.620 11.434773
56.625 11.39879
56.630 11.025804
56.635 10.87795
56.640 10.994289
56.645 11.148742
56.650 10.920789
56.655 10.937031
56.660 10.992952
56.665 11.466132
56.670 11.988379
56.675 11.832979
56.680 11.650314
56.685 11.654079
56.690 11.922897
56.695 12.063363
56.700 11.962586
56.705 11.674499
56.710 11.389133
56.715 11.268399
56.720 11.446816
56.725 11.340206
56.730 11.243426
56.735 11.184443
56.740 11.272814
56.745 11.238087
56.750 11.651432
56.755 12.248263
56.760 12.766823
56.765 12.844558
56.770 12.911957
56.775 12.628791
56.780 12.709677
56.785 12.132833
56.790 11.318128
56.795 10.602673
56.800 11.443397
56.805 12.230424
56.810 12.671371
56.815 12.301345
56.820 12.299571
56.825 12.562267
56.830 12.387987
56.835 10.993404
56.840 10.30397
56.845 10.506557
56.850 10.508218
56.855 10.345543
56.860 9.961339
56.865 10.43395
56.870 10.838758
56.875 10.751802
56.880 10.349561
56.885 10.408714
56.890 10.387395
56.895 10.627584
56.900 10.459026
56.905 10.725319
56.910 11.176472
56.915 11.577215
56.920 11.404319
56.925 11.418859
56.930 11.368917
56.935 11.26831
56.940 10.858484
56.945 10.169023
56.950 10.445831
56.955 11.418768
56.960 11.980227
56.965 12.057693
56.970 12.09174
56.975 12.757842
56.980 13.136233
56.985 12.779189
56.990 12.216671
56.995 12.084163
57.000 12.227577
57.005 11.977772
57.010 11.51853
57.015 11.35774
57.020 11.19456
57.025 10.987308
57.030 10.574305
57.035 10.399101
57.040 10.180245
57.045 10.077471
57.050 9.998418
57.055 10.074871
57.060 10.077584
57.065 10.270574
57.070 10.704054
57.075 10.89217
57.080 11.035851
57.085 10.880027
57.090 10.703708
57.095 10.629012
57.100 10.733677
57.105 9.998248
57.110 9.757892
57.115 9.703961
57.120 9.70595
57.125 10.563217
57.130 11.087873
57.135 11.582243
57.140 12.160385
57.145 12.291029
57.150 12.273652
57.155 12.317056
57.160 11.656403
57.165 11.26128
57.170 11.187841
57.175 11.543049
57.180 11.774345
57.185 11.739738
57.190 11.717088
57.195 11.558473
57.200 11.241668
57.205 10.60171
57.210 10.259165
57.215 10.540476
57.220 10.650877
57.225 10.668315
57.230 11.209589
57.235 11.662486
57.240 12.201981
57.245 12.241199
57.250 12.031549
57.255 12.474278
57.260 12.504816
57.265 12.093969
57.270 12.012188
57.275 11.666132
57.280 11.362075
57.285 11.140986
57.290 10.499385
57.295 10.341464
57.300 10.907578
57.305 11.126518
57.310 10.848436
57.315 10.824565
57.320 11.379809
57.325 12.124439
57.330 12.289519
57.335 11.831281
57.340 11.776552
57.345 11.835112
57.350 12.112511
57.355 12.061635
57.360 11.827644
57.365 11.987728
57.370 12.009069
57.375 11.813241
57.380 11.745876
57.385 11.982297
57.390 12.242905
57.395 12.321366
57.400 12.045622
57.405 11.957946
57.410 11.813628
57.415 11.710939
57.420 11.035339
57.425 10.379905
57.430 9.767479
57.435 9.406872
57.440 9.249646
57.445 9.361063
57.450 9.438528
57.455 9.82881
57.460 10.188267
57.465 10.474031
57.470 11.118203
57.475 11.574487
57.480 12.018871
57.485 12.425956
57.490 12.613418
57.495 12.493356
57.500 12.305876
57.505 11.933664
57.510 11.511842
57.515 11.071525
57.520 10.844321
57.525 11.012687
57.530 10.980989
57.535 11.545164
57.540 11.767352
57.545 11.6863
57.550 11.784165
57.555 11.789632
57.560 11.968333
57.565 12.231652
57.570 12.0692
57.575 12.340747
57.580 12.629744
57.585 13.007814
57.590 13.08083
57.595 12.538992
57.600 12.291467
57.605 12.139383
57.610 11.977566
57.615 12.060096
57.620 12.340834
57.625 12.312299
57.630 12.099119
57.635 12.078513
57.640 12.182415
57.645 12.314684
57.650 11.792962
57.655 11.268406
57.660 11.064471
57.665 11.049008
57.670 11.003065
57.675 10.673981
57.680 10.374665
57.685 10.238337
57.690 10.121039
57.695 9.733062
57.700 9.825588
57.705 9.870617
57.710 9.861798
57.715 10.170408
57.720 10.538079
57.725 11.014975
57.730 11.418549
57.735 11.876032
57.740 11.900655
57.745 12.21772
57.750 12.062284
57.755 11.733136
57.760 11.609643
57.765 11.286427
57.770 11.067104
57.775 11.029836
57.780 11.043168
57.785 11.383231
57.790 11.559495
57.795 11.806149
57.800 11.931196
57.805 11.838113
57.810 11.978198
57.815 11.759991
57.820 11.61613
57.825 11.614536
57.830 11.387922
57.835 11.736088
57.840 11.739379
57.845 12.018028
57.850 11.973145
57.855 12.021085
57.860 12.3259
57.865 12.147952
57.870 11.853089
57.875 12.064452
57.880 11.660023
57.885 11.937869
57.890 12.147143
57.895 11.614651
57.900 11.632653
57.905 11.85535
57.910 11.771802
57.915 11.995821
57.920 11.591516
57.925 11.378133
57.930 12.008354
57.935 12.237134
57.940 12.255505
57.945 12.405622
57.950 12.092525
57.955 12.257378
57.960 12.479724
57.965 12.190394
57.970 11.764222
57.975 11.51591
57.980 11.810346
57.985 12.13553
57.990 11.874646
57.995 11.410373
58.000 11.477131
58.005 11.784204
58.010 11.948135
58.015 11.31194
58.020 11.170429
58.025 11.215544
58.030 11.431165
58.035 12.002546
58.040 12.044454
58.045 12.229199
58.050 12.497631
58.055 12.199507
58.060 12.153095
58.065 12.495969
58.070 12.638877
58.075 13.958647
58.080 13.894806
58.085 13.76582
58.090 14.3586
58.095 14.793077
58.100 14.437455
58.105 14.436005
58.110 13.107996
58.115 13.128988
58.120 13.185423
58.125 13.125574
58.130 12.73887
58.135 12.383484
58.140 12.020006
58.145 12.561702
58.150 13.056439
58.155 13.590163
58.160 13.51928
58.165 13.729923
58.170 13.800422
58.175 13.701667
58.180 13.32291
58.185 12.717322
58.190 12.366738
58.195 12.213557
58.200 12.146334
58.205 12.138154
58.210 12.562533
58.215 12.585338
58.220 12.453834
58.225 12.409022
58.230 12.643967
58.235 12.993672
58.240 13.197033
58.245 13.036479
58.250 13.035761
58.255 12.910963
58.260 13.329738
58.265 13.419797
58.270 13.108269
58.275 12.383255
58.280 12.453989
58.285 12.937278
58.290 13.086549
58.295 13.12632
58.300 13.316567
58.305 13.82455
58.310 14.293196
58.315 13.95781
58.320 13.865752
58.325 14.129078
58.330 13.530479
58.335 13.367039
58.340 13.555381
58.345 13.454167
58.350 13.48004
58.355 13.396891
58.360 13.407798
58.365 13.749981
58.370 13.64375
58.375 13.808411
58.380 13.923848
58.385 13.524778
58.390 13.838672
58.395 14.176403
58.400 13.807388
58.405 13.379288
58.410 13.411169
58.415 13.458266
58.420 13.500985
58.425 13.078717
58.430 13.182641
58.435 14.105069
58.440 14.445061
58.445 14.398074
58.450 14.783225
58.455 15.280362
58.460 15.695908
58.465 15.519351
58.470 14.974861
58.475 14.623966
58.480 14.198424
58.485 13.743227
58.490 13.203897
58.495 12.691422
58.500 12.687372
58.505 12.665541
58.510 12.676753
58.515 12.846097
58.520 13.069115
58.525 13.756922
58.530 13.561248
58.535 13.186982
58.540 13.115205
58.545 13.146163
58.550 13.247962
58.555 13.657267
58.560 14.237502
58.565 14.77362
58.570 15.114832
58.575 15.517177
58.580 15.643004
58.585 15.760005
58.590 15.168956
58.595 14.582254
58.600 14.647582
58.605 14.983515
58.610 14.999887
58.615 15.392671
58.620 15.275367
58.625 15.774633
58.630 16.100983
58.635 16.073112
58.640 15.846677
58.645 15.867352
58.650 15.741847
58.655 16.263046
58.660 15.676408
58.665 15.55198
58.670 15.44519
58.675 15.280678
58.680 15.238508
58.685 14.718571
58.690 14.400493
58.695 14.585557
58.700 14.575514
58.705 14.723656
58.710 14.590609
58.715 14.757586
58.720 15.361418
58.725 15.63154
58.730 16.098145
58.735 16.592709
58.740 16.304127
58.745 16.615585
58.750 16.428617
58.755 16.169775
58.760 15.972353
58.765 15.13674
58.770 14.455849
58.775 14.635381
58.780 14.218969
58.785 13.779857
58.790 13.673081
58.795 13.671849
58.800 14.197081
58.805 14.75087
58.810 14.943671
58.815 14.813208
58.820 15.066959
58.825 14.993664
58.830 14.872713
58.835 14.265459
58.840 14.250112
58.845 14.082672
58.850 14.158985
58.855 14.28105
58.860 14.899599
58.865 15.4879
58.870 15.533258
58.875 15.672341
58.880 16.039278
58.885 16.488855
58.890 16.828323
58.895 15.983866
58.900 16.045908
58.905 16.227404
58.910 15.758241
58.915 15.406184
58.920 15.554471
58.925 14.978619
58.930 15.17498
58.935 14.725133
58.940 14.655053
58.945 15.360652
58.950 15.494311
58.955 15.311421
58.960 15.545183
58.965 15.625443
58.970 15.805671
58.975 15.711454
58.980 15.018971
58.985 14.502292
58.990 14.104846
58.995 13.859224
59.000 13.572133
59.005 14.254715
59.010 14.829084
59.015 14.645316
59.020 15.015197
59.025 15.125906
59.030 14.649376
59.035 14.41514
59.040 13.660787
59.045 13.242586
59.050 13.234907
59.055 12.598861
59.060 12.496425
59.065 12.859955
59.070 12.896502
59.075 12.895863
59.080 13.362482
59.085 13.516908
59.090 13.867399
59.095 14.56545
59.100 14.697189
59.105 14.531602
59.110 14.859256
59.115 14.247458
59.120 14.105141
59.125 14.11476
59.130 13.924199
59.135 13.968273
59.140 13.901534
59.145 13.591847
59.150 13.858615
59.155 13.954077
59.160 14.143655
59.165 14.196825
59.170 14.522141
59.175 14.246442
59.180 14.168595
59.185 13.955161
59.190 13.96389
59.195 13.517447
59.200 13.372392
59.205 13.620913
59.210 13.973417
59.215 13.765815
59.220 13.845473
59.225 13.964849
59.230 14.3932
59.235 14.452525
59.240 14.345277
59.245 14.663088
59.250 14.693388
59.255 14.827653
59.260 14.859525
59.265 14.514898
59.270 14.644788
59.275 14.323629
59.280 13.966393
59.285 14.085682
59.290 14.036757
59.295 13.609792
59.300 13.44384
59.305 12.700177
59.310 12.566582
59.315 12.569704
59.320 12.506601
59.325 12.415947
59.330 12.543836
59.335 12.493286
59.340 12.362854
59.345 11.964375
59.350 11.867784
59.355 12.112906
59.360 12.013073
59.365 11.711416
59.370 11.883939
59.375 12.584195
59.380 12.621498
59.385 13.221972
59.390 13.944532
59.395 13.900369
59.400 13.990241
59.405 13.952141
59.410 13.678718
59.415 14.235371
59.420 13.444622
59.425 12.721842
59.430 12.871206
59.435 12.906922
59.440 12.52319
59.445 12.356091
59.450 12.007094
59.455 11.94936
59.460 11.774721
59.465 11.881026
59.470 11.826282
59.475 12.144126
59.480 12.268553
59.485 12.913982
59.490 12.90859
59.495 12.352927
59.500 12.185854
59.505 11.956275
59.510 11.741741
59.515 11.531635
59.520 11.38059
59.525 11.600262
59.530 11.59984
59.535 11.433043
59.540 11.507135
59.545 11.652206
59.550 11.334585
59.555 11.390574
59.560 11.535594
59.565 12.215613
59.570 12.456864
59.575 13.002989
59.580 13.363557
59.585 13.61118
59.590 13.644982
59.595 13.976698
59.600 14.33416
59.605 14.320718
59.610 14.045682
59.615 13.716403
59.620 13.731598
59.625 13.726594
59.630 13.432763
59.635 13.384784
59.640 13.566083
59.645 13.324138
59.650 13.38555
59.655 13.35516
59.660 13.300961
59.665 12.951331
59.670 12.99667
59.675 12.994065
59.680 13.169696
59.685 13.022303
59.690 13.046355
59.695 12.826235
59.700 12.837223
59.705 12.49563
59.710 12.343461
59.715 12.550156
59.720 13.193716
59.725 12.920641
59.730 12.847836
59.735 12.70301
59.740 12.66849
59.745 12.698367
59.750 12.123618
59.755 11.488562
59.760 11.44393
59.765 11.914358
59.770 12.064235
59.775 12.327385
59.780 12.508963
59.785 12.422297
59.790 12.376948
59.795 12.524817
59.800 12.732932
59.805 13.253154
59.810 13.277525
59.815 13.343807
59.820 13.752907
59.825 14.185144
59.830 14.028848
59.835 13.790086
59.840 13.208174
59.845 13.206962
59.850 13.100834
59.855 13.2916
59.860 13.130243
59.865 13.349674
59.870 13.08938
59.875 12.629179
59.880 11.96939
59.885 11.811116
59.890 11.904224
59.895 12.057233
59.900 11.571767
59.905 11.966704
59.910 12.072569
59.915 12.39026
59.920 12.484422
59.925 12.400678
59.930 12.719676
59.935 12.712578
59.940 12.557302
59.945 12.88105
59.950 12.564168
59.955 12.212055
59.960 11.63755
59.965 11.039494
59.970 10.949257
59.975 10.946361
59.980 11.249808
59.985 11.867754
59.990 12.18442
59.995 12.666709
60.000 12.794475
60.005 12.829638
60.010 13.407543
60.015 13.298431
60.020 12.950589
60.025 12.918844
60.030 12.947972
60.035 12.828901
60.040 12.851744
60.045 12.417314
60.050 12.236108
60.055 12.070238
60.060 12.151229
60.065 11.833651
60.070 12.048255
60.075 11.644569
60.080 11.052897
60.085 11.328647
60.090 11.401689
60.095 11.170614
60.100 11.114599
60.105 11.006939
60.110 11.2571
60.115 11.478635
60.120 11.732664
60.125 11.80483
60.130 12.01292
60.135 12.231214
60.140 12.324991
60.145 12.386491
60.150 12.743762
60.155 12.04775
60.160 12.026917
60.165 11.766906
60.170 11.524057
60.175 11.547481
60.180 11.615498
60.185 11.505134
60.190 12.097823
60.195 12.200624
60.200 12.095164
60.205 12.264162
60.210 12.257805
60.215 11.960297
60.220 12.072698
60.225 12.226826
60.230 12.091333
60.235 12.009296
60.240 12.021415
60.245 12.312739
60.250 12.527146
60.255 12.56914
60.260 12.424644
60.265 12.318217
60.270 12.332393
60.275 12.365031
60.280 12.290706
60.285 12.361326
60.290 11.852425
60.295 11.492564
60.300 11.908058
60.305 12.182205
60.310 11.76795
60.315 11.693713
60.320 11.794999
60.325 11.332829
60.330 11.321132
60.335 11.542915
60.340 11.173738
60.345 11.407769
60.350 11.532612
60.355 11.537087
60.360 12.228096
60.365 12.046474
60.370 11.961216
60.375 12.26187
60.380 12.252711
60.385 12.208154
60.390 12.299883
60.395 12.672245
60.400 13.302109
60.405 13.271329
60.410 12.931548
60.415 12.952856
60.420 13.031199
60.425 13.152343
60.430 13.218504
60.435 12.946105
60.440 13.001256
60.445 13.263168
60.450 13.324755
60.455 13.147698
60.460 13.014567
60.465 12.768083
60.470 12.616725
60.475 12.502566
60.480 12.539942
60.485 12.40411
60.490 12.51425
60.495 12.666397
60.500 12.452923
60.505 12.203086
60.510 12.1082
60.515 12.052167
60.520 12.172309
60.525 12.269086
60.530 12.044036
60.535 12.189501
60.540 12.472443
60.545 12.389329
60.550 12.535805
60.555 12.796807
60.560 12.365225
60.565 12.045468
60.570 12.007946
60.575 12.069358
60.580 12.139
60.585 12.073488
60.590 11.944489
60.595 12.560018
60.600 12.794119
60.605 13.216472
60.610 13.260541
60.615 13.611573
60.620 13.826838
60.625 14.027126
60.630 13.630614
60.635 13.452495
60.640 13.170233
60.645 12.896787
60.650 12.561975
60.655 12.466903
60.660 12.253969
60.665 12.227834
60.670 12.210544
60.675 11.868747
60.680 12.061131
60.685 12.362977
60.690 12.424734
60.695 12.277151
60.700 12.140237
60.705 11.901472
60.710 11.623661
60.715 12.093924
60.720 11.956199
60.725 11.603524
60.730 11.404661
60.735 11.896456
60.740 12.422698
60.745 12.407539
60.750 11.743317
60.755 11.798759
60.760 12.075417
60.765 12.663631
60.770 12.173454
60.775 11.75234
60.780 11.670045
60.785 11.728196
60.790 11.296512
60.795 10.783638
60.800 10.592503
60.805 11.080435
60.810 11.571553
60.815 12.276684
60.820 12.032213
60.825 12.575359
60.830 13.004089
60.835 12.95676
60.840 12.283685
60.845 12.011765
60.850 12.228379
60.855 12.7698
60.860 12.715219
60.865 12.413863
60.870 12.552579
60.875 13.00999
60.880 12.6953
60.885 12.20543
60.890 12.076054
60.895 12.001537
60.900 12.176042
60.905 12.056612
60.910 11.844483
60.915 12.404102
60.920 12.087987
60.925 12.180814
60.930 12.102779
60.935 11.990784
60.940 11.744996
60.945 11.728906
60.950 11.592104
60.955 12.354393
60.960 12.038788
60.965 12.236314
60.970 12.087807
60.975 12.049265
60.980 12.042743
60.985 11.43998
60.990 10.880858
60.995 10.543797
61.000 9.763196
61.005 9.873864
61.010 10.033119
61.015 10.573121
61.020 10.940515
61.025 10.456891
61.030 10.6999
61.035 10.765101
61.040 10.73077
61.045 10.800651
61.050 10.45499
61.055 10.707505
61.060 11.064851
61.065 10.971858
61.070 11.314152
61.075 11.055734
61.080 11.280306
61.085 11.266405
61.090 10.927687
61.095 11.00401
61.100 10.918399
61.105 10.973012
61.110 11.449345
61.115 11.688871
61.120 11.610182
61.125 11.878237
61.130 12.402897
61.135 12.881549
61.140 12.778436
61.145 12.470685
61.150 11.9509
61.155 12.192658
61.160 11.977045
61.165 11.168958
61.170 10.853524
61.175 11.204057
61.180 11.225065
61.185 11.411504
61.190 11.523253
61.195 12.363111
61.200 12.67383
61.205 12.525022
61.210 12.598514
61.215 12.777862
61.220 12.491895
61.225 12.050164
61.230 11.900735
61.235 12.222772
61.240 12.272214
61.245 11.827739
61.250 11.807317
61.255 12.121168
61.260 12.05789
61.265 11.840991
61.270 11.725569
61.275 11.621556
61.280 11.726406
61.285 11.801426
61.290 11.841749
61.295 11.823009
61.300 11.293033
61.305 11.253079
61.310 11.102584
61.315 11.010865
61.320 10.688906
61.325 10.34903
61.330 10.198154
61.335 10.314507
61.340 10.560781
61.345 10.873948
61.350 11.242023
61.355 11.426176
61.360 12.101757
61.365 12.44246
61.370 13.186208
61.375 13.091651
61.380 13.011851
61.385 12.370351
61.390 12.40129
61.395 11.777999
61.400 11.485755
61.405 11.027194
61.410 11.022314
61.415 11.372137
61.420 11.706236
61.425 11.507559
61.430 11.734235
61.435 11.449954
61.440 11.440637
61.445 11.2919
61.450 11.290508
61.455 11.576476
61.460 11.675965
61.465 11.800833
61.470 11.934293
61.475 11.813485
61.480 11.738546
61.485 11.833802
61.490 11.682605
61.495 11.954106
61.500 12.061569
61.505 12.276985
61.510 11.980769
61.515 11.745812
61.520 11.186356
61.525 11.46907
61.530 11.561842
61.535 11.509807
61.540 11.129129
61.545 11.846949
61.550 12.209661
61.555 12.177421
61.560 11.872382
61.565 11.436429
61.570 11.700972
61.575 12.077656
61.580 11.843472
61.585 12.028015
61.590 12.301971
61.595 12.637753
61.600 12.745642
61.605 12.389332
61.610 12.652596
61.615 12.596986
61.620 12.242537
61.625 11.653658
61.630 11.340386
61.635 11.314154
61.640 11.490797
61.645 11.357895
61.650 11.238885
61.655 11.373361
61.660 11.492367
61.665 11.372991
61.670 11.292915
61.675 10.947839
61.680 10.87363
61.685 10.976612
61.690 11.381864
61.695 11.591055
61.700 11.515551
61.705 11.438892
61.710 11.571844
61.715 11.707522
61.720 11.657766
61.725 11.409742
61.730 11.413872
61.735 11.827414
61.740 12.08568
61.745 12.092605
61.750 12.556605
61.755 12.821574
61.760 12.877867
61.765 12.897682
61.770 12.372656
61.775 12.262719
61.780 12.311805
61.785 11.607435
61.790 11.433337
61.795 11.797576
61.800 11.834335
61.805 11.957155
61.810 12.1193
61.815 12.626142
61.820 13.080701
61.825 13.11938
61.830 12.149259
61.835 12.190576
61.840 12.456555
61.845 12.393241
61.850 12.563305
61.855 12.362828
61.860 12.341752
61.865 12.929709
61.870 12.899347
61.875 12.729515
61.880 12.357074
61.885 12.309375
61.890 12.723429
61.895 12.950812
61.900 12.908532
61.905 13.04667
61.910 13.424933
61.915 13.601186
61.920 13.070011
61.925 12.739041
61.930 12.041058
61.935 12.107569
61.940 12.063618
61.945 11.914408
61.950 11.987487
61.955 11.723086
61.960 11.769803
61.965 12.070391
61.970 11.920197
61.975 11.820422
61.980 11.809334
61.985 11.718341
61.990 12.037247
61.995 11.613207
62.000 11.098896
62.005 11.425545
62.010 11.366426
62.015 10.803268
62.020 10.803505
62.025 10.803721
62.030 11.217675
62.035 11.671921
62.040 11.24547
62.045 11.340602
62.050 12.086945
62.055 11.922701
62.060 12.018899
62.065 12.218553
62.070 12.350011
62.075 12.470407
62.080 12.36764
62.085 12.318962
62.090 12.467564
62.095 12.017941
62.100 11.609026
62.105 11.676289
62.110 11.944213
62.115 11.704711
62.120 12.013548
62.125 12.287017
62.130 12.670802
62.135 12.874812
62.140 12.878566
62.145 13.11355
62.150 13.482005
62.155 13.409586
62.160 13.584815
62.165 13.559198
62.170 14.32591
62.175 14.348001
62.180 14.271817
62.185 14.289012
62.190 13.93947
62.195 13.835113
62.200 13.675159
62.205 12.410743
62.210 12.280581
62.215 12.161963
62.220 12.319249
62.225 12.456591
62.230 12.006039
62.235 11.955115
62.240 12.256507
62.245 12.028068
62.250 11.436899
62.255 11.10651
62.260 10.64278
62.265 10.426937
62.270 10.122159
62.275 10.129691
62.280 10.577682
62.285 11.079526
62.290 10.83578
62.295 10.95228
62.300 11.055787
62.305 11.414186
62.310 11.440323
62.315 11.537157
62.320 11.330508
62.325 11.366918
62.330 11.938148
62.335 12.073299
62.340 11.968404
62.345 12.383181
62.350 12.515789
62.355 12.57272
62.360 12.663671
62.365 12.585571
62.370 12.999299
62.375 13.02997
62.380 12.771646
62.385 12.191391
62.390 12.483783
62.395 12.562169
62.400 12.359788
62.405 12.599308
62.410 12.189135
62.415 12.371461
62.420 12.461034
62.425 12.638804
62.430 12.631195
62.435 12.541274
62.440 12.3005
62.445 12.21523
62.450 12.18438
62.455 12.199547
62.460 12.663983
62.465 13.17577
62.470 13.011576
62.475 13.257132
62.480 13.793092
62.485 13.490282
62.490 13.725063
62.495 13.146442
62.500 12.921106
62.505 13.042682
62.510 12.758365
62.515 12.643086
62.520 12.870607
62.525 12.390579
62.530 12.299809
62.535 12.390254
62.540 12.28295
62.545 12.177048
62.550 12.2822
62.555 12.465341
62.560 12.514521
62.565 12.243253
62.570 12.137282
62.575 12.235448
62.580 12.305944
62.585 12.021106
62.590 11.784945
62.595 11.704181
62.600 11.729836
62.605 11.701262
62.610 12.10953
62.615 12.174169
62.620 12.27136
62.625 12.3737
62.630 12.957383
62.635 13.324619
62.640 13.553692
62.645 13.377732
62.650 13.483417
62.655 13.87978
62.660 14.04225
62.665 13.747277
62.670 13.939217
62.675 14.147052
62.680 14.420669
62.685 14.490753
62.690 14.485713
62.695 14.125864
62.700 14.076283
62.705 13.717854
62.710 13.682691
62.715 13.626922
62.720 13.367165
62.725 13.409927
62.730 13.50364
62.735 13.728027
62.740 13.646098
62.745 13.044219
62.750 13.199833
62.755 13.789254
62.760 14.088322
62.765 13.929496
62.770 13.130128
62.775 12.778047
62.780 13.106915
62.785 12.969039
62.790 12.289639
62.795 11.312219
62.800 10.95225
62.805 11.378959
62.810 11.857318
62.815 11.696961
62.820 11.525466
62.825 11.411365
62.830 11.364175
62.835 11.626724
62.840 11.659639
62.845 11.690625
62.850 11.78077
62.855 11.762077
62.860 11.887206
62.865 12.326477
62.870 13.34123
62.875 13.673223
62.880 13.518069
62.885 13.143782
62.890 13.069613
62.895 13.458174
62.900 13.569065
62.905 12.414301
62.910 11.928456
62.915 11.998709
62.920 11.83819
62.925 11.654862
62.930 11.709292
62.935 11.658335
62.940 12.14821
62.945 12.107549
62.950 12.314821
62.955 12.623836
62.960 12.790539
62.965 12.697251
62.970 12.826224
62.975 12.824156
62.980 12.917925
62.985 13.016893
62.990 13.397169
62.995 13.008064
63.000 12.678258
63.005 12.828011
63.010 12.382006
63.015 12.330486
63.020 11.673262
63.025 10.862848
63.030 11.21979
63.035 11.369958
63.040 11.358366
63.045 11.311228
63.050 11.265368
63.055 11.754938
63.060 11.865534
63.065 11.499314
63.070 11.136539
63.075 11.012526
63.080 11.384418
63.085 11.653183
63.090 11.591742
63.095 11.955278
63.100 12.657289
63.105 13.052897
63.110 13.157885
63.115 13.166723
63.120 12.997704
63.125 12.884643
63.130 13.046517
63.135 12.762712
63.140 12.476184
63.145 11.992666
63.150 11.791338
63.155 11.682522
63.160 12.013911
63.165 11.536202
63.170 11.919108
63.175 12.014616
63.180 12.456838
63.185 12.596775
63.190 12.745442
63.195 12.670253
63.200 13.234463
63.205 12.354784
63.210 12.299273
63.215 12.461586
63.220 12.540505
63.225 12.652275
63.230 12.870073
63.235 12.842786
63.240 13.432422
63.245 13.607214
63.250 13.814185
63.255 14.180696
63.260 14.503259
63.265 14.205864
63.270 14.048945
63.275 14.233816
63.280 14.265198
63.285 14.070041
63.290 13.703148
63.295 13.291985
63.300 13.340644
63.305 13.327338
63.310 12.812115
63.315 12.534415
63.320 12.377075
63.325 12.200869
63.330 12.111109
63.335 11.916026
63.340 11.898789
63.345 12.239365
63.350 12.170249
63.355 12.16099
63.360 12.179581
63.365 12.639086
63.370 13.279405
63.375 13.021129
63.380 13.13736
63.385 13.436741
63.390 13.612087
63.395 13.646856
63.400 13.500665
63.405 13.130363
63.410 13.100794
63.415 12.723125
63.420 12.595057
63.425 12.644018
63.430 12.595339
63.435 12.414597
63.440 12.425429
63.445 12.553749
63.450 12.609553
63.455 13.105718
63.460 13.268128
63.465 13.712041
63.470 14.00746
63.475 14.312401
63.480 14.28431
63.485 14.274202
63.490 14.706842
63.495 14.495996
63.500 14.405955
63.505 13.994704
63.510 13.902091
63.515 13.984749
63.520 13.820087
63.525 12.862896
63.530 12.760889
63.535 12.650541
63.540 12.843055
63.545 13.15216
63.550 13.570381
63.555 13.672215
63.560 13.678841
63.565 13.538205
63.570 13.469212
63.575 13.539183
63.580 13.387288
63.585 13.138836
63.590 13.417234
63.595 13.428455
63.600 14.030111
63.605 14.54249
63.610 14.44771
63.615 14.560588
63.620 14.430531
63.625 14.392856
63.630 14.267962
63.635 13.799241
63.640 13.364026
63.645 13.365422
63.650 13.220866
63.655 12.889785
63.660 12.609544
63.665 12.896537
63.670 12.878567
63.675 12.794111
63.680 12.426364
63.685 12.428287
63.690 12.92441
63.695 13.109882
63.700 13.487027
63.705 13.332564
63.710 13.422394
63.715 13.578799
63.720 13.976769
63.725 14.530923
63.730 14.577225
63.735 14.530464
63.740 14.791574
63.745 15.149323
63.750 14.841983
63.755 14.003282
63.760 13.131364
63.765 12.939939
63.770 13.078176
63.775 13.057085
63.780 13.06041
63.785 13.759818
63.790 14.281349
63.795 15.038931
63.800 15.650612
63.805 15.090218
63.810 15.156328
63.815 15.162417
63.820 14.76786
63.825 14.702079
63.830 14.405811
63.835 13.710587
63.840 13.693369
63.845 13.609725
63.850 13.844746
63.855 13.965038
63.860 13.853838
63.865 14.033195
63.870 14.876862
63.875 15.179027
63.880 15.282297
63.885 15.310929
63.890 15.825377
63.895 16.58754
63.900 16.70676
63.905 15.977825
63.910 15.772413
63.915 15.422446
63.920 14.902709
63.925 14.815235
63.930 14.217064
63.935 13.936437
63.940 14.128972
63.945 14.557516
63.950 14.768487
63.955 15.029952
63.960 14.703996
63.965 14.840026
63.970 14.7616
63.975 14.827483
63.980 14.410757
63.985 15.014712
63.990 15.179789
63.995 15.442327
64.000 15.675756
64.005 16.042574
64.010 16.532732
64.015 17.378248
64.020 17.105539
64.025 16.792015
64.030 16.985529
64.035 16.802214
64.040 16.880318
64.045 16.453669
64.050 15.750811
64.055 15.41733
64.060 15.643766
64.065 15.631278
64.070 15.558992
64.075 15.40955
64.080 14.978667
64.085 15.076305
64.090 15.310335
64.095 14.696672
64.100 14.626253
64.105 14.663293
64.110 14.808541
64.115 15.448274
64.120 16.000372
64.125 16.197788
64.130 16.75128
64.135 16.897301
64.140 17.381517
64.145 17.419308
64.150 17.342791
64.155 16.736795
64.160 16.672609
64.165 16.468319
64.170 15.860447
64.175 15.278868
64.180 14.930043
64.185 14.854753
64.190 15.470649
64.195 15.742764
64.200 15.327569
64.205 15.409118
64.210 15.7932
64.215 15.758425
64.220 15.239028
64.225 15.053732
64.230 14.541121
64.235 15.197401
64.240 15.605807
64.245 15.846903
64.250 16.019581
64.255 16.507029
64.260 16.229607
64.265 16.369579
64.270 16.534487
64.275 16.436111
64.280 16.119886
64.285 16.266293
64.290 16.055206
64.295 16.1884
64.300 16.417946
64.305 15.768102
64.310 15.831856
64.315 16.235617
64.320 16.302952
64.325 16.379843
64.330 16.364706
64.335 16.854193
64.340 17.294994
64.345 17.22073
64.350 17.082388
64.355 17.168501
64.360 17.690538
64.365 17.632231
64.370 17.259054
64.375 17.096325
64.380 17.37323
64.385 16.957296
64.390 17.219397
64.395 17.178555
64.400 17.390991
64.405 17.841198
64.410 17.971647
64.415 17.673351
64.420 17.791237
64.425 17.590769
64.430 18.136805
64.435 18.490807
64.440 17.852892
64.445 17.713676
64.450 17.683529
64.455 17.744162
64.460 17.677425
64.465 17.518089
64.470 17.378769
64.475 17.836992
64.480 17.769064
64.485 18.001884
64.490 18.56048
64.495 18.430805
64.500 17.426641
64.505 16.99098
64.510 16.517801
64.515 16.7649
64.520 16.284012
64.525 15.555671
64.530 15.563416
64.535 16.091509
64.540 16.151901
64.545 16.235445
64.550 16.350504
64.555 16.750536
64.560 17.114218
64.565 17.021883
64.570 16.763577
64.575 16.775173
64.580 17.256811
64.585 17.847
64.590 18.268999
64.595 18.058325
64.600 17.763109
64.605 17.35166
64.610 16.939257
64.615 16.488497
64.620 15.925726
64.625 15.610619
64.630 15.621
64.635 16.093428
64.640 16.447155
64.645 16.523703
64.650 16.446115
64.655 16.313557
64.660 16.185291
64.665 16.250641
64.670 16.412836
64.675 16.475582
64.680 16.747543
64.685 16.795832
64.690 16.78124
64.695 16.391212
64.700 16.049677
64.705 15.823099
64.710 15.787332
64.715 15.700286
64.720 15.291928
64.725 14.873404
64.730 15.328992
64.735 15.592733
64.740 15.806536
64.745 15.833395
64.750 15.727474
64.755 16.157715
64.760 16.840303
64.765 16.506077
64.770 16.577427
64.775 16.969591
64.780 17.712976
64.785 18.484901
64.790 18.846809
64.795 18.66931
64.800 19.234484
64.805 19.69252
64.810 19.256248
64.815 18.542286
64.820 18.654596
64.825 18.970345
64.830 19.234632
64.835 19.168461
64.840 19.039675
64.845 18.873981
64.850 19.184093
64.855 19.229176
64.860 18.995071
64.865 18.917236
64.870 18.761532
64.875 18.421808
64.880 18.638254
64.885 18.847639
64.890 18.402195
64.895 18.624544
64.900 19.424643
64.905 20.220818
64.910 19.873388
64.915 20.148945
64.920 19.957418
64.925 20.468969
64.930 20.566662
64.935 20.302752
64.940 20.02317
64.945 20.17914
64.950 20.598982
64.955 20.681559
64.960 20.923531
64.965 20.863007
64.970 20.947418
64.975 21.348301
64.980 21.589081
64.985 21.343599
64.990 22.064806
64.995 22.283052
65.000 22.598875
65.005 22.76276
65.010 23.360439
65.015 23.576099
65.020 24.24839
65.025 24.118969
65.030 24.181519
65.035 24.627464
65.040 24.655502
65.045 24.129053
65.050 24.480347
65.055 24.225531
65.060 24.032085
65.065 23.414251
65.070 23.139347
65.075 23.189592
65.080 23.33012
65.085 23.073463
65.090 23.307764
65.095 23.241184
65.100 23.170286
65.105 22.546595
65.110 22.459053
65.115 22.584267
65.120 22.620388
65.125 22.202772
65.130 22.399544
65.135 22.775457
65.140 22.590797
65.145 22.121126
65.150 21.452713
65.155 20.683456
65.160 20.740707
65.165 21.004349
65.170 21.145868
65.175 21.489466
65.180 21.168474
65.185 21.538504
65.190 21.63493
65.195 21.663206
65.200 21.239021
65.205 21.188602
65.210 20.781301
65.215 21.151812
65.220 21.34803
65.225 21.913734
65.230 22.473248
65.235 22.475723
65.240 21.688435
65.245 21.869934
65.250 21.405304
65.255 20.895418
65.260 20.340103
65.265 19.197504
65.270 18.410038
65.275 18.750034
65.280 18.650761
65.285 19.124451
65.290 19.215298
65.295 19.251547
65.300 19.631077
65.305 19.839447
65.310 19.772491
65.315 19.308119
65.320 18.310057
65.325 17.746494
65.330 17.520388
65.335 16.922235
65.340 17.108484
65.345 16.51063
65.350 16.624651
65.355 17.143332
65.360 17.406868
65.365 17.17466
65.370 17.045017
65.375 16.415228
65.380 16.616314
65.385 16.050625
65.390 15.63159
65.395 15.345473
65.400 15.126704
65.405 15.121549
65.410 15.082601
65.415 15.239345
65.420 15.736901
65.425 15.735574
65.430 15.678301
65.435 15.449949
65.440 15.077431
65.445 15.318449
65.450 14.692418
65.455 14.708843
65.460 14.878346
65.465 15.016043
65.470 14.432383
65.475 14.104252
65.480 13.979097
65.485 14.411426
65.490 14.580563
65.495 14.519031
65.500 14.995828
65.505 15.792147
65.510 15.830262
65.515 15.753525
65.520 14.701018
65.525 14.028256
65.530 13.454821
65.535 13.256219
65.540 13.232182
65.545 13.354674
65.550 13.412067
65.555 14.349891
65.560 14.661782
65.565 14.908224
65.570 14.916727
65.575 15.650831
65.580 15.953313
65.585 15.93211
65.590 15.69152
65.595 15.749552
65.600 15.779811
65.605 15.530549
65.610 14.693085
65.615 14.474218
65.620 14.982249
65.625 15.329575
65.630 15.525741
65.635 15.468468
65.640 15.683741
65.645 15.476089
65.650 14.976271
65.655 14.665743
65.660 14.473679
65.665 14.573319
65.670 14.458445
65.675 13.877788
65.680 14.208996
65.685 14.968518
65.690 14.850384
65.695 14.952863
65.700 14.464675
65.705 14.707361
65.710 15.010705
65.715 15.642513
65.720 15.339069
65.725 15.263619
65.730 14.913605
65.735 15.173082
65.740 15.07806
65.745 14.646886
65.750 14.06741
65.755 13.970197
65.760 14.290751
65.765 14.781668
65.770 14.99658
65.775 15.286404
65.780 15.635081
65.785 15.784362
65.790 15.283994
65.795 15.124633
65.800 14.997262
65.805 15.467658
65.810 15.622972
65.815 15.608235
65.820 15.954101
65.825 16.239786
65.830 16.408571
65.835 16.069078
65.840 15.240399
65.845 15.251501
65.850 15.41579
65.855 14.90387
65.860 15.073299
65.865 15.045935
65.870 15.352839
65.875 16.410038
65.880 16.374954
65.885 16.347757
65.890 16.803371
65.895 16.624731
65.900 16.707689
65.905 16.751976
65.910 16.332378
65.915 16.418884
65.920 16.601088
65.925 17.129988
65.930 17.420725
65.935 17.347744
65.940 17.57131
65.945 17.656075
65.950 17.961872
65.955 18.093008
65.960 17.413023
65.965 18.227318
65.970 18.954958
65.975 18.929049
65.980 18.627096
65.985 18.776619
65.990 19.192089
65.995 19.728592
66.000 19.872742
66.005 19.276949
66.010 18.898487
66.015 19.09724
66.020 18.983614
66.025 19.334902
66.030 19.222572
66.035 19.39613
66.040 19.982412
66.045 20.48341
66.050 20.44899
66.055 19.936111
66.060 19.948376
66.065 20.524681
66.070 20.377007
66.075 20.549938
66.080 20.971582
66.085 21.507492
66.090 21.847385
66.095 21.522938
66.100 21.62282
66.105 21.748358
66.110 21.897789
66.115 21.702454
66.120 21.616541
66.125 22.04587
66.130 22.229811
66.135 22.191446
66.140 22.439573
66.145 22.483875
66.150 22.411354
66.155 22.026291
66.160 22.112297
66.165 21.836287
66.170 21.165636
66.175 20.938559
66.180 21.20763
66.185 22.110725
66.190 22.919739
66.195 23.270853
66.200 24.015182
66.205 24.396399
66.210 24.660587
66.215 23.943377
66.220 24.177532
66.225 24.345577
66.230 24.132444
66.235 24.597589
66.240 25.080164
66.245 25.187651
66.250 25.585659
66.255 24.109823
66.260 23.706776
66.265 24.197302
66.270 23.622957
66.275 23.060434
66.280 22.987246
66.285 23.028776
66.290 23.23085
66.295 22.647856
66.300 22.100582
66.305 22.233374
66.310 23.042261
66.315 23.063887
66.320 23.193451
66.325 23.73724
66.330 23.80093
66.335 23.602722
66.340 23.282787
66.345 22.218609
66.350 22.111282
66.355 22.365644
66.360 21.994497
66.365 21.872139
66.370 21.849695
66.375 21.301807
66.380 21.357145
66.385 21.152863
66.390 20.968048
66.395 21.388792
66.400 21.268917
66.405 21.458908
66.410 21.815777
66.415 21.819248
66.420 21.606377
66.425 20.646564
66.430 20.59919
66.435 20.281225
66.440 19.675505
66.445 19.789951
66.450 19.431734
66.455 19.286165
66.460 19.025457
66.465 18.614511
66.470 19.614513
66.475 19.326363
66.480 18.675076
66.485 18.441677
66.490 18.865534
66.495 19.256968
66.500 19.399652
66.505 18.82375
66.510 19.242907
66.515 19.046541
66.520 18.463545
66.525 18.037123
66.530 17.810982
66.535 17.018656
66.540 16.51955
66.545 16.364792
66.550 16.692627
66.555 16.391203
66.560 16.073732
66.565 16.450214
66.570 17.076878
66.575 17.31538
66.580 17.108027
66.585 16.645283
66.590 16.675037
66.595 16.613373
66.600 16.178774
66.605 16.005985
66.610 15.80906
66.615 15.982325
66.620 16.85379
66.625 16.928017
66.630 16.29336
66.635 15.833514
66.640 15.498054
66.645 15.787238
66.650 15.966182
66.655 15.434478
66.660 15.847602
66.665 16.185114
66.670 16.116211
66.675 15.631268
66.680 15.046371
66.685 14.902043
66.690 14.179695
66.695 13.545608
66.700 12.990585
66.705 13.307234
66.710 13.562648
66.715 13.674964
66.720 13.188249
66.725 13.699701
66.730 13.824629
66.735 14.394024
66.740 14.13733
66.745 14.097087
66.750 14.016397
66.755 14.07832
66.760 14.259166
66.765 14.228164
66.770 14.171602
66.775 13.824935
66.780 13.757128
66.785 13.95131
66.790 13.201157
66.795 12.922449
66.800 13.568327
66.805 13.808942
66.810 14.010846
66.815 13.809471
66.820 13.183435
66.825 13.493996
66.830 13.408532
66.835 12.605561
66.840 12.113488
66.845 12.150884
66.850 12.382748
66.855 12.325654
66.860 11.908031
66.865 11.996809
66.870 11.963851
66.875 12.049987
66.880 11.776793
66.885 11.580524
66.890 11.964573
66.895 12.037085
66.900 11.718452
66.905 11.892052
66.910 11.767808
66.915 11.868122
66.920 11.879772
66.925 11.825016
66.930 12.147463
66.935 12.489405
66.940 12.977779
66.945 13.863294
66.950 13.895313
66.955 14.065701
66.960 14.443467
66.965 14.656317
66.970 14.32346
66.975 13.747194
66.980 13.239058
66.985 13.411281
66.990 13.556727
66.995 13.069612
67.000 13.056557
67.005 13.150617
67.010 13.287346
67.015 13.779033
67.020 13.831022
67.025 13.498927
67.030 13.424707
67.035 13.38102
67.040 13.968399
67.045 14.053744
67.050 13.221857
67.055 13.029522
67.060 13.000136
67.065 13.223775
67.070 13.046495
67.075 12.90729
67.080 12.876771
67.085 13.580359
67.090 13.688467
67.095 13.629714
67.100 13.591751
67.105 13.195828
67.110 12.776395
67.115 12.587642
67.120 12.450013
67.125 12.261686
67.130 12.765626
67.135 13.253179
67.140 13.430385
67.145 13.605935
67.150 13.204345
67.155 12.916152
67.160 12.863091
67.165 12.556399
67.170 12.160827
67.175 12.145028
67.180 12.344475
67.185 12.684169
67.190 12.765496
67.195 12.951306
67.200 12.790258
67.205 13.080626
67.210 13.70778
67.215 13.901327
67.220 14.265998
67.225 14.752974
67.230 15.20558
67.235 15.106389
67.240 14.625918
67.245 13.900594
67.250 13.815797
67.255 13.390081
67.260 12.887219
67.265 12.402953
67.270 12.581806
67.275 13.492143
67.280 13.727741
67.285 13.918486
67.290 13.63506
67.295 13.522655
67.300 13.589766
67.305 13.914115
67.310 13.536219
67.315 13.152953
67.320 12.73519
67.325 13.19193
67.330 13.631396
67.335 13.453408
67.340 12.978635
67.345 12.539111
67.350 12.747118
67.355 13.277077
67.360 13.48019
67.365 13.251115
67.370 13.473915
67.375 13.52669
67.380 14.194982
67.385 14.524066
67.390 14.077597
67.395 13.766601
67.400 13.671206
67.405 13.569671
67.410 13.531933
67.415 13.362458
67.420 12.964461
67.425 12.817871
67.430 13.034352
67.435 13.226654
67.440 13.681298
67.445 13.337398
67.450 13.239649
67.455 13.249231
67.460 13.607435
67.465 14.077513
67.470 13.896856
67.475 14.06429
67.480 14.717414
67.485 14.808026
67.490 14.724479
67.495 14.608762
67.500 14.64835
67.505 14.766843
67.510 14.565454
67.515 14.693336
67.520 14.804952
67.525 14.853701
67.530 14.689454
67.535 13.924695
67.540 14.01798
67.545 13.941054
67.550 13.346287
67.555 12.61374
67.560 12.796524
67.565 12.897778
67.570 13.365869
67.575 12.680531
67.580 12.687172
67.585 12.938258
67.590 13.190696
67.595 13.173518
67.600 12.88125
67.605 12.670636
67.610 12.750702
67.615 12.163028
67.620 12.002753
67.625 12.191238
67.630 12.241971
67.635 12.552805
67.640 12.5615
67.645 12.572181
67.650 13.033697
67.655 13.359498
67.660 13.080114
67.665 12.957021
67.670 13.069591
67.675 13.1796
67.680 13.570986
67.685 13.456799
67.690 13.600724
67.695 14.119803
67.700 14.270152
67.705 13.977982
67.710 13.94215
67.715 14.065999
67.720 14.517115
67.725 14.287097
67.730 13.989525
67.735 13.885318
67.740 14.032403
67.745 14.068687
67.750 13.872474
67.755 13.567742
67.760 13.374949
67.765 13.582834
67.770 13.312667
67.775 13.416545
67.780 13.667675
67.785 13.872378
67.790 13.900507
67.795 13.968153
67.800 13.729071
67.805 13.875532
67.810 13.768201
67.815 13.321426
67.820 13.040927
67.825 13.183753
67.830 13.165274
67.835 13.270933
67.840 13.090697
67.845 12.686801
67.850 12.998883
67.855 13.075726
67.860 12.751253
67.865 13.306534
67.870 13.240108
67.875 13.369006
67.880 13.591723
67.885 13.34089
67.890 13.61122
67.895 13.560439
67.900 13.133247
67.905 13.038643
67.910 13.374504
67.915 13.756187
67.920 13.526735
67.925 13.557027
67.930 14.061684
67.935 14.902538
67.940 15.466391
67.945 15.711395
67.950 15.784094
67.955 16.13209
67.960 15.633558
67.965 14.832605
67.970 14.341887
67.975 13.985517
67.980 13.921739
67.985 14.082441
67.990 13.780363
67.995 13.931111
68.000 14.440009
68.005 14.127954
68.010 14.348698
68.015 14.206756
68.020 13.919712
68.025 14.278902
68.030 14.650244
68.035 14.370526
68.040 14.034288
68.045 13.661046
68.050 13.191847
68.055 13.201118
68.060 12.66008
68.065 11.892158
68.070 12.326241
68.075 12.448236
68.080 12.473378
68.085 12.619971
68.090 12.963428
68.095 13.431553
68.100 13.83656
68.105 14.18565
68.110 14.193807
68.115 14.566349
68.120 14.614324
68.125 14.067828
68.130 14.123348
68.135 13.80744
68.140 12.800709
68.145 12.99329
68.150 12.278537
68.155 12.438614
68.160 12.526607
68.165 12.477392
68.170 12.963503
68.175 13.625423
68.180 13.79442
68.185 14.202052
68.190 14.309053
68.195 14.475159
68.200 14.129235
68.205 13.605344
68.210 13.436521
68.215 13.004705
68.220 12.664599
68.225 12.623683
68.230 12.765576
68.235 13.328571
68.240 13.622096
68.245 13.6173
68.250 14.08913
68.255 14.389791
68.260 14.66974
68.265 14.433212
68.270 14.622495
68.275 14.775261
68.280 14.835182
68.285 14.8628
68.290 14.51292
68.295 13.607102
68.300 13.547116
68.305 13.009869
68.310 12.403201
68.315 12.268584
68.320 11.885469
68.325 11.868011
68.330 12.008417
68.335 11.726447
68.340 11.92485
68.345 12.262346
68.350 12.084106
68.355 12.454967
68.360 13.012823
68.365 13.300097
68.370 13.191288
68.375 13.223567
68.380 14.069501
68.385 14.70522
68.390 14.779072
68.395 14.413882
68.400 14.359767
68.405 14.39634
68.410 14.094911
68.415 12.979169
68.420 12.74528
68.425 12.463963
68.430 12.506495
68.435 12.530886
68.440 12.638728
68.445 12.727494
68.450 13.10514
68.455 12.732295
68.460 12.565061
68.465 12.509247
68.470 12.753147
68.475 12.428549
68.480 12.420077
68.485 12.634913
68.490 12.719111
68.495 12.832959
68.500 13.018624
68.505 13.321178
68.510 13.628368
68.515 13.377697
68.520 12.914301
68.525 13.095375
68.530 13.16716
68.535 12.899893
68.540 12.38534
68.545 12.206371
68.550 12.478528
68.555 13.050605
68.560 12.835683
68.565 12.701512
68.570 12.822572
68.575 12.868897
68.580 13.151967
68.585 13.043689
68.590 13.013657
68.595 13.111032
68.600 13.586181
68.605 13.9242
68.610 13.99375
68.615 13.945276
68.620 14.159594
68.625 14.337004
68.630 14.9614
68.635 14.777397
68.640 14.436903
68.645 14.528525
68.650 13.976752
68.655 13.747437
68.660 13.60512
68.665 13.333602
68.670 13.692566
68.675 14.305266
68.680 14.654302
68.685 15.0915
68.690 14.76834
68.695 14.316469
68.700 14.08285
68.705 13.184873
68.710 12.646687
68.715 12.462557
68.720 12.619493
68.725 13.346395
68.730 14.105961
68.735 14.227417
68.740 14.596447
68.745 14.782321
68.750 14.783381
68.755 14.556601
68.760 14.460306
68.765 14.149926
68.770 14.283854
68.775 14.30906
68.780 14.149055
68.785 14.158312
68.790 14.461743
68.795 14.186137
68.800 14.459301
68.805 14.690829
68.810 14.855867
68.815 15.54974
68.820 16.094616
68.825 16.277626
68.830 16.529179
68.835 16.383068
68.840 15.917508
68.845 15.773735
68.850 15.437992
68.855 14.804228
68.860 14.434872
68.865 14.129661
68.870 13.999824
68.875 14.157417
68.880 14.091321
68.885 13.795696
68.890 13.588472
68.895 13.693526
68.900 13.695509
68.905 13.992413
68.910 14.215261
68.915 14.179589
68.920 14.378267
68.925 14.799542
68.930 14.673697
68.935 14.38594
68.940 14.398446
68.945 14.026269
68.950 14.315396
68.955 14.552933
68.960 14.746951
68.965 14.533963
68.970 14.654978
68.975 15.029284
68.980 15.704844
68.985 15.803197
68.990 15.73113
68.995 15.864614
69.000 16.131468
69.005 16.267794
69.010 15.897604
69.015 15.609241
69.020 15.393149
69.025 14.82215
69.030 14.699352
69.035 14.924908
69.040 14.989499
69.045 15.401911
69.050 15.932168
69.055 16.351519
69.060 17.074093
69.065 16.879007
69.070 16.911058
69.075 16.823696
69.080 16.781399
69.085 16.625881
69.090 16.361378
69.095 16.290674
69.100 17.184006
69.105 17.376118
69.110 17.179062
69.115 16.851454
69.120 16.61825
69.125 17.006584
69.130 17.206545
69.135 17.012444
69.140 17.371834
69.145 17.537153
69.150 17.261633
69.155 17.179859
69.160 17.175512
69.165 16.900969
69.170 16.608467
69.175 16.446466
69.180 16.298447
69.185 16.763285
69.190 17.362886
69.195 16.927828
69.200 16.668192
69.205 17.081293
69.210 17.916286
69.215 18.319271
69.220 18.422384
69.225 18.117023
69.230 18.23719
69.235 18.551638
69.240 18.646791
69.245 17.759592
69.250 17.387667
69.255 17.05084
69.260 17.584379
69.265 17.991758
69.270 17.996313
69.275 18.321245
69.280 19.090519
69.285 19.272963
69.290 19.560337
69.295 19.650719
69.300 19.975088
69.305 20.319948
69.310 19.994328
69.315 19.837088
69.320 20.163197
69.325 20.342106
69.330 20.498608
69.335 20.068338
69.340 19.737129
69.345 20.298141
69.350 20.901314
69.355 21.150757
69.360 21.23527
69.365 21.479734
69.370 21.343885
69.375 21.161125
69.380 21.306305
69.385 21.042696
69.390 21.106325
69.395 20.721571
69.400 20.291691
69.405 20.565931
69.410 20.764441
69.415 20.15168
69.420 19.794811
69.425 19.532866
69.430 19.458385
69.435 19.803602
69.440 20.204794
69.445 20.739168
69.450 21.272573
69.455 21.712597
69.460 21.642412
69.465 21.348429
69.470 20.828999
69.475 20.394873
69.480 20.139847
69.485 19.575272
69.490 19.681768
69.495 19.738811
69.500 19.942438
69.505 20.083023
69.510 20.027353
69.515 19.73642
69.520 19.68187
69.525 19.685976
69.530 19.772358
69.535 20.005287
69.540 20.005295
69.545 20.458841
69.550 21.073093
69.555 21.41876
69.560 21.047653
69.565 21.062563
69.570 21.153273
69.575 21.33218
69.580 20.615803
69.585 20.309275
69.590 20.697212
69.595 21.036306
69.600 20.831095
69.605 20.895296
69.610 21.146154
69.615 21.302361
69.620 21.047478
69.625 20.424963
69.630 20.426176
69.635 20.420574
69.640 20.152468
69.645 20.048607
69.650 19.806496
69.655 19.557613
69.660 19.369242
69.665 18.950031
69.670 18.620729
69.675 18.455667
69.680 18.409288
69.685 18.231453
69.690 18.568773
69.695 18.832764
69.700 18.69688
69.705 18.540493
69.710 18.552708
69.715 18.56839
69.720 18.658298
69.725 17.793072
69.730 17.461065
69.735 17.549637
69.740 17.722187
69.745 18.170692
69.750 18.042389
69.755 17.429808
69.760 17.301678
69.765 17.694529
69.770 17.403366
69.775 17.278353
69.780 16.266993
69.785 16.700239
69.790 16.87874
69.795 16.494114
69.800 16.228825
69.805 16.183329
69.810 15.885196
69.815 15.806544
69.820 15.522228
69.825 15.339955
69.830 15.229365
69.835 15.216454
69.840 15.209346
69.845 15.188439
69.850 15.26021
69.855 15.131916
69.860 15.281013
69.865 15.579332
69.870 15.185071
69.875 15.186888
69.880 15.2095
69.885 14.94184
69.890 14.801863
69.895 14.376394
69.900 14.441866
69.905 14.79922
69.910 14.857297
69.915 14.700335
69.920 14.40468
69.925 14.622255
69.930 14.022016
69.935 13.514539
69.940 13.145671
69.945 13.173372
69.950 12.965199
69.955 13.051963
69.960 13.116565
69.965 13.956488
69.970 14.02921
69.975 14.130032
69.980 14.477939
69.985 14.900415
69.990 15.176587
69.995 15.354101
70.000 15.658481
70.005 15.56444
70.010 14.944889
70.015 14.587053
70.020 14.311495
70.025 14.09266
70.030 13.997339
70.035 13.551752
70.040 13.268637
70.045 12.986604
70.050 12.766866
70.055 12.736207
70.060 12.879909
70.065 12.441904
70.070 11.976392
70.075 12.287989
70.080 12.705503
70.085 12.757922
70.090 12.781801
70.095 12.631601
70.100 13.348268
70.105 13.555225
70.110 13.956137
70.115 13.884402
70.120 13.81797
70.125 13.972312
70.130 13.848425
70.135 13.50539
70.140 13.798474
70.145 13.65901
70.150 14.293992
70.155 14.370013
70.160 14.070249
70.165 14.333082
70.170 14.465448
70.175 14.448133
70.180 13.930337
70.185 13.363568
70.190 13.085883
70.195 13.584081
70.200 13.358645
70.205 12.941119
70.210 12.838836
70.215 13.199047
70.220 13.423203
70.225 13.064612
70.230 12.84322
70.235 12.971284
70.240 13.067122
70.245 13.435455
70.250 13.453279
70.255 13.547822
70.260 13.72884
70.265 13.881592
70.270 13.951147
70.275 13.607887
70.280 12.991124
70.285 12.949826
70.290 13.138627
70.295 13.401219
70.300 13.11282
70.305 13.547681
70.310 13.924591
70.315 14.234176
70.320 14.265624
70.325 13.828171
70.330 13.42149
70.335 12.815863
70.340 12.292979
70.345 12.320517
70.350 12.312522
70.355 12.27939
70.360 12.673988
70.365 13.453211
70.370 14.367188
70.375 14.718997
70.380 14.765868
70.385 14.686179
70.390 14.696678
70.395 14.514805
70.400 14.186315
70.405 14.192094
70.410 14.302499
70.415 13.775066
70.420 13.722601
70.425 13.442025
70.430 13.246161
70.435 12.713868
70.440 12.170076
70.445 11.922331
70.450 12.476805
70.455 12.725522
70.460 13.197421
70.465 13.649298
70.470 14.327023
70.475 14.446515
70.480 14.40642
70.485 14.376428
70.490 14.057488
70.495 13.811278
70.500 13.394547
70.505 12.831673
70.510 13.054361
70.515 12.96952
70.520 12.760891
70.525 12.306601
70.530 12.097296
70.535 12.377668
70.540 12.810946
70.545 12.844095
70.550 12.860179
70.555 13.067614
70.560 13.659313
70.565 13.957076
70.570 13.82196
70.575 13.595705
70.580 13.061263
70.585 12.830523
70.590 12.599215
70.595 12.129974
70.600 12.156557
70.605 11.284116
70.610 11.380886
70.615 11.946138
70.620 12.325442
70.625 12.646588
70.630 12.584715
70.635 12.556825
70.640 12.895198
70.645 12.999242
70.650 13.172133
70.655 12.716362
70.660 12.75005
70.665 12.953024
70.670 13.237495
70.675 13.42651
70.680 13.276147
70.685 13.070149
70.690 12.767229
70.695 12.545786
70.700 12.051539
70.705 12.073336
70.710 11.947474
70.715 11.755951
70.720 12.127554
70.725 12.424383
70.730 12.520037
70.735 12.81047
70.740 12.488684
70.745 12.794033
70.750 13.073
70.755 12.995115
70.760 12.481126
70.765 12.767017
70.770 13.096882
70.775 13.001113
70.780 12.730066
70.785 12.831053
70.790 13.684996
70.795 14.644923
70.800 14.813685
70.805 14.540697
70.810 14.604862
70.815 14.358599
70.820 14.24789
70.825 14.006472
70.830 13.26128
70.835 13.163575
70.840 13.675362
70.845 13.767345
70.850 14.096767
70.855 13.520717
70.860 13.440172
70.865 13.289533
70.870 12.652687
70.875 12.668336
70.880 12.749091
70.885 12.650904
70.890 12.74434
70.895 12.708011
70.900 13.057882
70.905 13.227506
70.910 13.234954
70.915 13.010839
70.920 13.295291
70.925 12.960445
70.930 12.922842
70.935 12.76874
70.940 12.609802
70.945 12.530762
70.950 12.240304
70.955 11.972334
70.960 12.278008
70.965 12.418574
70.970 12.357209
70.975 12.372262
70.980 12.332539
70.985 12.316814
70.990 11.99924
70.995 11.536938
71.000 11.091825
71.005 10.960628
71.010 11.000505
71.015 11.441702
71.020 11.606105
71.025 11.982643
71.030 12.028505
71.035 12.413086
71.040 12.664858
71.045 13.017234
71.050 13.186285
71.055 13.529066
71.060 14.070191
71.065 14.961335
71.070 15.126619
71.075 15.13447
71.080 14.659083
71.085 14.715418
71.090 14.368618
71.095 14.179513
71.100 14.027336
71.105 14.140252
71.110 13.722419
71.115 13.709846
71.120 13.622239
71.125 13.580914
71.130 13.564224
71.135 13.228361
71.140 13.564236
71.145 13.816444
71.150 13.610407
71.155 13.607593
71.160 13.203511
71.165 12.989446
71.170 12.951513
71.175 12.362643
71.180 12.029868
71.185 11.801976
71.190 11.734753
71.195 12.114253
71.200 11.921624
71.205 11.715566
71.210 11.23084
71.215 11.5143
71.220 11.261312
71.225 11.126248
71.230 10.943136
71.235 10.777974
71.240 11.128835
71.245 11.263039
71.250 11.498996
71.255 12.241643
71.260 12.289935
71.265 12.256806
71.270 12.042291
71.275 11.684229
71.280 11.857949
71.285 11.684784
71.290 11.185499
71.295 11.69982
71.300 12.385188
71.305 12.691193
71.310 12.964488
71.315 12.764592
71.320 12.819382
71.325 12.432482
71.330 11.583999
71.335 11.400666
71.340 11.808533
71.345 11.872093
71.350 11.949118
71.355 11.90882
71.360 12.061393
71.365 12.408648
71.370 12.00312
71.375 11.012045
71.380 10.551191
71.385 10.379432
71.390 10.314106
71.395 10.261389
71.400 10.46244
71.405 10.808032
71.410 12.092691
71.415 12.805479
71.420 13.022446
71.425 13.422363
71.430 13.906721
71.435 13.998339
71.440 13.963952
71.445 13.559861
71.450 13.875321
71.455 13.533746
71.460 13.558494
71.465 13.520171
71.470 13.290558
71.475 13.026402
71.480 12.755345
71.485 12.667612
71.490 12.652229
71.495 12.023428
71.500 11.599673
71.505 11.910901
71.510 12.090004
71.515 11.538666
71.520 11.586718
71.525 11.932251
71.530 12.279798
71.535 12.221584
71.540 11.670126
71.545 11.45297
71.550 11.883502
71.555 12.241357
71.560 12.030512
71.565 12.216607
71.570 12.557827
71.575 13.231379
71.580 13.052515
71.585 12.744969
71.590 12.815023
71.595 13.10563
71.600 12.782905
71.605 12.392472
71.610 12.013291
71.615 11.997612
71.620 12.011028
71.625 11.941966
71.630 11.78103
71.635 11.611068
71.640 11.365623
71.645 11.627023
71.650 11.765369
71.655 11.684349
71.660 11.537593
71.665 11.787314
71.670 12.366326
71.675 12.547006
71.680 12.123075
71.685 12.405212
71.690 12.610473
71.695 12.943055
71.700 12.696843
71.705 12.57772
71.710 12.740673
71.715 12.897869
71.720 12.933595
71.725 12.728162
71.730 12.175124
71.735 12.220865
71.740 12.396127
71.745 12.455823
71.750 12.692383
71.755 12.955572
71.760 12.950912
71.765 13.187684
71.770 13.177967
71.775 12.799998
71.780 12.836245
71.785 12.63733
71.790 12.597
71.795 12.440301
71.800 12.594114
71.805 12.815238
71.810 13.190169
71.815 13.115866
71.820 12.797915
71.825 12.517721
71.830 12.3051
71.835 11.909216
71.840 12.228269
71.845 12.540867
71.850 12.271615
71.855 12.080801
71.860 11.999134
71.865 12.225879
71.870 12.252
71.875 12.343904
71.880 12.240406
71.885 12.492964
71.890 12.763189
71.895 13.334908
71.900 13.434745
71.905 13.559415
71.910 13.156898
71.915 13.150223
71.920 13.248448
71.925 13.160969
71.930 12.734858
71.935 12.584088
71.940 12.558585
71.945 12.375816
71.950 12.034054
71.955 11.91985
71.960 11.869832
71.965 12.16919
71.970 12.491634
71.975 12.356206
71.980 12.539409
71.985 13.069372
71.990 13.501951
71.995 13.38234
72.000 13.068091
72.005 12.615797
72.010 12.445384
72.015 12.474227
72.020 12.35146
72.025 12.074941
72.030 12.153539
72.035 12.130185
72.040 12.235842
72.045 12.127084
72.050 12.007131
72.055 11.451789
72.060 11.395834
72.065 11.769682
72.070 12.020957
72.075 11.974329
72.080 11.602012
72.085 11.719448
72.090 11.915299
72.095 11.854137
72.100 11.524925
72.105 11.60435
72.110 12.062097
72.115 11.916267
72.120 12.10753
72.125 12.404301
72.130 12.484931
72.135 12.624154
72.140 12.474128
72.145 12.275455
72.150 12.528625
72.155 12.108997
72.160 12.074071
72.165 11.971285
72.170 11.64305
72.175 11.773029
72.180 11.374418
72.185 11.624878
72.190 11.568342
72.195 11.594514
72.200 11.62021
72.205 11.869082
72.210 12.021998
72.215 12.268247
72.220 12.502343
72.225 12.705167
72.230 12.787799
72.235 13.098739
72.240 13.578643
72.245 13.885838
72.250 14.156192
72.255 14.009976
72.260 14.288657
72.265 14.186471
72.270 14.259156
72.275 13.552494
72.280 12.915284
72.285 12.366023
72.290 11.581012
72.295 11.284096
72.300 11.002547
72.305 10.863626
72.310 11.291972
72.315 11.782589
72.320 11.977584
72.325 12.559724
72.330 12.262098
72.335 12.273689
72.340 12.532741
72.345 12.346824
72.350 12.267759
72.355 12.507362
72.360 12.709698
72.365 12.834853
72.370 12.818751
72.375 12.843592
72.380 13.212288
72.385 13.298076
72.390 13.019528
72.395 12.987858
72.400 13.157107
72.405 13.069495
72.410 12.526159
72.415 12.271118
72.420 12.167941
72.425 11.583283
72.430 11.177239
72.435 10.500969
72.440 10.580092
72.445 11.022008
72.450 10.708699
72.455 10.342897
72.460 10.591216
72.465 11.456213
72.470 11.93392
72.475 11.589032
72.480 11.620195
72.485 11.779025
72.490 12.177777
72.495 11.878415
72.500 11.343709
72.505 11.413586
72.510 11.240898
72.515 11.029804
72.520 11.509204
72.525 11.767467
72.530 11.621442
72.535 11.48775
72.540 11.502711
72.545 11.302761
72.550 11.243371
72.555 11.246744
72.560 11.333031
72.565 12.018793
72.570 12.04667
72.575 12.056742
72.580 12.831162
72.585 13.698215
72.590 13.889569
72.595 13.661196
72.600 13.434189
72.605 13.822303
72.610 13.722435
72.615 13.380549
72.620 13.178448
72.625 12.893611
72.630 12.79903
72.635 12.525075
72.640 12.376994
72.645 12.296085
72.650 12.352377
72.655 11.436465
72.660 11.316922
72.665 11.677514
72.670 11.884784
72.675 11.758463
72.680 11.743867
72.685 11.908816
72.690 12.975653
72.695 13.174505
72.700 13.099501
72.705 13.243631
72.710 13.207181
72.715 12.840636
72.720 12.602482
72.725 12.231762
72.730 12.024589
72.735 11.405609
72.740 11.519879
72.745 11.881834
72.750 11.732939
72.755 11.917418
72.760 12.073098
72.765 12.72784
72.770 12.727765
72.775 13.029194
72.780 12.881649
72.785 13.100454
72.790 13.042357
72.795 12.846409
72.800 12.975547
72.805 12.767532
72.810 12.126906
72.815 12.408875
72.820 11.865116
72.825 11.766361
72.830 11.033308
72.835 11.037323
72.840 11.245162
72.845 10.952374
72.850 10.541838
72.855 10.537848
72.860 10.860339
72.865 11.125234
72.870 11.199304
72.875 11.384743
72.880 11.818701
72.885 12.440387
72.890 12.69234
72.895 12.199704
72.900 12.376382
72.905 12.573963
72.910 12.7489
72.915 12.661353
72.920 12.124965
72.925 12.36024
72.930 12.401196
72.935 12.211484
72.940 11.459854
72.945 11.466598
72.950 11.629406
72.955 11.489772
72.960 11.37757
72.965 11.3764
72.970 11.283253
72.975 11.416205
72.980 11.125668
72.985 11.414446
72.990 11.840606
72.995 11.715416
73.000 11.996545
