!@!!GADDS PLOTSO FILE: Chi integration type
!@!!Title/SampleName: map-18
!@!!Comment: ?
!@!!User: Bruker Instrument Administrator
!@!!Site: University of Illinois Chicago
!@!!Frame: map-18_01_000.gfrm
!@!!Wavelengths    1.54184   1.54056   1.54439
!@!!Frame angles: 2Theta: 63.000 Omega: 50.000 Phi: 0.000 Chi: 90.000
!@!!Integration range: 2Theta: 53.000 to 73.000  Gamma: -105.000 to -75.000
!@!!Integration method: bin normalized
!@!N
!@!SS
!@!M
!@!L 0.0 0.0 0.0 0.0
!@!XDegrees
!@!YCounts
53.000 8.299943
53.005 8.659677
53.010 8.982742
53.015 9.212134
53.020 9.528674
53.025 9.487539
53.030 9.707228
53.035 9.51873
53.040 9.146133
53.045 9.017929
53.050 8.547727
53.055 8.045691
53.060 8.263027
53.065 8.215905
53.070 8.628901
53.075 8.789551
53.080 8.352966
53.085 8.575451
53.090 8.623596
53.095 8.65306
53.100 8.563909
53.105 8.100559
53.110 8.357683
53.115 9.112895
53.120 9.414838
53.125 9.416306
53.130 9.384513
53.135 9.26687
53.140 9.1331
53.145 8.985611
53.150 8.662592
53.155 8.375113
53.160 8.273145
53.165 8.183712
53.170 8.196613
53.175 8.432776
53.180 8.376765
53.185 8.347003
53.190 8.421568
53.195 8.596311
53.200 9.046474
53.205 9.135261
53.210 9.397668
53.215 9.474815
53.220 9.363315
53.225 9.175122
53.230 9.183873
53.235 9.041686
53.240 8.935517
53.245 8.884501
53.250 9.260586
53.255 9.622985
53.260 9.405703
53.265 9.210771
53.270 8.994951
53.275 8.808871
53.280 8.604715
53.285 7.959675
53.290 7.849633
53.295 8.181636
53.300 8.383217
53.305 8.553582
53.310 8.732939
53.315 8.628286
53.320 8.500056
53.325 8.760439
53.330 8.941359
53.335 8.579965
53.340 8.762855
53.345 8.780905
53.350 8.872161
53.355 8.968771
53.360 9.109553
53.365 8.86972
53.370 8.953535
53.375 8.507816
53.380 8.68739
53.385 9.0011
53.390 9.036407
53.395 8.763231
53.400 8.840635
53.405 9.117704
53.410 9.33088
53.415 8.813859
53.420 8.377791
53.425 8.48457
53.430 8.770631
53.435 8.647652
53.440 8.439458
53.445 8.730329
53.450 9.028272
53.455 9.133171
53.460 8.481305
53.465 8.079801
53.470 8.164594
53.475 8.450393
53.480 8.410731
53.485 8.444892
53.490 8.028344
53.495 7.94352
53.500 8.266903
53.505 8.234509
53.510 8.044009
53.515 8.190561
53.520 8.86107
53.525 9.637553
53.530 9.809636
53.535 9.985975
53.540 9.936876
53.545 9.644755
53.550 9.065385
53.555 8.796267
53.560 8.989623
53.565 9.160543
53.570 9.328588
53.575 9.541181
53.580 9.980402
53.585 9.835767
53.590 9.678374
53.595 9.325657
53.600 9.186166
53.605 8.658422
53.610 8.259235
53.615 8.586972
53.620 9.265499
53.625 9.373942
53.630 9.333162
53.635 9.511454
53.640 9.782598
53.645 9.67995
53.650 9.434295
53.655 9.117403
53.660 8.912202
53.665 8.929922
53.670 8.756882
53.675 8.679331
53.680 8.92985
53.685 9.216108
53.690 9.458124
53.695 9.483064
53.700 9.636292
53.705 9.485423
53.710 9.496974
53.715 9.454446
53.720 9.0959
53.725 8.926703
53.730 9.034421
53.735 8.660742
53.740 9.231704
53.745 9.748004
53.750 9.791488
53.755 9.792049
53.760 9.628606
53.765 9.455768
53.770 9.734901
53.775 9.384821
53.780 8.982707
53.785 8.806527
53.790 8.589845
53.795 8.405827
53.800 8.823844
53.805 9.058824
53.810 9.363562
53.815 9.632261
53.820 9.854732
53.825 9.963691
53.830 10.142947
53.835 9.624695
53.840 9.31744
53.845 9.172912
53.850 9.056813
53.855 8.795266
53.860 9.073751
53.865 9.290776
53.870 9.650291
53.875 9.894209
53.880 9.5825
53.885 9.505248
53.890 9.669604
53.895 9.523432
53.900 9.747453
53.905 9.879944
53.910 9.455552
53.915 9.579406
53.920 9.68012
53.925 9.982241
53.930 10.406692
53.935 10.117352
53.940 10.186396
53.945 10.479639
53.950 10.826389
53.955 10.722966
53.960 10.07704
53.965 9.662496
53.970 9.982764
53.975 9.828031
53.980 9.555899
53.985 9.236288
53.990 9.572342
53.995 10.027334
54.000 10.128374
54.005 9.216465
54.010 9.054966
54.015 9.208307
54.020 9.284425
54.025 9.027419
54.030 8.826857
54.035 8.880822
54.040 9.802696
54.045 10.197228
54.050 10.081322
54.055 9.789418
54.060 9.520415
54.065 9.67003
54.070 9.215858
54.075 8.615506
54.080 8.61272
54.085 8.435734
54.090 8.751649
54.095 8.782501
54.100 8.298036
54.105 9.199355
54.110 9.55867
54.115 9.626332
54.120 9.703611
54.125 9.593526
54.130 9.809681
54.135 9.573903
54.140 9.197138
54.145 9.077708
54.150 9.079014
54.155 9.293921
54.160 9.248951
54.165 9.203331
54.170 9.472745
54.175 9.239841
54.180 9.18853
54.185 9.170515
54.190 8.874525
54.195 9.096278
54.200 10.085221
54.205 10.387419
54.210 10.449537
54.215 10.231232
54.220 10.467927
54.225 10.466412
54.230 10.260516
54.235 9.6546
54.240 9.233284
54.245 8.947128
54.250 9.521688
54.255 9.496078
54.260 9.393301
54.265 9.611836
54.270 10.107146
54.275 10.475982
54.280 10.382315
54.285 9.871271
54.290 9.603974
54.295 9.690253
54.300 9.180327
54.305 8.822806
54.310 9.197547
54.315 10.004657
54.320 11.009457
54.325 11.597291
54.330 11.911066
54.335 11.859141
54.340 11.069306
54.345 10.848088
54.350 10.122255
54.355 9.588806
54.360 9.414633
54.365 9.414362
54.370 9.762259
54.375 10.317357
54.380 10.425257
54.385 10.594921
54.390 10.769956
54.395 10.455475
54.400 10.414064
54.405 10.628592
54.410 10.203599
54.415 9.98959
54.420 10.477392
54.425 10.701757
54.430 11.280851
54.435 11.185424
54.440 11.072219
54.445 11.382733
54.450 11.315376
54.455 10.647943
54.460 10.544617
54.465 10.767523
54.470 11.479698
54.475 12.007204
54.480 12.191957
54.485 11.794668
54.490 11.787138
54.495 11.416904
54.500 10.863294
54.505 10.319752
54.510 9.817957
54.515 9.598575
54.520 10.053753
54.525 9.943742
54.530 9.919719
54.535 10.323783
54.540 10.264859
54.545 10.130851
54.550 9.864067
54.555 9.759739
54.560 10.177783
54.565 10.263535
54.570 10.018985
54.575 10.375769
54.580 10.431777
54.585 10.248271
54.590 9.737769
54.595 9.237012
54.600 8.986778
54.605 8.388773
54.610 7.739724
54.615 7.933208
54.620 8.387406
54.625 8.745539
54.630 8.826394
54.635 9.150369
54.640 9.76722
54.645 10.084946
54.650 10.06492
54.655 9.950186
54.660 9.975751
54.665 9.881823
54.670 9.553105
54.675 9.964169
54.680 10.582926
54.685 10.686353
54.690 10.783978
54.695 10.971395
54.700 11.422682
54.705 11.191289
54.710 10.508028
54.715 9.887951
54.720 10.043009
54.725 10.078266
54.730 9.618258
54.735 9.20201
54.740 9.163046
54.745 9.415903
54.750 9.934025
54.755 10.102377
54.760 10.387087
54.765 10.419703
54.770 10.475288
54.775 10.640212
54.780 10.426321
54.785 10.180635
54.790 9.983198
54.795 9.799238
54.800 10.392208
54.805 10.861398
54.810 11.090926
54.815 11.164296
54.820 11.171762
54.825 11.265212
54.830 11.691449
54.835 11.740698
54.840 11.693832
54.845 11.871287
54.850 12.022268
54.855 11.930737
54.860 11.371572
54.865 11.05905
54.870 11.160504
54.875 11.169985
54.880 11.37219
54.885 11.391047
54.890 11.685878
54.895 12.162919
54.900 12.41277
54.905 11.976366
54.910 11.828948
54.915 11.566938
54.920 11.614469
54.925 11.669975
54.930 11.051501
54.935 10.569258
54.940 10.517851
54.945 10.396746
54.950 10.283905
54.955 10.161796
54.960 10.309
54.965 10.802262
54.970 10.606661
54.975 10.515365
54.980 10.237662
54.985 10.169316
54.990 10.173529
54.995 9.914755
55.000 9.671426
55.005 9.550995
55.010 9.387033
55.015 9.206758
55.020 9.120152
55.025 8.94838
55.030 8.579815
55.035 8.516673
55.040 8.967278
55.045 9.588931
55.050 10.123276
55.055 10.132643
55.060 10.168076
55.065 10.565608
55.070 10.470569
55.075 10.401291
55.080 10.190545
55.085 10.344239
55.090 10.671868
55.095 10.92687
55.100 10.622737
55.105 10.785401
55.110 10.688704
55.115 10.649633
55.120 9.996979
55.125 9.764571
55.130 9.749853
55.135 9.949837
55.140 10.046795
55.145 10.100185
55.150 10.259508
55.155 10.671366
55.160 11.163873
55.165 11.128181
55.170 11.359141
55.175 11.295857
55.180 11.303672
55.185 11.094023
55.190 10.981639
55.195 10.377372
55.200 10.756642
55.205 10.914936
55.210 11.13854
55.215 11.435379
55.220 11.372627
55.225 11.557978
55.230 11.709424
55.235 11.399594
55.240 11.251919
55.245 11.146751
55.250 10.956001
55.255 10.885578
55.260 10.913828
55.265 10.648737
55.270 10.719485
55.275 10.559008
55.280 10.098156
55.285 10.000633
55.290 10.016656
55.295 10.002564
55.300 10.306932
55.305 10.113431
55.310 10.138778
55.315 10.305957
55.320 10.421435
55.325 10.219939
55.330 10.603529
55.335 10.796573
55.340 10.823018
55.345 10.946549
55.350 11.503101
55.355 11.747011
55.360 11.851729
55.365 11.342559
55.370 11.69351
55.375 12.242068
55.380 12.181062
55.385 12.268632
55.390 12.761617
55.395 13.089411
55.400 13.181003
55.405 12.953313
55.410 12.915954
55.415 12.679789
55.420 12.161532
55.425 11.228786
55.430 10.558525
55.435 10.497356
55.440 10.155534
55.445 9.954115
55.450 10.287021
55.455 10.302318
55.460 10.39267
55.465 10.412126
55.470 10.669641
55.475 11.006806
55.480 10.928201
55.485 10.528298
55.490 11.006309
55.495 12.190951
55.500 12.349236
55.505 11.916944
55.510 11.769798
55.515 11.975965
55.520 11.935819
55.525 11.342989
55.530 10.350028
55.535 10.245207
55.540 10.431045
55.545 10.287062
55.550 10.683125
55.555 11.061536
55.560 10.961467
55.565 11.227287
55.570 11.360956
55.575 11.484869
55.580 11.576007
55.585 11.531239
55.590 11.385768
55.595 11.340418
55.600 11.594691
55.605 11.616646
55.610 11.532759
55.615 11.217452
55.620 11.000079
55.625 11.083465
55.630 11.011361
55.635 10.722054
55.640 10.853018
55.645 11.286208
55.650 11.850623
55.655 11.908912
55.660 12.206699
55.665 12.40285
55.670 12.116107
55.675 11.962478
55.680 11.559238
55.685 11.396025
55.690 11.431607
55.695 11.28218
55.700 11.637227
55.705 11.971053
55.710 11.874351
55.715 11.836109
55.720 11.898152
55.725 11.874203
55.730 11.724182
55.735 11.378913
55.740 11.222637
55.745 10.965089
55.750 11.036886
55.755 10.78518
55.760 10.678144
55.765 10.647854
55.770 10.605891
55.775 10.497919
55.780 10.776777
55.785 10.877607
55.790 10.587617
55.795 10.350163
55.800 10.778734
55.805 11.035299
55.810 11.524026
55.815 11.351813
55.820 11.488419
55.825 12.105258
55.830 12.421309
55.835 12.495914
55.840 12.631721
55.845 12.931367
55.850 13.083592
55.855 12.480712
55.860 12.124154
55.865 11.99052
55.870 11.702564
55.875 11.498534
55.880 10.784615
55.885 11.129475
55.890 11.703413
55.895 12.01548
55.900 12.227486
55.905 11.795541
55.910 11.663304
55.915 11.758577
55.920 11.72336
55.925 11.320218
55.930 10.907643
55.935 10.771008
55.940 11.215819
55.945 11.362719
55.950 11.404349
55.955 11.48365
55.960 11.778421
55.965 11.785677
55.970 11.897594
55.975 11.759139
55.980 12.005258
55.985 11.877815
55.990 11.429613
55.995 11.668046
56.000 11.566624
56.005 11.877252
56.010 11.837683
56.015 11.249415
56.020 11.42809
56.025 11.336157
56.030 10.953105
56.035 11.205343
56.040 11.558921
56.045 12.068864
56.050 12.380301
56.055 12.08432
56.060 12.796773
56.065 13.351373
56.070 13.379653
56.075 12.504402
56.080 12.172573
56.085 12.108819
56.090 12.487152
56.095 12.036641
56.100 11.855655
56.105 12.038927
56.110 12.712886
56.115 13.437672
56.120 13.372175
56.125 13.092993
56.130 13.141229
56.135 13.181451
56.140 13.040402
56.145 12.278835
56.150 11.993403
56.155 12.162531
56.160 12.567717
56.165 12.327861
56.170 12.025373
56.175 11.790404
56.180 11.801763
56.185 11.55552
56.190 11.571685
56.195 11.307856
56.200 11.449678
56.205 11.556261
56.210 12.023436
56.215 12.282743
56.220 12.370326
56.225 12.641925
56.230 12.924523
56.235 13.327135
56.240 13.236418
56.245 13.179545
56.250 13.140241
56.255 13.112091
56.260 13.065089
56.265 12.774487
56.270 12.65047
56.275 12.943559
56.280 12.9326
56.285 12.906229
56.290 12.942284
56.295 12.441075
56.300 12.072088
56.305 12.05143
56.310 11.948703
56.315 11.680806
56.320 11.339589
56.325 11.498753
56.330 11.967536
56.335 12.004399
56.340 11.84803
56.345 12.141669
56.350 12.69134
56.355 12.856016
56.360 12.408673
56.365 12.675432
56.370 12.646023
56.375 11.831325
56.380 11.480386
56.385 11.550223
56.390 11.270336
56.395 11.32808
56.400 11.318335
56.405 11.804057
56.410 12.251887
56.415 11.940048
56.420 11.468296
56.425 11.735371
56.430 11.709518
56.435 11.836893
56.440 11.742635
56.445 11.751479
56.450 11.870654
56.455 12.137536
56.460 12.199471
56.465 11.908398
56.470 11.687818
56.475 11.804445
56.480 11.676628
56.485 11.474286
56.490 11.393021
56.495 11.731471
56.500 12.070837
56.505 12.411869
56.510 12.524939
56.515 12.638071
56.520 13.124169
56.525 13.537355
56.530 13.737281
56.535 13.887946
56.540 13.459577
56.545 13.355387
56.550 13.297616
56.555 13.001184
56.560 13.266419
56.565 12.93929
56.570 12.839842
56.575 12.486171
56.580 12.390323
56.585 12.446787
56.590 12.25233
56.595 11.84028
56.600 11.571869
56.605 11.651339
56.610 12.113461
56.615 11.83378
56.620 11.690279
56.625 11.370435
56.630 10.884415
56.635 10.878523
56.640 10.767778
56.645 10.702362
56.650 11.526766
56.655 12.083798
56.660 12.651595
56.665 12.62451
56.670 12.363584
56.675 12.6399
56.680 12.929602
56.685 12.692776
56.690 12.721704
56.695 12.169634
56.700 12.942769
56.705 13.380829
56.710 13.239895
56.715 13.084143
56.720 12.774048
56.725 12.869024
56.730 13.451787
56.735 13.155386
56.740 12.628206
56.745 12.216105
56.750 11.825334
56.755 11.702085
56.760 11.690765
56.765 11.833593
56.770 12.026393
56.775 12.248329
56.780 12.514177
56.785 12.777514
56.790 12.993039
56.795 12.925069
56.800 12.397222
56.805 12.54357
56.810 13.297438
56.815 13.767805
56.820 13.742389
56.825 13.287164
56.830 13.092071
56.835 13.033298
56.840 12.807306
56.845 12.666224
56.850 12.387321
56.855 12.597256
56.860 12.720303
56.865 12.942416
56.870 13.152525
56.875 13.177042
56.880 12.770874
56.885 12.326924
56.890 12.204873
56.895 12.315441
56.900 12.262569
56.905 12.579597
56.910 12.395437
56.915 12.397873
56.920 12.62913
56.925 12.837494
56.930 13.034853
56.935 13.320262
56.940 13.340541
56.945 13.230678
56.950 12.772623
56.955 12.696884
56.960 12.588401
56.965 12.228336
56.970 11.625521
56.975 11.558021
56.980 12.06847
56.985 13.000345
56.990 13.33062
56.995 13.432406
57.000 13.98499
57.005 14.399928
57.010 14.350896
57.015 14.428792
57.020 14.240447
57.025 14.157607
57.030 13.806371
57.035 13.709093
57.040 13.548958
57.045 13.246111
57.050 13.356353
57.055 13.238976
57.060 12.626088
57.065 12.559215
57.070 12.42552
57.075 12.92367
57.080 12.889958
57.085 12.805325
57.090 13.343819
57.095 14.400394
57.100 14.797697
57.105 14.641939
57.110 13.879428
57.115 13.397822
57.120 12.999347
57.125 12.619063
57.130 12.210194
57.135 12.157029
57.140 12.465689
57.145 12.768785
57.150 13.204066
57.155 13.741295
57.160 14.125174
57.165 14.246536
57.170 14.310149
57.175 14.75026
57.180 15.679443
57.185 15.47858
57.190 15.059984
57.195 15.260493
57.200 15.446485
57.205 15.531226
57.210 15.284764
57.215 14.509361
57.220 15.139609
57.225 15.427911
57.230 14.81568
57.235 14.429729
57.240 14.389915
57.245 14.716529
57.250 14.694249
57.255 14.392897
57.260 14.358361
57.265 14.948116
57.270 15.399646
57.275 15.390725
57.280 15.064029
57.285 14.937993
57.290 14.930742
57.295 14.336246
57.300 13.763151
57.305 13.573384
57.310 13.332651
57.315 13.378419
57.320 13.774319
57.325 14.170484
57.330 15.036274
57.335 15.103684
57.340 15.260356
57.345 16.103498
57.350 16.841526
57.355 16.550903
57.360 15.861395
57.365 15.393867
57.370 15.493555
57.375 15.960057
57.380 15.548563
57.385 15.257303
57.390 15.450325
57.395 15.406722
57.400 15.104154
57.405 14.980536
57.410 14.219704
57.415 14.153371
57.420 14.209443
57.425 14.833182
57.430 15.093396
57.435 14.975695
57.440 14.861164
57.445 14.816004
57.450 14.715792
57.455 14.736952
57.460 14.460259
57.465 14.646495
57.470 15.160647
57.475 15.290689
57.480 15.510908
57.485 15.735555
57.490 15.03908
57.495 14.833863
57.500 14.531847
57.505 14.337116
57.510 13.548278
57.515 13.137375
57.520 13.219361
57.525 13.234557
57.530 13.425968
57.535 13.467133
57.540 13.487923
57.545 13.774767
57.550 13.626451
57.555 13.401414
57.560 14.144012
57.565 14.417483
57.570 14.650786
57.575 14.532941
57.580 14.709603
57.585 14.969183
57.590 14.490225
57.595 13.964536
57.600 13.76942
57.605 13.59864
57.610 13.428286
57.615 13.040871
57.620 13.123367
57.625 13.292304
57.630 13.273126
57.635 13.505817
57.640 13.861592
57.645 14.082412
57.650 14.453708
57.655 15.080728
57.660 14.980736
57.665 14.677104
57.670 14.572968
57.675 14.10635
57.680 14.300337
57.685 14.127094
57.690 13.617642
57.695 13.697771
57.700 13.822426
57.705 13.61403
57.710 14.191741
57.715 14.937396
57.720 15.147522
57.725 15.185985
57.730 15.144742
57.735 15.10002
57.740 15.207007
57.745 15.10008
57.750 14.969848
57.755 15.243979
57.760 15.251126
57.765 15.708995
57.770 15.80254
57.775 16.316557
57.780 16.412294
57.785 16.125385
57.790 15.885242
57.795 16.180746
57.800 16.132813
57.805 16.340694
57.810 16.259285
57.815 16.270397
57.820 16.395182
57.825 16.188681
57.830 15.626545
57.835 15.24232
57.840 15.128781
57.845 14.496322
57.850 14.045454
57.855 13.964062
57.860 14.523438
57.865 14.968912
57.870 15.180243
57.875 14.781648
57.880 15.4154
57.885 15.880676
57.890 15.917387
57.895 15.347431
57.900 15.124917
57.905 15.554688
57.910 16.118422
57.915 16.249325
57.920 16.188082
57.925 16.104586
57.930 16.231607
57.935 16.224911
57.940 15.704825
57.945 15.611712
57.950 14.963975
57.955 14.698215
57.960 14.844652
57.965 15.219664
57.970 15.737833
57.975 16.692711
57.980 16.947424
57.985 17.183273
57.990 17.181572
57.995 16.791801
58.000 16.567636
58.005 16.297276
58.010 15.965395
58.015 15.690841
58.020 15.664664
58.025 15.958056
58.030 16.498503
58.035 17.179514
58.040 17.740503
58.045 17.352108
58.050 17.203497
58.055 17.576004
58.060 17.279102
58.065 17.023418
58.070 16.483568
58.075 16.395798
58.080 16.963692
58.085 17.574987
58.090 17.73568
58.095 17.698702
58.100 17.195309
58.105 17.036791
58.110 16.998831
58.115 17.338285
58.120 17.395969
58.125 16.978413
58.130 17.271282
58.135 18.033577
58.140 18.746769
58.145 18.645073
58.150 18.030426
58.155 17.884361
58.160 18.302778
58.165 18.743269
58.170 18.580959
58.175 17.909859
58.180 17.558945
58.185 17.768921
58.190 17.822824
58.195 17.980179
58.200 17.428886
58.205 17.224449
58.210 17.590183
58.215 17.6572
58.220 17.027138
58.225 16.304665
58.230 16.206451
58.235 16.36318
58.240 16.902079
58.245 17.069981
58.250 17.524677
58.255 18.221317
58.260 18.814789
58.265 19.164387
58.270 19.037443
58.275 18.446182
58.280 18.172495
58.285 18.361073
58.290 18.340652
58.295 18.676849
58.300 18.558138
58.305 18.693813
58.310 19.544807
58.315 19.619553
58.320 19.304535
58.325 19.217819
58.330 18.96299
58.335 19.501457
58.340 20.477503
58.345 20.836765
58.350 21.202734
58.355 21.510698
58.360 21.767614
58.365 21.793076
58.370 21.958109
58.375 21.672735
58.380 21.003794
58.385 21.037678
58.390 20.533657
58.395 20.986326
58.400 21.738462
58.405 21.3578
58.410 21.426735
58.415 21.366468
58.420 21.263659
58.425 22.102501
58.430 21.910217
58.435 21.700092
58.440 21.985954
58.445 22.16791
58.450 22.598282
58.455 23.122849
58.460 23.147354
58.465 23.017683
58.470 22.984842
58.475 22.677126
58.480 22.719334
58.485 23.454418
58.490 23.693523
58.495 23.376625
58.500 23.233351
58.505 23.223822
58.510 23.811207
58.515 23.666975
58.520 23.04076
58.525 22.902752
58.530 23.139084
58.535 23.361977
58.540 22.82551
58.545 22.57387
58.550 22.228437
58.555 21.961309
58.560 21.974756
58.565 21.865641
58.570 22.13872
58.575 22.40773
58.580 22.204224
58.585 22.736761
58.590 22.880558
58.595 22.887707
58.600 23.021475
58.605 22.688032
58.610 22.442745
58.615 22.911619
58.620 22.919056
58.625 23.435228
58.630 23.313257
58.635 23.255192
58.640 23.055986
58.645 23.228636
58.650 22.70677
58.655 22.335159
58.660 22.119507
58.665 22.347631
58.670 21.861252
58.675 21.608877
58.680 21.399441
58.685 21.412502
58.690 21.434126
58.695 22.074902
58.700 22.242054
58.705 22.271873
58.710 22.985546
58.715 23.610136
58.720 23.490425
58.725 23.520939
58.730 22.79295
58.735 23.06139
58.740 22.9974
58.745 22.763493
58.750 22.709202
58.755 23.006483
58.760 22.983841
58.765 23.698305
58.770 23.811403
58.775 23.949787
58.780 23.750547
58.785 23.394312
58.790 23.147799
58.795 23.215006
58.800 22.529701
58.805 22.069931
58.810 21.852877
58.815 21.603792
58.820 21.961508
58.825 21.98839
58.830 21.695175
58.835 20.862513
58.840 20.861475
58.845 21.878286
58.850 22.112734
58.855 22.038704
58.860 22.437923
58.865 22.29933
58.870 22.581915
58.875 22.965801
58.880 22.237507
58.885 22.429945
58.890 22.141281
58.895 21.740067
58.900 22.009432
58.905 21.589493
58.910 21.11672
58.915 21.383854
58.920 21.215952
58.925 20.96084
58.930 21.455477
58.935 21.73373
58.940 22.267113
58.945 22.436293
58.950 22.231283
58.955 22.710218
58.960 22.739798
58.965 22.37462
58.970 22.237734
58.975 22.409962
58.980 22.116966
58.985 21.973263
58.990 21.818638
58.995 22.026407
59.000 21.593679
59.005 21.323406
59.010 21.976994
59.015 21.900026
59.020 21.722874
59.025 21.519547
59.030 21.666418
59.035 22.127073
59.040 22.258013
59.045 21.926443
59.050 21.675741
59.055 21.153526
59.060 20.650108
59.065 20.629204
59.070 20.476082
59.075 19.713873
59.080 19.447384
59.085 19.42135
59.090 19.798868
59.095 19.536236
59.100 19.014963
59.105 18.788195
59.110 18.45158
59.115 17.909908
59.120 18.024967
59.125 18.145704
59.130 18.992588
59.135 19.199837
59.140 19.206379
59.145 19.419924
59.150 19.531897
59.155 19.493979
59.160 19.027561
59.165 18.343658
59.170 18.393124
59.175 18.646698
59.180 18.920824
59.185 19.20368
59.190 19.588755
59.195 19.519871
59.200 19.370628
59.205 19.179337
59.210 19.341692
59.215 19.101761
59.220 18.573053
59.225 18.675671
59.230 18.76071
59.235 18.997066
59.240 18.851313
59.245 18.938442
59.250 18.921099
59.255 18.75716
59.260 17.977135
59.265 17.379765
59.270 17.3351
59.275 17.441242
59.280 16.867407
59.285 16.428534
59.290 16.732464
59.295 17.231482
59.300 17.279791
59.305 16.914591
59.310 16.716331
59.315 16.942385
59.320 17.058363
59.325 17.17922
59.330 17.423538
59.335 17.745035
59.340 18.051834
59.345 17.851408
59.350 18.013931
59.355 18.270777
59.360 18.039768
59.365 17.765453
59.370 17.784689
59.375 17.966463
59.380 18.16111
59.385 18.65885
59.390 19.480324
59.395 19.919815
59.400 20.176386
59.405 19.933937
59.410 19.208641
59.415 18.971231
59.420 18.89538
59.425 17.927092
59.430 17.987926
59.435 17.946344
59.440 18.114897
59.445 18.225367
59.450 17.806435
59.455 17.334223
59.460 17.479757
59.465 17.124279
59.470 16.995998
59.475 16.927332
59.480 17.1453
59.485 17.25444
59.490 17.212103
59.495 16.416536
59.500 15.917114
59.505 15.850883
59.510 15.463201
59.515 15.468114
59.520 15.148062
59.525 15.023177
59.530 15.607024
59.535 16.036825
59.540 16.600075
59.545 17.457663
59.550 17.907845
59.555 18.43663
59.560 18.534311
59.565 18.787161
59.570 18.710993
59.575 18.154366
59.580 17.44594
59.585 16.839279
59.590 16.850256
59.595 16.905579
59.600 16.898876
59.605 17.270166
59.610 17.348299
59.615 17.651714
59.620 17.911842
59.625 17.78076
59.630 17.568989
59.635 17.047739
59.640 16.363008
59.645 16.630861
59.650 16.816387
59.655 16.602352
59.660 16.144197
59.665 15.931655
59.670 15.859377
59.675 16.071012
59.680 15.842845
59.685 15.749747
59.690 16.06851
59.695 16.612913
59.700 16.876148
59.705 17.058184
59.710 17.030979
59.715 17.133848
59.720 17.185701
59.725 17.104584
59.730 17.029053
59.735 17.28443
59.740 17.543194
59.745 17.866127
59.750 17.690184
59.755 17.57383
59.760 17.519175
59.765 17.471292
59.770 17.030106
59.775 16.683832
59.780 16.759874
59.785 16.713209
59.790 16.487576
59.795 16.484455
59.800 16.544722
59.805 17.098166
59.810 17.458199
59.815 18.287756
59.820 18.80065
59.825 19.037756
59.830 18.970652
59.835 18.233614
59.840 17.157698
59.845 16.453117
59.850 15.728947
59.855 15.758489
59.860 15.602199
59.865 15.455923
59.870 16.072186
59.875 16.944973
59.880 17.446833
59.885 16.959183
59.890 16.448795
59.895 16.163521
59.900 16.018702
59.905 15.97146
59.910 15.183328
59.915 15.08067
59.920 15.611536
59.925 15.585319
59.930 15.678798
59.935 15.543788
59.940 15.272118
59.945 15.513064
59.950 15.473708
59.955 15.506242
59.960 15.830963
59.965 15.751544
59.970 16.034746
59.975 15.960162
59.980 15.870465
59.985 15.941265
59.990 15.950006
59.995 16.126259
60.000 16.885118
60.005 16.732231
60.010 16.621105
60.015 16.430513
60.020 15.917712
60.025 16.050407
60.030 15.621923
60.035 15.263013
60.040 15.257308
60.045 15.730375
60.050 15.905684
60.055 15.988749
60.060 15.505357
60.065 15.330026
60.070 15.684041
60.075 15.911189
60.080 15.432369
60.085 15.277483
60.090 15.172437
60.095 15.889244
60.100 15.959314
60.105 15.234204
60.110 15.311392
60.115 15.672812
60.120 16.305227
60.125 16.513702
60.130 16.434063
60.135 16.511589
60.140 16.943705
60.145 17.041815
60.150 17.099667
60.155 16.753738
60.160 16.946486
60.165 16.622799
60.170 16.536917
60.175 16.380606
60.180 16.088619
60.185 16.189169
60.190 16.644939
60.195 16.510738
60.200 16.493576
60.205 16.266764
60.210 16.077274
60.215 16.057312
60.220 15.983993
60.225 15.420003
60.230 14.992589
60.235 15.119596
60.240 15.190807
60.245 15.458117
60.250 14.882541
60.255 14.349144
60.260 14.618379
60.265 14.783057
60.270 14.622217
60.275 14.416533
60.280 14.362069
60.285 14.820531
60.290 15.08716
60.295 15.001706
60.300 15.050329
60.305 14.923123
60.310 15.334064
60.315 15.288527
60.320 15.306752
60.325 15.779831
60.330 15.845372
60.335 15.997234
60.340 16.358765
60.345 16.673546
60.350 16.772715
60.355 16.631039
60.360 16.821405
60.365 16.49115
60.370 16.213337
60.375 15.797845
60.380 15.28535
60.385 15.41495
60.390 15.37872
60.395 15.175035
60.400 15.724674
60.405 16.226437
60.410 16.34836
60.415 16.34152
60.420 16.754913
60.425 16.850683
60.430 16.579453
60.435 16.2061
60.440 15.460145
60.445 15.964139
60.450 15.95469
60.455 15.256218
60.460 14.961776
60.465 15.10212
60.470 15.591161
60.475 16.050522
60.480 15.650794
60.485 15.452216
60.490 15.703617
60.495 15.603902
60.500 14.977109
60.505 15.079534
60.510 15.193297
60.515 15.287408
60.520 15.972831
60.525 15.971751
60.530 16.411112
60.535 16.35133
60.540 16.07959
60.545 16.201506
60.550 15.734218
60.555 15.243374
60.560 15.430786
60.565 15.294405
60.570 15.708909
60.575 15.400885
60.580 15.442877
60.585 16.197927
60.590 16.243044
60.595 15.847846
60.600 15.820583
60.605 15.617495
60.610 15.458788
60.615 15.238357
60.620 14.773891
60.625 15.172153
60.630 15.746428
60.635 15.645358
60.640 15.944357
60.645 16.8403
60.650 16.950911
60.655 17.06649
60.660 16.886877
60.665 17.036001
60.670 17.150995
60.675 16.839161
60.680 16.298058
60.685 16.074942
60.690 15.655474
60.695 15.615802
60.700 15.19785
60.705 15.422705
60.710 16.071287
60.715 15.979963
60.720 15.967867
60.725 16.342819
60.730 16.371363
60.735 16.5063
60.740 16.248518
60.745 15.902558
60.750 16.020847
60.755 15.826003
60.760 15.267966
60.765 15.126521
60.770 15.292739
60.775 15.035939
60.780 15.123351
60.785 15.633645
60.790 16.122974
60.795 16.611916
60.800 17.081608
60.805 16.805374
60.810 17.340242
60.815 16.76553
60.820 16.029083
60.825 15.749836
60.830 15.79762
60.835 15.750814
60.840 15.554734
60.845 15.338595
60.850 16.133934
60.855 16.658958
60.860 16.905428
60.865 16.663496
60.870 16.271671
60.875 16.361746
60.880 16.17613
60.885 15.344809
60.890 14.876953
60.895 14.564316
60.900 14.009189
60.905 14.309448
60.910 14.654692
60.915 15.281627
60.920 15.77731
60.925 15.938822
60.930 16.270767
60.935 16.67277
60.940 16.775288
60.945 16.656971
60.950 16.003883
60.955 15.720078
60.960 15.520953
60.965 15.488972
60.970 15.459754
60.975 14.794715
60.980 14.730239
60.985 14.96664
60.990 15.276746
60.995 15.539555
61.000 15.221439
61.005 15.252937
61.010 15.470987
61.015 15.719275
61.020 16.189283
61.025 16.228897
61.030 16.225857
61.035 16.731213
61.040 17.419189
61.045 17.323364
61.050 17.121735
61.055 16.443888
61.060 16.183039
61.065 15.905884
61.070 15.338804
61.075 14.861947
61.080 15.481795
61.085 15.481199
61.090 16.168163
61.095 16.548815
61.100 17.378216
61.105 17.307693
61.110 17.151112
61.115 16.408159
61.120 15.842897
61.125 15.259026
61.130 14.645088
61.135 14.27623
61.140 14.47382
61.145 14.850913
61.150 15.738934
61.155 16.22023
61.160 16.573868
61.165 16.735464
61.170 16.821201
61.175 16.765533
61.180 16.129057
61.185 15.641457
61.190 15.621407
61.195 16.013792
61.200 16.17993
61.205 16.736225
61.210 16.981426
61.215 17.191532
61.220 17.177399
61.225 17.095963
61.230 16.960255
61.235 16.70841
61.240 16.35618
61.245 16.307739
61.250 16.456152
61.255 16.38876
61.260 16.849972
61.265 17.26557
61.270 17.300859
61.275 16.995378
61.280 16.93701
61.285 16.759859
61.290 16.833336
61.295 16.609999
61.300 16.270899
61.305 16.262711
61.310 16.005951
61.315 16.181643
61.320 17.003088
61.325 17.479267
61.330 17.130615
61.335 17.128853
61.340 17.398565
61.345 17.769909
61.350 17.528351
61.355 17.112253
61.360 16.89987
61.365 17.328032
61.370 17.115852
61.375 16.711843
61.380 16.490616
61.385 16.26148
61.390 16.067442
61.395 15.959536
61.400 15.563541
61.405 15.038299
61.410 15.610112
61.415 15.741619
61.420 15.725776
61.425 15.856153
61.430 15.812146
61.435 16.009771
61.440 16.739611
61.445 17.209911
61.450 17.351053
61.455 17.48247
61.460 17.099163
61.465 17.414679
61.470 17.278334
61.475 16.79619
61.480 16.203356
61.485 16.064436
61.490 16.611879
61.495 16.779297
61.500 16.051643
61.505 16.471205
61.510 16.692478
61.515 16.444437
61.520 16.643248
61.525 16.550337
61.530 16.715469
61.535 17.032999
61.540 16.350853
61.545 16.312468
61.550 16.948893
61.555 16.505655
61.560 16.338579
61.565 16.237274
61.570 16.299618
61.575 16.789368
61.580 16.748283
61.585 16.088886
61.590 15.913401
61.595 15.5334
61.600 15.270189
61.605 15.48615
61.610 15.852081
61.615 15.981864
61.620 15.975682
61.625 16.656408
61.630 16.919079
61.635 17.402651
61.640 17.62188
61.645 17.092407
61.650 16.66205
61.655 16.888391
61.660 16.663467
61.665 16.9349
61.670 16.633879
61.675 16.526142
61.680 17.244942
61.685 17.623529
61.690 18.043505
61.695 18.045053
61.700 17.866507
61.705 17.658834
61.710 16.95944
61.715 16.081751
61.720 16.161327
61.725 16.013662
61.730 16.426598
61.735 16.542084
61.740 16.571758
61.745 16.850988
61.750 17.553978
61.755 17.304165
61.760 17.377329
61.765 17.412519
61.770 17.792658
61.775 17.65136
61.780 17.856102
61.785 17.666403
61.790 17.626011
61.795 16.914509
61.800 16.452183
61.805 16.692038
61.810 17.489189
61.815 17.72789
61.820 17.351465
61.825 17.536747
61.830 17.636162
61.835 17.700607
61.840 16.985338
61.845 16.698584
61.850 16.78269
61.855 16.923367
61.860 16.989735
61.865 17.377758
61.870 17.577847
61.875 17.923803
61.880 17.754778
61.885 17.56562
61.890 17.373222
61.895 17.189882
61.900 16.966549
61.905 16.627214
61.910 16.606512
61.915 16.422447
61.920 16.167324
61.925 16.071648
61.930 15.947423
61.935 15.875963
61.940 16.051554
61.945 16.111769
61.950 16.202295
61.955 16.325212
61.960 16.770144
61.965 16.539623
61.970 16.6721
61.975 16.858761
61.980 16.294312
61.985 16.062328
61.990 15.451267
61.995 15.049322
62.000 15.393617
62.005 15.509558
62.010 15.041384
62.015 15.295608
62.020 15.094449
62.025 15.48455
62.030 15.656701
62.035 15.197941
62.040 14.968521
62.045 15.249523
62.050 15.334897
62.055 15.767399
62.060 16.441425
62.065 16.783266
62.070 17.58708
62.075 17.329693
62.080 17.572744
62.085 17.614805
62.090 17.786896
62.095 16.912472
62.100 16.78282
62.105 16.235338
62.110 16.272171
62.115 15.784065
62.120 16.139227
62.125 15.963805
62.130 16.137831
62.135 16.083828
62.140 15.816368
62.145 15.690899
62.150 15.513899
62.155 14.806733
62.160 14.705509
62.165 15.378757
62.170 16.273037
62.175 17.021418
62.180 17.671059
62.185 18.29604
62.190 18.539845
62.195 18.714682
62.200 17.918156
62.205 17.417944
62.210 16.881798
62.215 15.931915
62.220 15.616141
62.225 15.864617
62.230 15.518106
62.235 15.852155
62.240 15.779337
62.245 15.665968
62.250 15.916501
62.255 16.061403
62.260 16.078804
62.265 15.871176
62.270 15.28717
62.275 15.029693
62.280 15.146626
62.285 15.257116
62.290 14.998303
62.295 15.008166
62.300 14.911132
62.305 14.731907
62.310 14.672915
62.315 14.598479
62.320 14.58068
62.325 14.159456
62.330 13.850017
62.335 14.354385
62.340 14.641605
62.345 14.486405
62.350 14.367233
62.355 14.327658
62.360 15.024514
62.365 14.999553
62.370 15.502699
62.375 15.607743
62.380 15.634503
62.385 15.761604
62.390 15.984553
62.395 16.008972
62.400 16.548388
62.405 16.117739
62.410 16.63637
62.415 17.049107
62.420 16.864853
62.425 16.856215
62.430 16.575209
62.435 16.14187
62.440 15.868327
62.445 15.568147
62.450 15.513564
62.455 15.726997
62.460 15.59252
62.465 15.658248
62.470 15.591866
62.475 15.813547
62.480 16.017445
62.485 16.739223
62.490 16.912279
62.495 16.784967
62.500 16.597404
62.505 16.356688
62.510 15.526945
62.515 14.965028
62.520 14.456347
62.525 14.483363
62.530 14.957244
62.535 15.358356
62.540 15.911147
62.545 17.092367
62.550 17.435061
62.555 17.277954
62.560 17.23056
62.565 17.00141
62.570 17.207785
62.575 17.22155
62.580 16.563499
62.585 16.692049
62.590 16.622118
62.595 16.810558
62.600 16.704906
62.605 16.477007
62.610 16.642267
62.615 16.993015
62.620 17.006622
62.625 16.798676
62.630 16.243683
62.635 16.127174
62.640 15.728345
62.645 15.41463
62.650 15.778808
62.655 15.94082
62.660 15.807631
62.665 15.519995
62.670 16.012388
62.675 16.536022
62.680 16.255331
62.685 15.534279
62.690 15.774053
62.695 16.099424
62.700 16.837217
62.705 16.403608
62.710 16.099718
62.715 16.408314
62.720 16.506401
62.725 16.292412
62.730 16.371422
62.735 16.179724
62.740 16.053995
62.745 16.64229
62.750 16.879957
62.755 17.062683
62.760 16.788677
62.765 17.355944
62.770 17.839609
62.775 17.987064
62.780 17.707407
62.785 17.802414
62.790 17.902885
62.795 18.377754
62.800 18.084282
62.805 18.668089
62.810 19.214228
62.815 19.044893
62.820 18.657312
62.825 18.421125
62.830 18.500589
62.835 18.427076
62.840 17.358934
62.845 17.43997
62.850 17.659781
62.855 17.786337
62.860 18.017302
62.865 17.750513
62.870 17.604702
62.875 17.850277
62.880 17.109215
62.885 16.723597
62.890 16.861692
62.895 16.826153
62.900 16.757236
62.905 16.964495
62.910 17.145023
62.915 17.293581
62.920 17.877678
62.925 17.922047
62.930 17.623003
62.935 17.337469
62.940 16.960354
62.945 16.32749
62.950 16.159399
62.955 15.706079
62.960 15.963494
62.965 16.177078
62.970 16.394321
62.975 16.626345
62.980 17.036661
62.985 16.932035
62.990 17.204033
62.995 17.16457
63.000 17.155188
63.005 17.652988
63.010 17.896214
63.015 17.887276
63.020 18.736189
63.025 18.717508
63.030 18.575184
63.035 18.343821
63.040 17.885708
63.045 18.472687
63.050 18.563814
63.055 17.942146
63.060 17.805927
63.065 17.885933
63.070 18.144033
63.075 18.181646
63.080 17.668436
63.085 17.580687
63.090 17.171711
63.095 16.819952
63.100 16.804979
63.105 16.535198
63.110 16.303101
63.115 16.419735
63.120 16.456007
63.125 17.426872
63.130 17.984209
63.135 17.529659
63.140 17.111845
63.145 16.967541
63.150 16.134621
63.155 15.958446
63.160 15.636156
63.165 15.669067
63.170 15.921051
63.175 16.445557
63.180 16.571571
63.185 17.118382
63.190 17.433941
63.195 17.336765
63.200 16.928282
63.205 17.086246
63.210 17.185345
63.215 17.198582
63.220 16.908958
63.225 16.740288
63.230 17.080545
63.235 17.442219
63.240 17.575346
63.245 17.2847
63.250 17.377855
63.255 17.947512
63.260 17.866541
63.265 17.454678
63.270 17.151991
63.275 17.199205
63.280 17.911985
63.285 18.113054
63.290 17.687166
63.295 17.582899
63.300 17.692158
63.305 18.189392
63.310 18.429247
63.315 18.301929
63.320 18.521681
63.325 18.48313
63.330 18.129215
63.335 18.184435
63.340 17.965452
63.345 17.598063
63.350 17.454311
63.355 17.648201
63.360 18.539122
63.365 19.446865
63.370 19.469645
63.375 19.301567
63.380 19.545259
63.385 19.569317
63.390 18.584909
63.395 18.223721
63.400 17.804642
63.405 17.740158
63.410 17.613155
63.415 17.453596
63.420 17.550962
63.425 18.486305
63.430 18.507992
63.435 18.538374
63.440 18.371454
63.445 18.618364
63.450 18.623268
63.455 18.897543
63.460 18.647474
63.465 18.659193
63.470 18.724804
63.475 18.419683
63.480 18.295458
63.485 18.632008
63.490 18.650993
63.495 18.959789
63.500 18.870537
63.505 18.715876
63.510 19.208876
63.515 19.33814
63.520 19.026014
63.525 18.89234
63.530 18.248047
63.535 19.043991
63.540 19.511288
63.545 19.047293
63.550 18.83337
63.555 18.633038
63.560 18.790649
63.565 19.517759
63.570 18.615456
63.575 18.64049
63.580 18.69409
63.585 18.777939
63.590 19.532755
63.595 19.520128
63.600 18.946815
63.605 19.240147
63.610 19.18689
63.615 20.169003
63.620 20.106934
63.625 19.765095
63.630 19.647768
63.635 19.544794
63.640 19.568285
63.645 19.704018
63.650 19.029682
63.655 18.764702
63.660 19.033457
63.665 19.420786
63.670 19.537157
63.675 19.526342
63.680 19.390633
63.685 19.716337
63.690 20.238543
63.695 19.906939
63.700 19.611702
63.705 19.475843
63.710 19.377409
63.715 19.741869
63.720 19.358421
63.725 19.211475
63.730 19.261913
63.735 19.263723
63.740 19.624454
63.745 19.424744
63.750 18.992147
63.755 19.227087
63.760 19.415432
63.765 19.405371
63.770 19.620058
63.775 19.764883
63.780 20.409096
63.785 20.963661
63.790 21.190115
63.795 21.336586
63.800 21.548237
63.805 22.107685
63.810 22.641911
63.815 22.948627
63.820 22.189615
63.825 22.118309
63.830 22.350931
63.835 22.406748
63.840 22.241447
63.845 21.782433
63.850 21.400537
63.855 21.634235
63.860 21.479408
63.865 21.428522
63.870 21.351116
63.875 20.968538
63.880 21.266321
63.885 21.572582
63.890 22.536907
63.895 23.03536
63.900 22.868074
63.905 23.464619
63.910 23.667089
63.915 23.432501
63.920 23.207876
63.925 22.95384
63.930 22.962101
63.935 23.116528
63.940 23.032328
63.945 23.51737
63.950 23.658512
63.955 23.739401
63.960 23.613306
63.965 23.376394
63.970 23.411032
63.975 23.114283
63.980 22.302086
63.985 22.141834
63.990 22.217289
63.995 22.434126
64.000 22.940464
64.005 23.454185
64.010 24.303577
64.015 25.715956
64.020 26.573547
64.025 27.453663
64.030 27.75976
64.035 27.494305
64.040 27.384518
64.045 27.477772
64.050 27.38747
64.055 26.95056
64.060 26.674372
64.065 26.376356
64.070 26.517069
64.075 26.393293
64.080 26.040045
64.085 26.360085
64.090 26.374548
64.095 25.911531
64.100 26.335775
64.105 26.473492
64.110 26.744831
64.115 27.530466
64.120 27.157021
64.125 26.865614
64.130 27.390917
64.135 27.131748
64.140 27.62364
64.145 27.709667
64.150 26.723339
64.155 26.058567
64.160 26.657267
64.165 26.372953
64.170 26.580688
64.175 25.419025
64.180 24.832272
64.185 24.65678
64.190 24.351112
64.195 24.063406
64.200 24.10681
64.205 24.556625
64.210 25.345573
64.215 25.262161
64.220 25.859425
64.225 26.888605
64.230 27.086088
64.235 26.641747
64.240 26.207811
64.245 26.037422
64.250 26.635569
64.255 27.479311
64.260 27.478453
64.265 27.61166
64.270 28.057163
64.275 27.729883
64.280 27.927139
64.285 27.70269
64.290 26.421341
64.295 25.473957
64.300 25.164349
64.305 24.97014
64.310 25.59313
64.315 25.522278
64.320 25.325905
64.325 26.159029
64.330 26.673113
64.335 26.767752
64.340 26.634165
64.345 26.038088
64.350 25.688625
64.355 25.882446
64.360 25.069544
64.365 24.758017
64.370 24.488737
64.375 24.443975
64.380 24.620543
64.385 24.695118
64.390 24.675104
64.395 24.182299
64.400 24.119017
64.405 24.672628
64.410 24.241173
64.415 24.052258
64.420 24.013803
64.425 24.320339
64.430 24.506424
64.435 24.548876
64.440 24.487926
64.445 25.01749
64.450 24.701923
64.455 24.953833
64.460 24.394804
64.465 25.549072
64.470 26.165014
64.475 26.502993
64.480 27.06546
64.485 27.928143
64.490 27.697601
64.495 27.961775
64.500 27.610008
64.505 27.174229
64.510 26.641748
64.515 26.046627
64.520 25.554142
64.525 25.271969
64.530 25.188414
64.535 25.022743
64.540 25.32082
64.545 25.085066
64.550 25.602402
64.555 26.323225
64.560 26.577303
64.565 26.123983
64.570 25.990744
64.575 25.816404
64.580 26.045113
64.585 25.879726
64.590 25.288677
64.595 24.89776
64.600 24.834818
64.605 24.528856
64.610 24.458544
64.615 24.846151
64.620 24.222887
64.625 23.983274
64.630 24.675039
64.635 25.169184
64.640 25.425499
64.645 25.587669
64.650 25.421614
64.655 25.303984
64.660 25.503031
64.665 24.820322
64.670 24.452066
64.675 24.28606
64.680 23.978403
64.685 23.282011
64.690 23.084175
64.695 22.864391
64.700 23.664045
64.705 23.88825
64.710 24.00634
64.715 24.369881
64.720 25.186214
64.725 25.688856
64.730 25.656139
64.735 25.111675
64.740 24.646912
64.745 23.776108
64.750 23.381285
64.755 23.177971
64.760 23.269255
64.765 23.570515
64.770 23.15255
64.775 23.191853
64.780 23.189472
64.785 22.827303
64.790 22.563662
64.795 22.500071
64.800 22.294699
64.805 23.307543
64.810 23.003574
64.815 23.04652
64.820 23.351784
64.825 23.630472
64.830 23.084858
64.835 23.16464
64.840 22.475237
64.845 23.00729
64.850 23.567326
64.855 23.430172
64.860 23.354673
64.865 24.143436
64.870 23.932096
64.875 24.119932
64.880 23.755737
64.885 22.999063
64.890 22.411123
64.895 22.054571
64.900 21.904959
64.905 21.948671
64.910 21.648754
64.915 22.036737
64.920 22.123638
64.925 21.687452
64.930 21.531237
64.935 21.674919
64.940 22.015083
64.945 22.564146
64.950 22.311499
64.955 22.627243
64.960 23.128862
64.965 23.984129
64.970 23.967007
64.975 23.655045
64.980 23.037771
64.985 22.757271
64.990 22.766069
64.995 22.840096
65.000 22.029242
65.005 21.972357
65.010 22.526442
65.015 22.558071
65.020 23.353968
65.025 23.847607
65.030 24.169409
65.035 24.161985
65.040 24.360039
65.045 24.296907
65.050 24.776056
65.055 24.562428
65.060 24.835596
65.065 24.441601
65.070 25.117735
65.075 25.362492
65.080 25.339449
65.085 25.158932
65.090 25.065369
65.095 24.732521
65.100 24.708309
65.105 24.938883
65.110 24.618979
65.115 24.487028
65.120 24.125509
65.125 23.654104
65.130 23.186485
65.135 22.719654
65.140 22.17297
65.145 21.920406
65.150 21.92948
65.155 22.838068
65.160 24.069569
65.165 24.567783
65.170 24.615868
65.175 24.130735
65.180 23.656961
65.185 23.206495
65.190 22.264404
65.195 20.728071
65.200 20.230778
65.205 20.566536
65.210 20.852949
65.215 21.026245
65.220 21.365429
65.225 22.227886
65.230 22.693094
65.235 22.535181
65.240 22.284386
65.245 22.579912
65.250 23.026304
65.255 22.374178
65.260 21.291981
65.265 21.444548
65.270 21.780462
65.275 21.545635
65.280 20.94208
65.285 20.424074
65.290 20.746571
65.295 21.746426
65.300 21.939919
65.305 22.062572
65.310 22.19698
65.315 21.824711
65.320 21.887222
65.325 21.777515
65.330 21.14134
65.335 21.088493
65.340 20.972807
65.345 21.574646
65.350 22.497082
65.355 22.536869
65.360 22.603647
65.365 22.479738
65.370 22.933563
65.375 23.244963
65.380 22.947968
65.385 22.760479
65.390 22.712177
65.395 22.964533
65.400 23.042711
65.405 22.214994
65.410 21.887863
65.415 22.109123
65.420 22.191193
65.425 22.638083
65.430 22.667032
65.435 22.846119
65.440 22.531084
65.445 22.153276
65.450 21.713097
65.455 21.874332
65.460 21.735203
65.465 21.380812
65.470 21.215328
65.475 21.80699
65.480 22.721277
65.485 22.844223
65.490 22.289808
65.495 22.280998
65.500 22.575661
65.505 22.633232
65.510 22.759151
65.515 22.386288
65.520 22.473852
65.525 22.680109
65.530 23.183069
65.535 23.857637
65.540 24.275383
65.545 23.955807
65.550 23.365589
65.555 22.937197
65.560 22.924742
65.565 22.232903
65.570 21.520283
65.575 21.136806
65.580 21.635403
65.585 21.551741
65.590 22.603722
65.595 22.615585
65.600 22.661905
65.605 22.511837
65.610 22.586946
65.615 22.312387
65.620 22.883595
65.625 22.482645
65.630 23.037186
65.635 23.137413
65.640 22.809362
65.645 22.333727
65.650 22.749252
65.655 22.794285
65.660 22.798452
65.665 22.541185
65.670 22.600456
65.675 23.109701
65.680 23.624788
65.685 23.347404
65.690 23.125458
65.695 23.398006
65.700 23.212156
65.705 22.921335
65.710 23.313608
65.715 23.543442
65.720 23.653234
65.725 23.714758
65.730 23.751955
65.735 24.49395
65.740 24.410391
65.745 23.657
65.750 24.253452
65.755 24.415012
65.760 23.952017
65.765 23.192783
65.770 23.077162
65.775 23.724312
65.780 24.421988
65.785 24.252619
65.790 24.772285
65.795 25.565632
65.800 26.101473
65.805 26.379202
65.810 26.109884
65.815 26.190407
65.820 26.519613
65.825 26.795786
65.830 27.341528
65.835 28.125843
65.840 28.32972
65.845 29.097149
65.850 29.387697
65.855 29.224268
65.860 29.33062
65.865 29.809278
65.870 29.631168
65.875 29.89484
65.880 29.911118
65.885 29.366056
65.890 29.38612
65.895 28.553261
65.900 27.798687
65.905 27.872702
65.910 28.171545
65.915 28.54635
65.920 28.696075
65.925 29.779682
65.930 30.643488
65.935 31.180708
65.940 31.347956
65.945 31.142988
65.950 32.123192
65.955 33.330605
65.960 33.310394
65.965 33.658279
65.970 33.534081
65.975 33.870628
65.980 33.758461
65.985 32.728577
65.990 32.430389
65.995 32.114712
66.000 31.683119
66.005 31.670109
66.010 32.09391
66.015 32.923374
66.020 33.740902
66.025 34.031528
66.030 34.496223
66.035 35.258839
66.040 35.406746
66.045 35.202991
66.050 34.873604
66.055 34.71711
66.060 34.858368
66.065 35.12672
66.070 35.709293
66.075 36.370235
66.080 36.829853
66.085 37.160072
66.090 36.75433
66.095 36.918537
66.100 37.194496
66.105 36.395145
66.110 35.892601
66.115 36.02029
66.120 36.072723
66.125 37.301201
66.130 36.691467
66.135 37.269066
66.140 37.711254
66.145 38.19239
66.150 37.793892
66.155 37.991795
66.160 37.526608
66.165 38.431408
66.170 38.464855
66.175 38.562759
66.180 38.491417
66.185 39.383526
66.190 39.217052
66.195 38.549057
66.200 38.869747
66.205 39.215786
66.210 39.815048
66.215 40.244835
66.220 39.589924
66.225 39.426037
66.230 39.795887
66.235 40.368641
66.240 40.684719
66.245 39.97966
66.250 39.530251
66.255 39.677071
66.260 39.778877
66.265 39.342827
66.270 38.900314
66.275 39.041576
66.280 39.195511
66.285 39.663918
66.290 40.214165
66.295 41.016315
66.300 41.055859
66.305 40.937019
66.310 40.555649
66.315 40.886681
66.320 40.63829
66.325 40.116009
66.330 39.591045
66.335 39.121914
66.340 38.120182
66.345 38.59687
66.350 38.373508
66.355 38.55407
66.360 39.034447
66.365 38.750473
66.370 39.034328
66.375 39.242023
66.380 38.453571
66.385 37.661831
66.390 36.725643
66.395 35.850834
66.400 36.223953
66.405 36.187458
66.410 35.359612
66.415 34.360909
66.420 34.56625
66.425 34.174633
66.430 33.601421
66.435 33.702572
66.440 33.975044
66.445 33.659435
66.450 33.75988
66.455 32.840282
66.460 32.414753
66.465 32.645576
66.470 32.121193
66.475 31.353451
66.480 31.284744
66.485 31.057768
66.490 31.389946
66.495 31.721874
66.500 31.394646
66.505 31.167902
66.510 30.868235
66.515 30.835003
66.520 30.34367
66.525 29.8846
66.530 29.678143
66.535 29.727345
66.540 29.501646
66.545 28.906755
66.550 28.130791
66.555 28.225861
66.560 29.140144
66.565 28.745945
66.570 28.409517
66.575 27.740866
66.580 27.992031
66.585 27.427254
66.590 26.887867
66.595 25.842707
66.600 25.566206
66.605 25.350903
66.610 25.489437
66.615 25.690147
66.620 26.144711
66.625 25.730972
66.630 25.335102
66.635 24.928671
66.640 24.70816
66.645 24.280954
66.650 23.940182
66.655 24.304895
66.660 24.290617
66.665 24.125183
66.670 24.1271
66.675 23.939909
66.680 24.313953
66.685 24.570627
66.690 23.559649
66.695 23.362293
66.700 23.401264
66.705 23.481197
66.710 23.056433
66.715 22.441542
66.720 21.347765
66.725 20.94293
66.730 21.276865
66.735 20.527401
66.740 20.225662
66.745 20.50486
66.750 21.359251
66.755 21.980255
66.760 22.31283
66.765 21.99003
66.770 22.729506
66.775 22.623394
66.780 22.343369
66.785 21.241116
66.790 20.197018
66.795 20.070997
66.800 20.299887
66.805 19.80283
66.810 19.873516
66.815 20.028685
66.820 20.075462
66.825 20.925797
66.830 20.681318
66.835 20.168877
66.840 19.672003
66.845 19.697914
66.850 19.854185
66.855 19.558569
66.860 19.400721
66.865 19.740955
66.870 19.703171
66.875 19.826454
66.880 19.448713
66.885 19.13451
66.890 19.559559
66.895 19.765903
66.900 19.438723
66.905 19.571611
66.910 20.197334
66.915 20.549635
66.920 20.607517
66.925 20.019873
66.930 19.484997
66.935 19.596087
66.940 19.243292
66.945 19.292038
66.950 19.380091
66.955 19.086414
66.960 19.030329
66.965 19.142216
66.970 18.702969
66.975 19.082062
66.980 18.795906
66.985 18.365564
66.990 18.810123
66.995 18.541197
67.000 18.283785
67.005 18.666344
67.010 18.705416
67.015 18.779282
67.020 18.926836
67.025 19.023632
67.030 19.567823
67.035 19.74868
67.040 19.947735
67.045 19.807941
67.050 19.695498
67.055 19.237154
67.060 19.415712
67.065 19.614475
67.070 19.867203
67.075 20.392153
67.080 20.638647
67.085 20.759415
67.090 20.938028
67.095 20.846981
67.100 21.30969
67.105 20.991518
67.110 20.580687
67.115 20.189283
67.120 20.249056
67.125 20.494265
67.130 20.197477
67.135 19.785271
67.140 20.049999
67.145 20.41461
67.150 21.054428
67.155 21.198555
67.160 21.645733
67.165 21.81002
67.170 21.233965
67.175 20.771103
67.180 20.523241
67.185 20.330467
67.190 20.504601
67.195 20.397232
67.200 20.462959
67.205 20.649073
67.210 20.570679
67.215 20.028648
67.220 19.683435
67.225 19.622646
67.230 19.329865
67.235 19.692316
67.240 20.27985
67.245 19.869289
67.250 19.670322
67.255 19.723925
67.260 19.806082
67.265 20.030338
67.270 19.429583
67.275 19.232006
67.280 20.389341
67.285 20.992922
67.290 20.750059
67.295 20.362646
67.300 20.449907
67.305 20.167353
67.310 20.212208
67.315 20.205427
67.320 20.128246
67.325 20.897301
67.330 21.293114
67.335 21.228588
67.340 21.063086
67.345 20.654797
67.350 20.190588
67.355 20.292511
67.360 20.000854
67.365 19.633984
67.370 20.079245
67.375 20.098898
67.380 21.113918
67.385 20.840523
67.390 20.968864
67.395 20.609396
67.400 20.203238
67.405 20.09321
67.410 20.605139
67.415 19.622307
67.420 19.50985
67.425 18.835501
67.430 18.961958
67.435 18.742331
67.440 17.973186
67.445 17.370869
67.450 17.408747
67.455 17.484709
67.460 17.687145
67.465 17.410446
67.470 17.511805
67.475 17.820736
67.480 18.271294
67.485 18.35898
67.490 17.979748
67.495 17.721386
67.500 18.346397
67.505 18.514336
67.510 18.306332
67.515 18.116072
67.520 18.563852
67.525 19.038042
67.530 19.179087
67.535 19.385689
67.540 19.657726
67.545 19.937449
67.550 19.239601
67.555 19.043192
67.560 18.683172
67.565 18.606112
67.570 18.115211
67.575 17.631018
67.580 17.445324
67.585 18.056566
67.590 18.677876
67.595 19.171087
67.600 19.812912
67.605 20.118822
67.610 20.421303
67.615 20.877724
67.620 20.727186
67.625 20.423693
67.630 20.56884
67.635 20.317574
67.640 20.304539
67.645 20.68623
67.650 20.949566
67.655 21.432352
67.660 21.004681
67.665 20.477989
67.670 20.14311
67.675 20.219501
67.680 19.439079
67.685 18.470297
67.690 18.125883
67.695 18.333271
67.700 18.182718
67.705 18.362339
67.710 18.135065
67.715 18.699337
67.720 19.37644
67.725 19.497414
67.730 19.561184
67.735 19.717184
67.740 19.788692
67.745 19.709511
67.750 19.421007
67.755 19.502993
67.760 19.727179
67.765 19.469957
67.770 19.209927
67.775 18.590998
67.780 18.659342
67.785 18.554422
67.790 18.341406
67.795 17.302252
67.800 17.643383
67.805 17.916193
67.810 18.367592
67.815 18.89292
67.820 19.388466
67.825 19.647705
67.830 19.915174
67.835 20.042685
67.840 20.063032
67.845 19.357578
67.850 18.775736
67.855 18.457327
67.860 18.763271
67.865 19.206522
67.870 19.199219
67.875 19.555536
67.880 20.421204
67.885 20.296972
67.890 20.187511
67.895 20.015104
67.900 20.249094
67.905 20.481649
67.910 20.440384
67.915 20.308884
67.920 20.985998
67.925 20.738375
67.930 20.977673
67.935 20.739351
67.940 20.815952
67.945 20.233614
67.950 19.997663
67.955 19.613869
67.960 19.525143
67.965 18.595339
67.970 17.289185
67.975 17.204981
67.980 17.433064
67.985 17.210598
67.990 17.108501
67.995 17.42663
68.000 17.607861
68.005 17.684872
68.010 17.139315
68.015 17.342306
68.020 17.483017
68.025 17.990826
68.030 17.981646
68.035 17.948412
68.040 18.29945
68.045 18.562731
68.050 18.059317
68.055 18.527569
68.060 18.390942
68.065 18.194124
68.070 18.441813
68.075 18.084127
68.080 18.349676
68.085 18.956081
68.090 18.319109
68.095 18.465967
68.100 19.190073
68.105 20.283428
68.110 20.967209
68.115 20.600771
68.120 20.111618
68.125 19.83769
68.130 19.59432
68.135 19.08827
68.140 18.519125
68.145 18.421822
68.150 18.24316
68.155 18.486067
68.160 18.356394
68.165 18.259092
68.170 18.338673
68.175 18.033224
68.180 18.011274
68.185 18.285166
68.190 18.104
68.195 18.314186
68.200 18.142149
68.205 17.481394
68.210 17.238031
68.215 16.857504
68.220 16.848522
68.225 17.177691
68.230 17.657093
68.235 17.967745
68.240 18.3853
68.245 18.604355
68.250 19.175671
68.255 19.783224
68.260 19.84326
68.265 20.035587
68.270 20.819082
68.275 21.350368
68.280 21.070578
68.285 20.582315
68.290 20.078661
68.295 19.890343
68.300 19.167807
68.305 18.501148
68.310 18.164394
68.315 17.917618
68.320 17.830784
68.325 17.958359
68.330 18.324379
68.335 18.110962
68.340 18.107658
68.345 18.032707
68.350 18.305992
68.355 19.001196
68.360 18.786207
68.365 18.97171
68.370 19.077608
68.375 18.895617
68.380 19.732042
68.385 19.818396
68.390 19.069563
68.395 19.455397
68.400 18.660229
68.405 19.206347
68.410 19.196299
68.415 18.30912
68.420 18.67103
68.425 18.953035
68.430 18.859982
68.435 19.083614
68.440 18.963629
68.445 18.888178
68.450 19.504808
68.455 20.427895
68.460 20.91589
68.465 20.973907
68.470 20.77117
68.475 20.728876
68.480 21.092545
68.485 20.565422
68.490 19.807669
68.495 19.197029
68.500 19.350668
68.505 19.425592
68.510 19.71801
68.515 19.957006
68.520 19.840475
68.525 19.184647
68.530 19.210058
68.535 19.204802
68.540 19.259037
68.545 18.743023
68.550 18.590458
68.555 18.682991
68.560 19.607334
68.565 19.784813
68.570 19.881506
68.575 20.283306
68.580 20.169735
68.585 20.216608
68.590 21.146816
68.595 21.35207
68.600 21.084461
68.605 20.252989
68.610 20.030169
68.615 20.130217
68.620 19.665749
68.625 18.780567
68.630 18.196287
68.635 18.025309
68.640 18.042694
68.645 18.044117
68.650 18.053825
68.655 18.582174
68.660 18.921352
68.665 18.967611
68.670 19.285252
68.675 19.652271
68.680 19.654045
68.685 19.878519
68.690 19.926973
68.695 20.074318
68.700 20.196953
68.705 19.909504
68.710 19.380671
68.715 19.830349
68.720 19.826389
68.725 19.634214
68.730 19.57427
68.735 19.282614
68.740 20.222628
68.745 20.482168
68.750 20.006945
68.755 20.161615
68.760 19.791872
68.765 20.665804
68.770 21.330952
68.775 21.28166
68.780 21.093452
68.785 20.927795
68.790 20.997438
68.795 21.08494
68.800 20.163834
68.805 20.291544
68.810 20.630033
68.815 21.254709
68.820 21.210901
68.825 21.351398
68.830 22.252913
68.835 22.553925
68.840 22.501591
68.845 22.30265
68.850 22.494074
68.855 22.616375
68.860 22.145828
68.865 22.317869
68.870 22.042467
68.875 21.758549
68.880 21.897705
68.885 21.782921
68.890 21.716591
68.895 21.112064
68.900 21.039087
68.905 21.471188
68.910 21.312695
68.915 20.786703
68.920 20.630182
68.925 21.00112
68.930 21.592955
68.935 21.305281
68.940 21.446589
68.945 22.082949
68.950 22.618959
68.955 22.697702
68.960 22.862593
68.965 22.78157
68.970 22.851507
68.975 23.076773
68.980 23.653778
68.985 23.826258
68.990 24.560047
68.995 24.825621
69.000 25.090284
69.005 24.551615
69.010 24.095064
69.015 23.765207
69.020 23.576437
69.025 23.334702
69.030 23.192108
69.035 23.695953
69.040 24.239607
69.045 24.498299
69.050 24.50585
69.055 24.880774
69.060 24.711693
69.065 24.624611
69.070 24.241652
69.075 24.764278
69.080 24.437176
69.085 24.392046
69.090 24.478277
69.095 24.939783
69.100 25.306507
69.105 25.448366
69.110 25.470287
69.115 25.858051
69.120 26.093307
69.125 25.837694
69.130 25.946945
69.135 26.132748
69.140 26.479738
69.145 26.523863
69.150 26.414097
69.155 26.787954
69.160 26.983162
69.165 26.422588
69.170 27.020008
69.175 27.216036
69.180 27.81266
69.185 28.209486
69.190 28.928812
69.195 29.74671
69.200 30.423964
69.205 30.078081
69.210 30.83964
69.215 31.380545
69.220 31.590403
69.225 31.469107
69.230 31.538803
69.235 31.970114
69.240 32.315044
69.245 32.402664
69.250 32.812683
69.255 32.883003
69.260 32.488983
69.265 32.680389
69.270 32.477085
69.275 32.338165
69.280 32.106655
69.285 31.788422
69.290 32.264633
69.295 32.283768
69.300 32.134449
69.305 32.472031
69.310 32.814915
69.315 32.833904
69.320 32.7323
69.325 32.140457
69.330 31.819927
69.335 31.648972
69.340 31.928974
69.345 32.277081
69.350 32.570503
69.355 32.603413
69.360 33.060665
69.365 33.67276
69.370 34.011642
69.375 34.261696
69.380 34.504826
69.385 34.535278
69.390 34.592964
69.395 34.647205
69.400 35.184124
69.405 34.98225
69.410 34.444576
69.415 33.855255
69.420 34.16486
69.425 34.402725
69.430 35.471516
69.435 35.674221
69.440 36.02039
69.445 36.855404
69.450 37.239956
69.455 37.027851
69.460 36.809528
69.465 36.017059
69.470 36.14946
69.475 36.199078
69.480 35.715279
69.485 35.556667
69.490 35.312084
69.495 35.027786
69.500 35.023849
69.505 34.748165
69.510 34.149845
69.515 33.8941
69.520 34.281441
69.525 34.688911
69.530 35.359547
69.535 34.741962
69.540 34.662781
69.545 34.417809
69.550 34.882076
69.555 34.87196
69.560 34.81599
69.565 34.809341
69.570 35.143059
69.575 35.651012
69.580 35.723064
69.585 35.968433
69.590 35.492332
69.595 35.003666
69.600 34.291241
69.605 33.494457
69.610 33.128735
69.615 33.310516
69.620 32.426754
69.625 32.743977
69.630 33.163643
69.635 33.608597
69.640 34.399754
69.645 34.509636
69.650 34.194256
69.655 34.10537
69.660 33.590675
69.665 33.138798
69.670 33.485577
69.675 32.36351
69.680 31.478176
69.685 31.269903
69.690 31.002735
69.695 30.98645
69.700 30.904221
69.705 30.317411
69.710 30.925194
69.715 30.623905
69.720 30.275719
69.725 29.693003
69.730 29.883314
69.735 29.760633
69.740 29.876123
69.745 30.040777
69.750 30.451853
69.755 30.986328
69.760 30.890556
69.765 30.265858
69.770 29.708073
69.775 29.088005
69.780 28.894497
69.785 28.659149
69.790 27.916164
69.795 26.823832
69.800 26.590679
69.805 26.749058
69.810 26.753958
69.815 26.349424
69.820 25.987713
69.825 26.083315
69.830 26.438492
69.835 26.021471
69.840 25.415421
69.845 25.292652
69.850 25.333118
69.855 24.956596
69.860 25.124151
69.865 25.162752
69.870 25.189484
69.875 25.128525
69.880 24.784502
69.885 24.766941
69.890 24.801405
69.895 24.221849
69.900 23.791412
69.905 24.667213
69.910 24.405045
69.915 24.08975
69.920 23.614996
69.925 23.119953
69.930 22.929888
69.935 22.713871
69.940 22.516323
69.945 23.167828
69.950 23.42621
69.955 23.36051
69.960 23.934742
69.965 23.812258
69.970 23.093874
69.975 22.122297
69.980 21.019844
69.985 21.05776
69.990 20.741005
69.995 20.75667
70.000 20.523994
70.005 20.647392
70.010 21.082855
70.015 21.308516
70.020 21.47658
70.025 21.865671
70.030 22.254223
70.035 22.840801
70.040 22.404034
70.045 21.580843
70.050 20.859394
70.055 20.552542
70.060 19.949547
70.065 19.244488
70.070 19.636358
70.075 19.999676
70.080 20.554033
70.085 20.939388
70.090 20.583965
70.095 20.703232
70.100 20.576273
70.105 19.770884
70.110 19.785757
70.115 20.31143
70.120 20.477131
70.125 19.868387
70.130 19.571226
70.135 19.461966
70.140 19.537231
70.145 18.980907
70.150 18.965666
70.155 18.682077
70.160 19.445473
70.165 19.278063
70.170 19.195684
70.175 18.768295
70.180 18.39551
70.185 18.315201
70.190 18.786892
70.195 18.535044
70.200 18.699772
70.205 19.58378
70.210 20.266697
70.215 20.327141
70.220 20.555582
70.225 20.470114
70.230 20.567318
70.235 20.462423
70.240 19.936184
70.245 19.879652
70.250 20.161371
70.255 20.043001
70.260 19.029694
70.265 18.830448
70.270 19.561356
70.275 19.770437
70.280 19.647419
70.285 19.559553
70.290 19.150684
70.295 19.633554
70.300 19.582712
70.305 18.797985
70.310 18.786114
70.315 19.060488
70.320 19.143316
70.325 19.454565
70.330 19.322252
70.335 19.776894
70.340 20.014746
70.345 19.969086
70.350 19.95665
70.355 19.797907
70.360 19.915636
70.365 19.584179
70.370 18.991529
70.375 18.818508
70.380 18.697435
70.385 17.971394
70.390 17.712406
70.395 17.867561
70.400 18.673342
70.405 18.713385
70.410 18.34317
70.415 17.812773
70.420 18.236488
70.425 18.922539
70.430 18.738337
70.435 18.464743
70.440 18.356447
70.445 18.931791
70.450 19.32527
70.455 18.981007
70.460 18.720514
70.465 18.568989
70.470 18.627821
70.475 18.760563
70.480 18.342281
70.485 18.7006
70.490 18.58391
70.495 18.536024
70.500 18.392145
70.505 18.426702
70.510 18.69841
70.515 18.355251
70.520 18.384306
70.525 18.627605
70.530 18.916546
70.535 18.924044
70.540 19.001614
70.545 18.797974
70.550 18.93738
70.555 18.799122
70.560 18.700247
70.565 18.580597
70.570 18.603054
70.575 18.304436
70.580 17.793243
70.585 17.40657
70.590 17.231155
70.595 16.61937
70.600 16.829586
70.605 16.855455
70.610 17.607546
70.615 18.564774
70.620 18.952406
70.625 19.642164
70.630 19.981888
70.635 19.917273
70.640 19.669395
70.645 18.875704
70.650 18.891415
70.655 18.574841
70.660 18.128916
70.665 17.875372
70.670 17.847921
70.675 18.547377
70.680 18.90546
70.685 18.694494
70.690 19.408974
70.695 19.559711
70.700 19.750414
70.705 19.413727
70.710 18.611816
70.715 18.571032
70.720 18.630333
70.725 18.317589
70.730 18.521999
70.735 18.662064
70.740 19.318661
70.745 19.82016
70.750 19.927221
70.755 20.199406
70.760 19.86058
70.765 19.798323
70.770 19.853945
70.775 19.707516
70.780 19.640476
70.785 18.846743
70.790 18.794928
70.795 18.82843
70.800 18.980553
70.805 18.693657
70.810 18.082054
70.815 17.486284
70.820 18.1761
70.825 17.916636
70.830 17.709612
70.835 17.444782
70.840 17.833605
70.845 18.428879
70.850 18.901104
70.855 18.640423
70.860 19.241081
70.865 19.896608
70.870 19.98987
70.875 19.677374
70.880 19.728548
70.885 19.852554
70.890 19.507509
70.895 18.883444
70.900 18.511436
70.905 18.41366
70.910 18.216599
70.915 17.876167
70.920 17.572256
70.925 17.661139
70.930 17.798822
70.935 17.560907
70.940 17.737827
70.945 18.101793
70.950 18.36087
70.955 18.483444
70.960 18.24931
70.965 18.56267
70.970 19.03208
70.975 18.850336
70.980 18.49568
70.985 18.343952
70.990 18.889467
70.995 18.970789
71.000 17.973862
71.005 17.380861
71.010 17.363281
71.015 17.500423
71.020 17.781961
71.025 16.840796
71.030 16.925406
71.035 17.640673
71.040 17.752186
71.045 17.912745
71.050 18.314405
71.055 18.28569
71.060 18.877949
71.065 18.894335
71.070 18.497894
71.075 18.326061
71.080 18.498289
71.085 18.799662
71.090 18.653042
71.095 18.294872
71.100 18.635866
71.105 19.109587
71.110 18.850002
71.115 17.668816
71.120 17.630545
71.125 17.776533
71.130 17.669628
71.135 17.381134
71.140 17.841183
71.145 18.611906
71.150 18.783218
71.155 18.384115
71.160 18.804399
71.165 19.297503
71.170 19.429178
71.175 19.320313
71.180 19.387619
71.185 19.247917
71.190 19.69507
71.195 19.938169
71.200 19.716705
71.205 19.32505
71.210 19.001146
71.215 18.85429
71.220 18.33983
71.225 17.421602
71.230 17.867218
71.235 18.341255
71.240 18.386705
71.245 18.209349
71.250 18.290066
71.255 18.930807
71.260 18.477613
71.265 18.113008
71.270 17.803869
71.275 18.102243
71.280 17.767426
71.285 17.659685
71.290 17.970867
71.295 18.199919
71.300 18.040874
71.305 17.833941
71.310 17.895962
71.315 18.739153
71.320 19.103355
71.325 19.101887
71.330 18.783775
71.335 19.049063
71.340 19.299833
71.345 18.851004
71.350 18.211657
71.355 17.766754
71.360 17.56138
71.365 18.073767
71.370 17.561314
71.375 17.71174
71.380 18.409832
71.385 18.324923
71.390 17.741331
71.395 17.181698
71.400 16.734842
71.405 17.248297
71.410 17.398296
71.415 16.951633
71.420 17.165804
71.425 17.866953
71.430 18.141768
71.435 18.174334
71.440 17.581707
71.445 18.050634
71.450 18.936134
71.455 18.992117
71.460 19.781675
71.465 19.953615
71.470 19.351624
71.475 19.158453
71.480 19.02503
71.485 18.875883
71.490 18.641356
71.495 18.6945
71.500 18.879953
71.505 19.719572
71.510 20.003117
71.515 19.550173
71.520 19.520107
71.525 19.621004
71.530 19.13426
71.535 19.589968
71.540 19.648039
71.545 19.709085
71.550 19.92819
71.555 19.567253
71.560 19.366686
71.565 19.46394
71.570 18.932816
71.575 18.443626
71.580 17.630259
71.585 17.574621
71.590 17.849903
71.595 18.219675
71.600 18.206188
71.605 18.448317
71.610 18.473053
71.615 18.527792
71.620 18.546057
71.625 18.156487
71.630 17.702868
71.635 17.02038
71.640 17.268112
71.645 17.096567
71.650 16.754784
71.655 16.554996
71.660 16.749641
71.665 17.595053
71.670 17.649178
71.675 17.399315
71.680 17.635242
71.685 17.71818
71.690 17.949963
71.695 18.164272
71.700 18.159702
71.705 18.646421
71.710 18.469261
71.715 19.02681
71.720 19.40984
71.725 19.46661
71.730 18.828617
71.735 18.824041
71.740 18.741774
71.745 18.898548
71.750 18.247955
71.755 17.955585
71.760 17.608377
71.765 17.930851
71.770 17.549185
71.775 17.200726
71.780 17.086065
71.785 17.708603
71.790 17.890318
71.795 17.896624
71.800 17.424101
71.805 17.442595
71.810 18.373245
71.815 18.278999
71.820 17.975197
71.825 17.578386
71.830 17.91577
71.835 18.273373
71.840 17.615593
71.845 16.974489
71.850 16.796272
71.855 16.253668
71.860 16.187853
71.865 16.017643
71.870 16.027607
71.875 17.003706
71.880 17.777431
71.885 18.216845
71.890 18.64854
71.895 18.730011
71.900 19.303053
71.905 19.368683
71.910 18.894922
71.915 18.135817
71.920 17.770645
71.925 17.677982
71.930 17.496216
71.935 17.103329
71.940 16.758204
71.945 16.593195
71.950 16.521038
71.955 16.532106
71.960 16.574266
71.965 16.806868
71.970 16.883093
71.975 16.968174
71.980 17.491564
71.985 18.510128
71.990 18.376041
71.995 18.172321
72.000 18.038671
72.005 18.082817
72.010 18.085491
72.015 17.588245
72.020 17.176212
72.025 17.730202
72.030 17.544004
72.035 16.943201
72.040 16.804447
72.045 16.505907
72.050 16.796314
72.055 16.720684
72.060 16.854605
72.065 17.743708
72.070 18.561543
72.075 19.12767
72.080 19.586903
72.085 19.409893
72.090 19.640741
72.095 19.437048
72.100 19.169071
72.105 18.85183
72.110 18.300697
72.115 17.959776
72.120 18.136591
72.125 17.969027
72.130 18.063211
72.135 17.79314
72.140 17.807997
72.145 17.777412
72.150 17.86936
72.155 18.158165
72.160 17.974918
72.165 17.989227
72.170 18.859495
72.175 19.038935
72.180 18.984837
72.185 18.7451
72.190 18.320843
72.195 18.015541
72.200 16.919273
72.205 16.700583
72.210 16.948463
72.215 17.778784
72.220 17.730618
72.225 17.582245
72.230 18.248686
72.235 18.296801
72.240 18.256393
72.245 17.953369
72.250 17.36972
72.255 17.640047
72.260 17.552208
72.265 17.266048
72.270 17.461746
72.275 17.210201
72.280 17.119476
72.285 17.470558
72.290 17.563683
72.295 17.390938
72.300 17.010975
72.305 16.714308
72.310 16.669247
72.315 16.774641
72.320 17.289198
72.325 17.42214
72.330 18.318251
72.335 18.782976
72.340 19.081558
72.345 19.570642
72.350 19.764517
72.355 19.309664
72.360 19.274872
72.365 18.863747
72.370 18.915527
72.375 18.337439
72.380 17.78912
72.385 16.592371
72.390 16.870562
72.395 16.882364
72.400 16.571527
72.405 17.030815
72.410 17.739214
72.415 18.015524
72.420 18.668308
72.425 17.690212
72.430 18.298115
72.435 18.522612
72.440 17.831356
72.445 18.116375
72.450 17.939053
72.455 18.505177
72.460 18.822887
72.465 18.662512
72.470 18.832788
72.475 18.691999
72.480 18.352018
72.485 18.50564
72.490 18.063229
72.495 17.627495
72.500 17.626616
72.505 17.559431
72.510 17.49651
72.515 17.254751
72.520 17.580893
72.525 17.418955
72.530 17.7493
72.535 17.557304
72.540 17.453203
72.545 17.530199
72.550 17.365978
72.555 17.952042
72.560 18.231583
72.565 17.827339
72.570 17.556026
72.575 17.905312
72.580 18.350262
72.585 18.704811
72.590 18.409737
72.595 18.506319
72.600 18.682547
72.605 18.958033
72.610 19.018518
72.615 18.80105
72.620 18.122522
72.625 18.32287
72.630 18.54212
72.635 18.450043
72.640 18.120888
72.645 17.298746
72.650 17.072559
72.655 16.816063
72.660 16.019291
72.665 16.384481
72.670 16.536602
72.675 16.925909
72.680 16.72167
72.685 16.279827
72.690 17.089064
72.695 17.74423
72.700 17.454321
72.705 16.978968
72.710 16.694288
72.715 17.123293
72.720 17.401278
72.725 16.888115
72.730 16.64389
72.735 16.622158
72.740 17.634388
72.745 18.309137
72.750 18.040768
72.755 17.840105
72.760 17.612774
72.765 17.241167
72.770 17.343626
72.775 16.54962
72.780 15.797424
72.785 15.905511
72.790 16.505667
72.795 16.639174
72.800 16.804766
72.805 16.817154
72.810 17.283579
72.815 17.982237
72.820 18.034409
72.825 17.650772
72.830 17.558386
72.835 17.726921
72.840 17.211012
72.845 17.74251
72.850 18.207224
72.855 17.96796
72.860 17.677006
72.865 17.574757
72.870 17.512598
72.875 16.985905
72.880 16.196659
72.885 15.760171
72.890 15.907894
72.895 16.364458
72.900 16.521379
72.905 17.030954
72.910 17.202568
72.915 17.459852
72.920 17.670048
72.925 17.830698
72.930 17.554394
72.935 17.414589
72.940 17.387627
72.945 17.383419
72.950 17.335274
72.955 17.417362
72.960 16.944933
72.965 16.532528
72.970 16.555445
72.975 16.546906
72.980 16.61338
72.985 16.234364
72.990 16.301699
72.995 16.642887
73.000 16.842279
