!@!!GADDS PLOTSO FILE: Chi integration type
!@!!Title/SampleName: map-2e
!@!!Comment: ?
!@!!User: Bruker Instrument Administrator
!@!!Site: University of Illinois Chicago
!@!!Frame: map-2e_01_000.gfrm
!@!!Wavelengths    1.54184   1.54056   1.54439
!@!!Frame angles: 2Theta: 63.000 Omega: 50.000 Phi: 0.000 Chi: 90.000
!@!!Integration range: 2Theta: 53.000 to 73.000  Gamma: -105.000 to -75.000
!@!!Integration method: bin normalized
!@!N
!@!SS
!@!M
!@!L 0.0 0.0 0.0 0.0
!@!XDegrees
!@!YCounts
53.000 10.636075
53.005 9.553143
53.010 9.448648
53.015 9.697165
53.020 9.733641
53.025 10.034219
53.030 10.122767
53.035 10.08411
53.040 10.289637
53.045 9.951674
53.050 9.635706
53.055 9.151514
53.060 9.304401
53.065 9.662453
53.070 10.067586
53.075 10.302634
53.080 10.535584
53.085 10.717679
53.090 11.023194
53.095 11.038248
53.100 11.308825
53.105 11.302688
53.110 11.217845
53.115 11.581155
53.120 11.572515
53.125 11.110917
53.130 10.917825
53.135 10.429171
53.140 10.400673
53.145 10.348552
53.150 9.825438
53.155 9.742644
53.160 10.352531
53.165 10.673542
53.170 10.737457
53.175 10.42594
53.180 11.032365
53.185 11.673422
53.190 11.58816
53.195 11.115484
53.200 10.909249
53.205 11.234497
53.210 11.208653
53.215 10.62828
53.220 10.463451
53.225 10.687569
53.230 10.626987
53.235 10.417631
53.240 10.511353
53.245 10.91668
53.250 11.329859
53.255 11.452711
53.260 11.526686
53.265 11.773464
53.270 12.044341
53.275 11.612606
53.280 11.581219
53.285 11.666463
53.290 11.483887
53.295 11.437365
53.300 11.015071
53.305 10.855097
53.310 10.596532
53.315 10.228547
53.320 9.875335
53.325 9.879696
53.330 9.682755
53.335 10.085423
53.340 10.515306
53.345 10.532696
53.350 10.388207
53.355 10.493676
53.360 10.467105
53.365 10.798079
53.370 11.059161
53.375 10.956008
53.380 11.148262
53.385 11.062671
53.390 11.008332
53.395 10.907616
53.400 10.783087
53.405 10.426888
53.410 10.468079
53.415 10.060316
53.420 10.197806
53.425 10.284642
53.430 10.086196
53.435 9.896319
53.440 10.065975
53.445 10.136729
53.450 10.253991
53.455 10.052326
53.460 10.290778
53.465 10.35076
53.470 10.260416
53.475 10.241304
53.480 10.442101
53.485 10.848248
53.490 10.58661
53.495 10.65607
53.500 10.939007
53.505 11.075149
53.510 11.389506
53.515 11.445919
53.520 11.31953
53.525 11.205911
53.530 10.964553
53.535 10.754204
53.540 10.816127
53.545 10.397749
53.550 10.364533
53.555 10.753418
53.560 11.322425
53.565 11.401855
53.570 11.239703
53.575 11.135495
53.580 11.054089
53.585 10.880322
53.590 10.493969
53.595 10.740818
53.600 10.872303
53.605 10.73617
53.610 10.418987
53.615 10.548514
53.620 10.687679
53.625 10.949654
53.630 10.378981
53.635 10.509156
53.640 10.847593
53.645 11.395641
53.650 11.398258
53.655 11.165129
53.660 10.991642
53.665 11.154257
53.670 11.219121
53.675 11.092213
53.680 10.876028
53.685 10.719027
53.690 11.330282
53.695 10.999833
53.700 10.924725
53.705 10.685316
53.710 10.632647
53.715 10.535551
53.720 10.267832
53.725 9.863909
53.730 9.507947
53.735 9.240645
53.740 9.429042
53.745 9.59588
53.750 9.764056
53.755 9.967077
53.760 10.157015
53.765 10.823997
53.770 10.873221
53.775 10.785989
53.780 10.432231
53.785 10.3937
53.790 10.708851
53.795 11.041406
53.800 10.755723
53.805 10.906849
53.810 10.930548
53.815 11.228457
53.820 11.03939
53.825 11.10537
53.830 11.152205
53.835 11.231075
53.840 10.84498
53.845 10.85208
53.850 10.879323
53.855 10.784379
53.860 10.346533
53.865 10.181633
53.870 9.854065
53.875 10.092887
53.880 10.43522
53.885 10.7337
53.890 10.689273
53.895 10.911561
53.900 11.095595
53.905 11.489655
53.910 11.777365
53.915 11.547071
53.920 11.475691
53.925 11.584709
53.930 11.124932
53.935 10.912254
53.940 10.576138
53.945 10.456527
53.950 10.617238
53.955 10.532305
53.960 10.680115
53.965 11.256473
53.970 11.650231
53.975 11.782537
53.980 11.334204
53.985 11.17225
53.990 11.415527
53.995 11.334174
54.000 11.366861
54.005 11.470934
54.010 11.512213
54.015 11.489904
54.020 11.142646
54.025 11.074502
54.030 11.075291
54.035 10.94859
54.040 11.005094
54.045 11.17267
54.050 11.460409
54.055 11.762994
54.060 11.909822
54.065 11.83688
54.070 12.148075
54.075 11.797884
54.080 11.63847
54.085 11.677244
54.090 11.61847
54.095 11.455702
54.100 11.41538
54.105 11.243663
54.110 11.937571
54.115 12.055198
54.120 11.446245
54.125 11.588944
54.130 11.905764
54.135 12.714249
54.140 12.679812
54.145 12.5467
54.150 12.767304
54.155 13.05209
54.160 13.033087
54.165 12.664966
54.170 11.888494
54.175 11.52925
54.180 11.256868
54.185 11.353498
54.190 11.215755
54.195 11.088505
54.200 11.163008
54.205 11.23172
54.210 11.970712
54.215 12.51244
54.220 12.640821
54.225 12.366815
54.230 12.271148
54.235 12.517179
54.240 12.22946
54.245 12.005737
54.250 11.731326
54.255 11.894218
54.260 12.311357
54.265 12.130828
54.270 12.106928
54.275 11.811683
54.280 11.502911
54.285 11.49996
54.290 11.247214
54.295 11.480125
54.300 11.907043
54.305 11.928987
54.310 12.23211
54.315 12.029486
54.320 12.031907
54.325 11.952858
54.330 11.360247
54.335 10.815854
54.340 10.752863
54.345 11.292184
54.350 11.146883
54.355 10.782957
54.360 10.672393
54.365 10.877178
54.370 11.168797
54.375 11.157721
54.380 10.846413
54.385 10.982526
54.390 11.084789
54.395 11.478374
54.400 11.69524
54.405 11.875961
54.410 11.834822
54.415 12.349586
54.420 12.866043
54.425 12.842943
54.430 12.523681
54.435 12.420405
54.440 12.588689
54.445 12.727849
54.450 12.056046
54.455 11.899292
54.460 11.770458
54.465 11.772621
54.470 12.008841
54.475 11.848095
54.480 11.592787
54.485 11.341027
54.490 11.181589
54.495 11.47665
54.500 11.612785
54.505 10.707466
54.510 10.58389
54.515 10.666764
54.520 10.895725
54.525 10.996219
54.530 11.047445
54.535 10.701079
54.540 10.891428
54.545 10.396082
54.550 10.584325
54.555 10.97942
54.560 11.07172
54.565 10.761851
54.570 10.89734
54.575 11.266806
54.580 11.82224
54.585 11.507808
54.590 11.072756
54.595 10.561144
54.600 11.065564
54.605 11.712754
54.610 11.766955
54.615 12.015483
54.620 12.425641
54.625 12.901296
54.630 13.062459
54.635 12.773479
54.640 12.026023
54.645 11.678976
54.650 11.100972
54.655 10.940734
54.660 11.067241
54.665 11.316339
54.670 11.564723
54.675 11.76708
54.680 11.973894
54.685 12.299356
54.690 12.020661
54.695 11.539197
54.700 11.397412
54.705 11.43646
54.710 11.426077
54.715 12.007453
54.720 12.05696
54.725 12.328943
54.730 12.710321
54.735 12.464718
54.740 12.260187
54.745 11.873023
54.750 11.079726
54.755 10.988779
54.760 11.319252
54.765 11.652116
54.770 12.259541
54.775 12.719886
54.780 13.171412
54.785 13.269242
54.790 13.368486
54.795 13.099717
54.800 12.606807
54.805 11.887147
54.810 11.456084
54.815 11.534407
54.820 11.711522
54.825 11.725342
54.830 11.733414
54.835 12.161862
54.840 12.474748
54.845 12.366772
54.850 12.067058
54.855 11.656039
54.860 11.514787
54.865 11.604577
54.870 12.347994
54.875 12.727878
54.880 12.547752
54.885 12.918119
54.890 13.28525
54.895 13.310602
54.900 12.78757
54.905 11.985204
54.910 12.103063
54.915 12.590879
54.920 12.727747
54.925 12.725073
54.930 12.652225
54.935 13.295004
54.940 13.30238
54.945 13.161432
54.950 12.652286
54.955 12.498088
54.960 12.881572
54.965 12.964549
54.970 12.572301
54.975 12.719237
54.980 12.485225
54.985 12.381767
54.990 12.32307
54.995 11.434319
55.000 11.311142
55.005 11.113074
55.010 11.341105
55.015 11.81327
55.020 12.092677
55.025 12.277703
55.030 12.651338
55.035 12.915019
55.040 12.764361
55.045 12.28048
55.050 12.743728
55.055 12.4528
55.060 11.890743
55.065 12.14625
55.070 12.224836
55.075 12.385054
55.080 12.273507
55.085 12.302322
55.090 12.666113
55.095 12.97679
55.100 12.989033
55.105 12.592763
55.110 12.459823
55.115 12.415784
55.120 12.026207
55.125 11.204837
55.130 11.048629
55.135 11.265167
55.140 11.732071
55.145 11.911509
55.150 11.560467
55.155 11.310052
55.160 11.517241
55.165 11.604033
55.170 11.761347
55.175 11.734777
55.180 11.970117
55.185 12.654399
55.190 13.035333
55.195 13.042953
55.200 13.112685
55.205 13.154387
55.210 12.809803
55.215 12.763235
55.220 13.296199
55.225 13.594408
55.230 13.297899
55.235 12.703424
55.240 12.799006
55.245 13.097836
55.250 13.12569
55.255 12.521377
55.260 12.132332
55.265 12.187623
55.270 12.300058
55.275 11.66264
55.280 11.573079
55.285 11.323484
55.290 11.49476
55.295 11.730712
55.300 11.942507
55.305 12.124691
55.310 12.144825
55.315 12.003373
55.320 12.18163
55.325 12.136927
55.330 12.405031
55.335 12.526598
55.340 12.423717
55.345 12.421073
55.350 12.335037
55.355 11.69737
55.360 11.954974
55.365 12.149041
55.370 12.132833
55.375 12.390283
55.380 13.028758
55.385 13.023966
55.390 13.552674
55.395 13.311917
55.400 13.085871
55.405 13.0838
55.410 12.548848
55.415 11.559141
55.420 11.387019
55.425 10.907669
55.430 10.753749
55.435 10.521849
55.440 10.501933
55.445 10.932173
55.450 11.678539
55.455 12.166783
55.460 12.866988
55.465 12.8258
55.470 12.837829
55.475 12.820377
55.480 12.511204
55.485 12.424171
55.490 12.079088
55.495 12.045729
55.500 12.220567
55.505 12.30129
55.510 12.04403
55.515 11.842003
55.520 12.089986
55.525 11.922295
55.530 11.664246
55.535 12.018869
55.540 12.238741
55.545 12.827931
55.550 12.79945
55.555 12.14188
55.560 12.417678
55.565 12.664417
55.570 12.202881
55.575 11.92532
55.580 12.207432
55.585 12.733741
55.590 13.323929
55.595 12.886241
55.600 12.520178
55.605 12.924255
55.610 13.045643
55.615 12.792407
55.620 12.492746
55.625 12.554053
55.630 13.034328
55.635 12.967546
55.640 13.209423
55.645 13.258044
55.650 12.929158
55.655 13.33458
55.660 13.327286
55.665 13.523623
55.670 13.779549
55.675 13.466094
55.680 12.945287
55.685 13.165814
55.690 12.882537
55.695 12.643488
55.700 12.68846
55.705 12.210777
55.710 12.077952
55.715 12.261971
55.720 12.030972
55.725 11.628395
55.730 11.71143
55.735 11.779361
55.740 11.80052
55.745 12.13909
55.750 12.116058
55.755 12.437734
55.760 13.306643
55.765 13.318138
55.770 13.126143
55.775 13.742208
55.780 13.92541
55.785 14.202831
55.790 14.0412
55.795 13.490984
55.800 13.455751
55.805 13.526635
55.810 13.368547
55.815 13.173094
55.820 13.422306
55.825 13.502981
55.830 13.750594
55.835 13.814012
55.840 13.255114
55.845 12.688513
55.850 12.155211
55.855 11.845827
55.860 11.821593
55.865 11.406836
55.870 11.81062
55.875 11.749624
55.880 12.395803
55.885 13.319243
55.890 13.510712
55.895 13.324452
55.900 13.308068
55.905 13.492453
55.910 14.252121
55.915 14.66705
55.920 14.596656
55.925 15.357882
55.930 15.847887
55.935 16.075623
55.940 15.425149
55.945 14.98488
55.950 14.281751
55.955 14.046544
55.960 13.150099
55.965 13.095495
55.970 12.983531
55.975 13.477516
55.980 13.996913
55.985 14.047777
55.990 13.713638
55.995 13.87509
56.000 13.576917
56.005 13.525854
56.010 13.050305
56.015 12.755756
56.020 12.640955
56.025 12.826816
56.030 12.825679
56.035 13.020069
56.040 13.078896
56.045 12.734587
56.050 12.719683
56.055 12.75074
56.060 12.201723
56.065 12.142182
56.070 11.939857
56.075 12.3241
56.080 12.523082
56.085 12.30064
56.090 12.388465
56.095 12.892675
56.100 13.095807
56.105 12.905717
56.110 13.001398
56.115 13.796582
56.120 13.966538
56.125 13.969108
56.130 13.24417
56.135 13.240458
56.140 13.572167
56.145 13.109227
56.150 12.865932
56.155 13.47959
56.160 13.770314
56.165 14.060544
56.170 14.056686
56.175 14.028159
56.180 13.74956
56.185 13.605708
56.190 13.056875
56.195 12.510467
56.200 12.433359
56.205 12.763536
56.210 12.798335
56.215 12.883074
56.220 12.256308
56.225 12.157697
56.230 12.32487
56.235 12.291973
56.240 12.140209
56.245 12.793059
56.250 13.633896
56.255 14.211658
56.260 14.623584
56.265 14.864001
56.270 14.770231
56.275 14.633241
56.280 14.167734
56.285 13.7503
56.290 13.492628
56.295 13.527995
56.300 13.21067
56.305 13.252701
56.310 13.448235
56.315 13.582144
56.320 13.921472
56.325 13.649992
56.330 13.060329
56.335 13.406518
56.340 13.043302
56.345 12.366908
56.350 11.605317
56.355 11.051714
56.360 11.65988
56.365 12.010768
56.370 12.652886
56.375 12.978323
56.380 13.793804
56.385 13.871119
56.390 14.208697
56.395 14.172888
56.400 14.334602
56.405 14.217378
56.410 14.410006
56.415 13.854391
56.420 13.983715
56.425 14.281483
56.430 14.647643
56.435 14.205205
56.440 13.847984
56.445 13.606566
56.450 14.017898
56.455 14.102911
56.460 13.76201
56.465 13.461871
56.470 13.208993
56.475 12.950541
56.480 12.607996
56.485 12.837848
56.490 13.094765
56.495 12.954377
56.500 12.797833
56.505 13.504642
56.510 13.785552
56.515 14.222703
56.520 13.899559
56.525 13.496299
56.530 13.252003
56.535 13.394587
56.540 12.902963
56.545 12.904414
56.550 12.733774
56.555 12.758774
56.560 12.86026
56.565 13.170167
56.570 13.025058
56.575 13.051488
56.580 13.237623
56.585 13.044581
56.590 13.304268
56.595 13.962157
56.600 13.731491
56.605 13.975728
56.610 13.918444
56.615 14.359078
56.620 14.420411
56.625 14.368014
56.630 13.994617
56.635 13.934487
56.640 13.828889
56.645 13.685372
56.650 12.883731
56.655 13.069428
56.660 12.706713
56.665 12.586251
56.670 12.436262
56.675 12.914973
56.680 13.537071
56.685 13.976679
56.690 14.103205
56.695 14.56282
56.700 15.049692
56.705 15.323671
56.710 14.874523
56.715 14.596801
56.720 14.602777
56.725 14.315571
56.730 14.345824
56.735 14.529563
56.740 14.778875
56.745 14.954548
56.750 15.073751
56.755 14.969585
56.760 15.019027
56.765 14.519145
56.770 14.371456
56.775 14.570004
56.780 14.705913
56.785 14.271599
56.790 14.112308
56.795 14.199066
56.800 14.380151
56.805 13.923981
56.810 13.283446
56.815 13.22879
56.820 13.669519
56.825 13.762868
56.830 13.858643
56.835 14.170249
56.840 14.566884
56.845 14.322496
56.850 14.457532
56.855 14.492785
56.860 14.77558
56.865 14.879628
56.870 14.876373
56.875 15.074822
56.880 15.402656
56.885 15.284259
56.890 14.7083
56.895 14.090496
56.900 13.467672
56.905 13.443232
56.910 12.930877
56.915 13.49612
56.920 13.896563
56.925 14.276994
56.930 14.554004
56.935 14.672778
56.940 14.941429
56.945 15.060914
56.950 14.266652
56.955 14.193352
56.960 13.918515
56.965 13.935356
56.970 14.09681
56.975 13.583611
56.980 13.599625
56.985 13.182274
56.990 13.038697
56.995 13.587029
57.000 13.683373
57.005 13.004258
57.010 13.250432
57.015 13.303668
57.020 13.87644
57.025 14.541258
57.030 14.360935
57.035 14.179646
57.040 14.922739
57.045 14.79119
57.050 15.228228
57.055 14.819929
57.060 14.461087
57.065 14.509812
57.070 14.538284
57.075 14.053208
57.080 14.328794
57.085 14.11217
57.090 13.978568
57.095 13.84355
57.100 13.674383
57.105 13.672505
57.110 14.000702
57.115 13.974988
57.120 14.086129
57.125 14.650326
57.130 15.162095
57.135 15.113528
57.140 14.941275
57.145 15.025423
57.150 15.092997
57.155 15.165147
57.160 14.412468
57.165 14.219109
57.170 14.23517
57.175 14.263381
57.180 14.183847
57.185 14.00056
57.190 13.935317
57.195 14.080384
57.200 14.044228
57.205 14.423075
57.210 14.804094
57.215 14.815033
57.220 14.990924
57.225 15.098813
57.230 14.963456
57.235 15.291716
57.240 15.748003
57.245 15.902502
57.250 15.75654
57.255 15.65133
57.260 15.57475
57.265 16.021765
57.270 15.226426
57.275 14.505951
57.280 14.536047
57.285 14.346329
57.290 14.431216
57.295 15.014546
57.300 15.283666
57.305 15.3873
57.310 15.275461
57.315 14.943536
57.320 15.242028
57.325 15.249036
57.330 15.090133
57.335 15.013092
57.340 15.559251
57.345 15.722435
57.350 15.810036
57.355 16.079525
57.360 15.643048
57.365 15.166978
57.370 14.753221
57.375 14.531056
57.380 15.011217
57.385 15.558474
57.390 15.607692
57.395 15.887559
57.400 16.055368
57.405 16.50629
57.410 16.532589
57.415 15.764407
57.420 15.239613
57.425 15.409855
57.430 15.344369
57.435 15.733502
57.440 15.491246
57.445 15.331237
57.450 15.526795
57.455 16.118389
57.460 16.684805
57.465 17.065308
57.470 17.200886
57.475 17.702789
57.480 18.037195
57.485 18.174837
57.490 17.112135
57.495 16.908924
57.500 16.745975
57.505 15.937061
57.510 15.157121
57.515 14.687085
57.520 14.226384
57.525 13.936461
57.530 13.635646
57.535 13.674509
57.540 13.941928
57.545 13.905673
57.550 13.832884
57.555 14.253514
57.560 14.473838
57.565 14.319611
57.570 13.969759
57.575 14.258391
57.580 14.416553
57.585 14.704374
57.590 15.153477
57.595 15.154004
57.600 15.210189
57.605 15.563643
57.610 15.626748
57.615 15.82162
57.620 15.858596
57.625 15.416522
57.630 15.741512
57.635 16.161736
57.640 16.592724
57.645 16.438696
57.650 16.608736
57.655 17.062481
57.660 17.430296
57.665 17.764948
57.670 17.352545
57.675 16.934088
57.680 16.934254
57.685 16.634769
57.690 15.817499
57.695 15.345773
57.700 14.556787
57.705 14.416739
57.710 14.371083
57.715 14.40731
57.720 14.575633
57.725 14.975018
57.730 15.131009
57.735 15.058785
57.740 15.375174
57.745 15.694018
57.750 15.405955
57.755 15.421552
57.760 15.76444
57.765 16.278353
57.770 16.338354
57.775 16.488403
57.780 16.408087
57.785 17.088299
57.790 17.108032
57.795 16.565992
57.800 15.96729
57.805 16.092379
57.810 15.924382
57.815 16.087805
57.820 16.213156
57.825 16.063326
57.830 16.107388
57.835 16.867838
57.840 16.773417
57.845 16.617277
57.850 16.035793
57.855 15.404949
57.860 15.849257
57.865 15.570597
57.870 15.296561
57.875 15.74942
57.880 16.441874
57.885 16.843359
57.890 17.609831
57.895 17.778128
57.900 18.262159
57.905 18.157875
57.910 18.461641
57.915 18.564238
57.920 18.994188
57.925 18.624903
57.930 18.220274
57.935 18.331053
57.940 18.045061
57.945 16.912289
57.950 16.237644
57.955 15.664282
57.960 15.332702
57.965 15.46367
57.970 16.001711
57.975 16.181856
57.980 16.927807
57.985 17.15976
57.990 17.028887
57.995 17.16671
58.000 17.394938
58.005 16.86167
58.010 17.265722
58.015 17.366287
58.020 17.748447
58.025 18.246283
58.030 18.857311
58.035 19.194832
58.040 19.399652
58.045 19.859886
58.050 20.027824
58.055 19.795193
58.060 19.489048
58.065 18.903728
58.070 17.864479
58.075 16.948309
58.080 15.987054
58.085 15.887544
58.090 16.043022
58.095 15.822746
58.100 15.92668
58.105 16.718609
58.110 16.893923
58.115 17.407578
58.120 17.434301
58.125 18.200197
58.130 18.829109
58.135 19.15469
58.140 19.24398
58.145 19.735878
58.150 19.66091
58.155 19.34528
58.160 18.448347
58.165 18.804857
58.170 19.076002
58.175 19.067934
58.180 19.47934
58.185 19.751869
58.190 19.234636
58.195 19.340103
58.200 19.155241
58.205 18.799498
58.210 18.970003
58.215 19.098295
58.220 19.62071
58.225 20.180861
58.230 19.468161
58.235 19.424986
58.240 19.687943
58.245 19.13331
58.250 18.471905
58.255 17.662445
58.260 17.912807
58.265 19.045433
58.270 18.657246
58.275 18.434317
58.280 19.353458
58.285 20.146196
58.290 21.085228
58.295 21.357965
58.300 21.240355
58.305 21.623072
58.310 21.370321
58.315 20.977224
58.320 21.308977
58.325 20.939394
58.330 20.891855
58.335 21.351276
58.340 22.097977
58.345 22.977591
58.350 23.878916
58.355 24.400259
58.360 25.169109
58.365 25.378544
58.370 24.897688
58.375 24.999249
58.380 25.372845
58.385 25.057108
58.390 25.191051
58.395 25.778641
58.400 26.276682
58.405 27.276789
58.410 27.428347
58.415 26.857424
58.420 26.40354
58.425 25.926661
58.430 25.187542
58.435 25.457975
58.440 25.914421
58.445 26.164116
58.450 26.971609
58.455 28.161287
58.460 29.133091
58.465 29.874516
58.470 29.921858
58.475 29.551207
58.480 29.758081
58.485 29.7724
58.490 30.265383
58.495 30.201859
58.500 30.075512
58.505 30.479086
58.510 30.991606
58.515 30.828161
58.520 30.696095
58.525 30.483559
58.530 30.658804
58.535 30.826042
58.540 29.726162
58.545 29.059217
58.550 30.036097
58.555 30.294556
58.560 30.408167
58.565 30.106256
58.570 31.047209
58.575 31.934265
58.580 32.234997
58.585 31.823862
58.590 31.797777
58.595 32.223373
58.600 32.417835
58.605 32.030724
58.610 31.894835
58.615 31.436804
58.620 31.46224
58.625 31.490145
58.630 31.152937
58.635 30.860947
58.640 30.087948
58.645 29.380474
58.650 29.344446
58.655 29.362886
58.660 29.469698
58.665 29.528189
58.670 29.595238
58.675 30.033228
58.680 30.220602
58.685 29.732229
58.690 29.349592
58.695 29.396412
58.700 28.72962
58.705 28.373281
58.710 28.12887
58.715 28.384287
58.720 28.698772
58.725 28.404797
58.730 27.403666
58.735 27.186031
58.740 26.991682
58.745 26.772133
58.750 26.444725
58.755 25.784672
58.760 25.42071
58.765 25.700487
58.770 25.360039
58.775 25.487339
58.780 24.892681
58.785 24.836145
58.790 25.766184
58.795 26.383223
58.800 26.39831
58.805 26.809269
58.810 26.263966
58.815 26.334679
58.820 25.766424
58.825 25.172985
58.830 24.236599
58.835 23.878498
58.840 24.00753
58.845 23.755112
58.850 23.903851
58.855 23.888704
58.860 23.851793
58.865 23.689472
58.870 23.275341
58.875 23.697439
58.880 24.383453
58.885 24.711058
58.890 24.11087
58.895 23.40057
58.900 23.621328
58.905 23.192026
58.910 22.102005
58.915 21.55563
58.920 21.177015
58.925 21.218027
58.930 21.873837
58.935 21.532732
58.940 22.247759
58.945 22.553612
58.950 22.514475
58.955 22.554083
58.960 23.120825
58.965 22.927183
58.970 23.118811
58.975 22.446869
58.980 21.824823
58.985 21.630083
58.990 21.480972
58.995 21.100885
59.000 20.849949
59.005 20.481182
59.010 20.067099
59.015 20.272575
59.020 19.951715
59.025 19.409857
59.030 19.00766
59.035 19.069483
59.040 19.085972
59.045 19.277267
59.050 19.298161
59.055 19.560823
59.060 19.575691
59.065 20.106409
59.070 19.954165
59.075 19.795965
59.080 19.89945
59.085 20.117571
59.090 20.315123
59.095 20.635323
59.100 20.172316
59.105 19.917679
59.110 20.047651
59.115 19.942404
59.120 19.295851
59.125 18.898518
59.130 19.113012
59.135 19.283287
59.140 19.31575
59.145 18.779381
59.150 18.670109
59.155 19.109186
59.160 19.34276
59.165 19.776138
59.170 19.738976
59.175 20.04892
59.180 21.113983
59.185 21.447227
59.190 21.975071
59.195 21.522659
59.200 21.013252
59.205 20.984488
59.210 20.97842
59.215 19.739506
59.220 18.909122
59.225 18.150663
59.230 18.128313
59.235 18.301691
59.240 18.081228
59.245 18.12916
59.250 17.757875
59.255 17.609785
59.260 17.43236
59.265 17.031708
59.270 16.734209
59.275 17.240685
59.280 17.313587
59.285 17.653967
59.290 17.884773
59.295 17.79627
59.300 17.891026
59.305 17.82803
59.310 17.139942
59.315 17.555153
59.320 18.329651
59.325 18.187946
59.330 18.775705
59.335 18.281055
59.340 17.924173
59.345 17.857681
59.350 17.564716
59.355 17.147036
59.360 17.27309
59.365 17.422421
59.370 18.361742
59.375 18.365517
59.380 18.091684
59.385 17.833014
59.390 18.402884
59.395 18.340332
59.400 17.787384
59.405 17.226479
59.410 17.329985
59.415 17.690235
59.420 17.538218
59.425 16.7945
59.430 17.140268
59.435 16.952738
59.440 17.464056
59.445 17.706755
59.450 17.238497
59.455 16.744764
59.460 16.774992
59.465 16.272005
59.470 16.395403
59.475 15.968083
59.480 16.52817
59.485 17.235807
59.490 17.60807
59.495 17.642395
59.500 17.619432
59.505 17.599493
59.510 17.241463
59.515 16.605921
59.520 16.638233
59.525 16.814352
59.530 16.504137
59.535 16.97518
59.540 17.192638
59.545 17.451025
59.550 17.081623
59.555 16.535015
59.560 16.488226
59.565 17.014399
59.570 16.765263
59.575 16.915451
59.580 17.100861
59.585 17.637995
59.590 17.671501
59.595 17.396345
59.600 17.415585
59.605 17.166399
59.610 17.175789
59.615 17.462427
59.620 17.748817
59.625 17.997629
59.630 17.775442
59.635 17.181087
59.640 17.135283
59.645 16.593033
59.650 16.591822
59.655 15.634392
59.660 15.777006
59.665 16.076496
59.670 15.968462
59.675 16.46093
59.680 16.796785
59.685 16.837278
59.690 17.160357
59.695 17.325886
59.700 17.821383
59.705 18.59609
59.710 19.169035
59.715 18.999701
59.720 18.779081
59.725 18.810228
59.730 18.116909
59.735 17.808504
59.740 17.671869
59.745 17.187536
59.750 17.450651
59.755 17.017221
59.760 17.099174
59.765 17.361811
59.770 16.562254
59.775 16.57588
59.780 16.533224
59.785 16.346634
59.790 16.504656
59.795 16.690887
59.800 16.876823
59.805 17.128439
59.810 16.868786
59.815 17.061932
59.820 17.207699
59.825 17.588781
59.830 17.604452
59.835 17.392672
59.840 17.729244
59.845 18.045977
59.850 17.417372
59.855 17.682053
59.860 17.608656
59.865 18.040091
59.870 18.343189
59.875 17.972376
59.880 17.561716
59.885 17.440804
59.890 17.002266
59.895 16.61282
59.900 15.978875
59.905 15.677858
59.910 15.508147
59.915 15.339105
59.920 15.220746
59.925 15.369666
59.930 15.677234
59.935 15.691047
59.940 16.246222
59.945 16.486082
59.950 16.724134
59.955 17.493694
59.960 17.408171
59.965 17.569708
59.970 17.567701
59.975 16.937588
59.980 16.983212
59.985 17.251457
59.990 16.998806
59.995 16.940966
60.000 16.721924
60.005 16.464556
60.010 16.446571
60.015 15.935489
60.020 15.803841
60.025 15.913007
60.030 15.474673
60.035 15.005947
60.040 15.111159
60.045 16.216396
60.050 16.75651
60.055 16.570766
60.060 16.782988
60.065 17.023609
60.070 17.503189
60.075 17.466614
60.080 16.618359
60.085 16.564117
60.090 16.41058
60.095 15.867673
60.100 16.070597
60.105 15.8762
60.110 16.22311
60.115 16.412722
60.120 16.362595
60.125 16.548191
60.130 16.114059
60.135 16.046677
60.140 16.408367
60.145 16.608231
60.150 16.719635
60.155 16.935263
60.160 17.090609
60.165 17.554838
60.170 17.714848
60.175 17.383415
60.180 16.240473
60.185 15.989599
60.190 16.166996
60.195 16.183989
60.200 16.263636
60.205 15.86984
60.210 15.859083
60.215 16.608049
60.220 16.64603
60.225 16.947075
60.230 17.160765
60.235 17.715727
60.240 18.031796
60.245 18.305593
60.250 18.383778
60.255 18.301554
60.260 17.917086
60.265 18.013338
60.270 17.961742
60.275 17.683468
60.280 17.675562
60.285 17.719374
60.290 17.463427
60.295 17.245811
60.300 16.679943
60.305 16.18741
60.310 15.80713
60.315 15.705374
60.320 16.051775
60.325 15.910928
60.330 15.629056
60.335 15.971985
60.340 16.317553
60.345 17.010918
60.350 17.033485
60.355 16.902897
60.360 17.306562
60.365 17.520414
60.370 17.038799
60.375 16.886526
60.380 16.875097
60.385 16.502752
60.390 16.297625
60.395 16.20495
60.400 15.962237
60.405 15.923043
60.410 15.685238
60.415 15.548004
60.420 15.484461
60.425 15.840017
60.430 16.801689
60.435 17.365309
60.440 17.630629
60.445 18.19808
60.450 18.143116
60.455 18.435658
60.460 17.845631
60.465 17.157185
60.470 17.015726
60.475 16.88279
60.480 16.607388
60.485 16.931494
60.490 16.683371
60.495 17.187065
60.500 17.212616
60.505 17.289101
60.510 17.27183
60.515 16.98431
60.520 16.779667
60.525 16.696712
60.530 16.472691
60.535 16.115202
60.540 16.366978
60.545 16.080456
60.550 15.621181
60.555 15.839809
60.560 15.992594
60.565 15.771624
60.570 15.500554
60.575 15.692647
60.580 16.292416
60.585 16.896301
60.590 16.812513
60.595 16.833906
60.600 17.185572
60.605 17.192738
60.610 16.913004
60.615 16.840136
60.620 17.169128
60.625 17.058371
60.630 17.181936
60.635 17.067213
60.640 16.471746
60.645 16.052143
60.650 15.593843
60.655 14.939015
60.660 14.630022
60.665 14.252224
60.670 14.122477
60.675 14.740251
60.680 15.398566
60.685 15.933001
60.690 16.428297
60.695 16.536972
60.700 16.707504
60.705 17.27397
60.710 17.614044
60.715 17.588816
60.720 17.260796
60.725 17.144367
60.730 17.29904
60.735 17.280382
60.740 16.801941
60.745 16.471365
60.750 15.667652
60.755 15.408672
60.760 15.776022
60.765 15.91703
60.770 16.178877
60.775 16.688955
60.780 17.093641
60.785 18.083387
60.790 18.217045
60.795 17.804241
60.800 17.691914
60.805 17.179478
60.810 16.538698
60.815 15.559551
60.820 15.080668
60.825 15.600635
60.830 15.619189
60.835 15.358871
60.840 14.758097
60.845 15.39603
60.850 16.330635
60.855 17.256863
60.860 16.840586
60.865 17.651262
60.870 18.285696
60.875 18.523716
60.880 18.630518
60.885 18.830835
60.890 18.186729
60.895 18.299843
60.900 17.7423
60.905 17.69245
60.910 17.701366
60.915 17.124784
60.920 16.610025
60.925 16.915745
60.930 16.593876
60.935 16.496534
60.940 16.868107
60.945 17.148991
60.950 17.625326
60.955 17.768373
60.960 18.073866
60.965 18.167198
60.970 17.741253
60.975 17.260647
60.980 16.867645
60.985 16.355776
60.990 16.017508
60.995 15.441632
61.000 15.3927
61.005 15.814665
61.010 16.129726
61.015 16.080465
61.020 16.080965
61.025 16.200991
61.030 16.48213
61.035 16.4505
61.040 16.592033
61.045 16.747049
61.050 17.249352
61.055 17.078367
61.060 16.402081
61.065 16.397137
61.070 16.597008
61.075 15.97105
61.080 15.713008
61.085 16.034883
61.090 16.686737
61.095 17.17173
61.100 16.921101
61.105 16.478949
61.110 16.809309
61.115 17.171305
61.120 16.840414
61.125 16.676973
61.130 16.171724
61.135 16.471632
61.140 16.829355
61.145 16.747374
61.150 16.712902
61.155 17.140913
61.160 16.789682
61.165 16.964197
61.170 17.168633
61.175 17.505497
61.180 17.688879
61.185 17.68833
61.190 17.288717
61.195 17.892437
61.200 18.926651
61.205 19.124718
61.210 18.785038
61.215 18.737257
61.220 18.51825
61.225 18.614927
61.230 18.510115
61.235 17.975939
61.240 17.485804
61.245 17.193268
61.250 17.104418
61.255 16.695824
61.260 16.587959
61.265 16.763012
61.270 16.732338
61.275 17.262251
61.280 17.832832
61.285 18.374548
61.290 19.126621
61.295 19.335447
61.300 19.347303
61.305 19.328146
61.310 18.448858
61.315 17.728212
61.320 16.709858
61.325 15.947129
61.330 15.679723
61.335 15.088337
61.340 14.804253
61.345 15.07699
61.350 14.987822
61.355 15.29633
61.360 15.214748
61.365 14.637912
61.370 14.845793
61.375 14.878369
61.380 15.063277
61.385 15.603086
61.390 15.748478
61.395 16.126892
61.400 17.259323
61.405 17.975529
61.410 18.392078
61.415 18.071091
61.420 17.841162
61.425 17.974239
61.430 18.16832
61.435 17.543106
61.440 17.117596
61.445 16.64743
61.450 16.987509
61.455 17.142323
61.460 16.58309
61.465 16.381989
61.470 16.247477
61.475 16.197693
61.480 16.300236
61.485 16.539488
61.490 16.960176
61.495 16.938126
61.500 17.106991
61.505 16.940966
61.510 16.600801
61.515 16.463923
61.520 16.001715
61.525 15.939989
61.530 16.468145
61.535 16.299952
61.540 16.266994
61.545 16.566439
61.550 16.289799
61.555 16.092157
61.560 16.068773
61.565 16.090725
61.570 16.245083
61.575 16.580296
61.580 16.437103
61.585 16.591156
61.590 16.432659
61.595 16.291008
61.600 15.720332
61.605 15.40416
61.610 15.136059
61.615 15.231091
61.620 15.495045
61.625 15.95905
61.630 15.912164
61.635 16.400293
61.640 16.581211
61.645 17.067545
61.650 17.030245
61.655 16.877298
61.660 17.437254
61.665 17.522631
61.670 17.871487
61.675 18.40391
61.680 17.890066
61.685 18.1943
61.690 18.065536
61.695 17.997156
61.700 18.072468
61.705 17.613514
61.710 17.473087
61.715 17.443502
61.720 17.207809
61.725 17.0256
61.730 16.450623
61.735 16.652084
61.740 16.490433
61.745 16.031408
61.750 16.456467
61.755 16.681196
61.760 17.142052
61.765 17.208887
61.770 16.747925
61.775 16.728598
61.780 16.749376
61.785 16.331846
61.790 16.356812
61.795 16.633146
61.800 16.90427
61.805 16.837206
61.810 17.364574
61.815 17.438454
61.820 17.694021
61.825 17.998528
61.830 17.573189
61.835 17.717546
61.840 18.013218
61.845 17.94211
61.850 18.151703
61.855 17.788584
61.860 17.459482
61.865 17.271421
61.870 16.788622
61.875 16.296587
61.880 16.161137
61.885 16.9056
61.890 17.415014
61.895 18.07692
61.900 18.3463
61.905 18.18704
61.910 18.628382
61.915 18.476057
61.920 17.74254
61.925 17.327732
61.930 16.52183
61.935 16.535519
61.940 16.686127
61.945 16.471584
61.950 16.80047
61.955 17.40033
61.960 17.083811
61.965 16.471516
61.970 16.401875
61.975 16.60833
61.980 16.164486
61.985 15.840564
61.990 15.280138
61.995 15.203341
62.000 15.692125
62.005 15.81435
62.010 16.025131
62.015 16.388805
62.020 16.537169
62.025 16.45512
62.030 17.099684
62.035 17.181009
62.040 16.986641
62.045 16.854168
62.050 16.84544
62.055 16.435614
62.060 16.656338
62.065 16.855679
62.070 17.426775
62.075 17.563747
62.080 17.432812
62.085 17.206917
62.090 18.09428
62.095 18.054609
62.100 17.282515
62.105 16.39753
62.110 16.144579
62.115 16.091885
62.120 16.572609
62.125 16.193264
62.130 15.948689
62.135 16.102257
62.140 16.191814
62.145 16.575823
62.150 16.797029
62.155 16.332956
62.160 16.072517
62.165 16.480383
62.170 16.520655
62.175 17.002829
62.180 17.058117
62.185 17.100849
62.190 17.696335
62.195 17.532116
62.200 17.097616
62.205 17.343166
62.210 17.067999
62.215 16.8487
62.220 17.193926
62.225 17.090765
62.230 17.113037
62.235 17.51767
62.240 17.197395
62.245 17.199478
62.250 16.988499
62.255 16.537121
62.260 16.148952
62.265 15.797188
62.270 15.381217
62.275 16.023201
62.280 15.760432
62.285 15.777419
62.290 15.677225
62.295 16.227062
62.300 16.659163
62.305 16.659853
62.310 16.437084
62.315 16.167858
62.320 16.786413
62.325 17.43268
62.330 16.922039
62.335 17.176697
62.340 16.875372
62.345 16.797899
62.350 17.255342
62.355 16.78056
62.360 16.344143
62.365 16.314568
62.370 16.212366
62.375 16.719423
62.380 17.282391
62.385 17.804033
62.390 18.005976
62.395 18.458384
62.400 18.630621
62.405 18.514515
62.410 19.218052
62.415 19.445856
62.420 19.258883
62.425 18.650827
62.430 18.226397
62.435 18.570789
62.440 19.057461
62.445 18.117792
62.450 17.841385
62.455 17.676096
62.460 18.876841
62.465 19.301456
62.470 19.129959
62.475 18.831186
62.480 19.187098
62.485 19.42878
62.490 19.662809
62.495 18.962273
62.500 19.254471
62.505 19.517349
62.510 19.129265
62.515 18.591803
62.520 18.110788
62.525 17.77224
62.530 17.314857
62.535 16.927124
62.540 17.259748
62.545 18.065613
62.550 18.607668
62.555 18.757124
62.560 19.166693
62.565 19.758694
62.570 19.739891
62.575 19.177307
62.580 18.487442
62.585 17.631292
62.590 16.7068
62.595 16.123657
62.600 16.371826
62.605 16.480253
62.610 16.317719
62.615 16.220264
62.620 16.245527
62.625 16.69681
62.630 16.824366
62.635 16.233189
62.640 16.151571
62.645 16.552866
62.650 16.563164
62.655 17.132837
62.660 17.112284
62.665 16.711027
62.670 16.704498
62.675 16.412588
62.680 16.710049
62.685 17.516169
62.690 17.989189
62.695 18.752819
62.700 19.119759
62.705 19.135517
62.710 18.819798
62.715 18.754362
62.720 17.76586
62.725 16.806202
62.730 16.367882
62.735 16.097359
62.740 15.512914
62.745 15.762079
62.750 15.480287
62.755 15.736058
62.760 17.086079
62.765 17.475641
62.770 17.755249
62.775 17.858906
62.780 17.640219
62.785 17.604282
62.790 17.464676
62.795 15.887775
62.800 15.601938
62.805 16.049398
62.810 16.354811
62.815 16.592577
62.820 16.957348
62.825 17.492962
62.830 18.10199
62.835 17.723688
62.840 17.346861
62.845 18.260454
62.850 18.516325
62.855 18.555597
62.860 18.389734
62.865 18.198975
62.870 18.105152
62.875 18.084206
62.880 16.898146
62.885 16.867332
62.890 16.49651
62.895 16.660366
62.900 17.326576
62.905 17.440964
62.910 17.412136
62.915 17.942244
62.920 17.624655
62.925 17.035566
62.930 16.492086
62.935 16.020308
62.940 16.140631
62.945 15.934546
62.950 15.441993
62.955 15.867784
62.960 16.878687
62.965 17.460001
62.970 18.015396
62.975 18.330837
62.980 19.042639
62.985 19.230349
62.990 18.915056
62.995 18.792454
63.000 19.397783
63.005 18.535265
63.010 18.526844
63.015 18.371933
63.020 18.372286
63.025 18.452307
63.030 18.309948
63.035 18.15255
63.040 18.929485
63.045 18.68515
63.050 18.416061
63.055 18.697624
63.060 18.949959
63.065 18.649473
63.070 17.931072
63.075 17.659386
63.080 17.919201
63.085 18.049469
63.090 18.1045
63.095 18.06218
63.100 17.842146
63.105 17.716373
63.110 17.426804
63.115 17.469839
63.120 17.219004
63.125 17.180544
63.130 17.034939
63.135 17.260817
63.140 17.639456
63.145 17.312256
63.150 17.203745
63.155 18.090227
63.160 17.798237
63.165 17.338089
63.170 17.13155
63.175 17.09342
63.180 17.611057
63.185 17.656702
63.190 16.949926
63.195 16.555561
63.200 16.853704
63.205 16.961269
63.210 16.739355
63.215 15.860032
63.220 15.54024
63.225 15.7285
63.230 16.175188
63.235 16.004305
63.240 15.909938
63.245 16.014389
63.250 16.658295
63.255 16.612078
63.260 16.523796
63.265 16.829176
63.270 16.950029
63.275 17.445803
63.280 18.549154
63.285 19.218683
63.290 19.958532
63.295 20.113083
63.300 20.19451
63.305 20.338654
63.310 20.081268
63.315 20.220169
63.320 19.726858
63.325 18.999571
63.330 18.88932
63.335 18.750965
63.340 18.761835
63.345 18.848694
63.350 18.352528
63.355 18.560146
63.360 18.97331
63.365 19.041311
63.370 18.970358
63.375 18.813583
63.380 18.444803
63.385 17.948423
63.390 17.65015
63.395 17.567148
63.400 18.28726
63.405 18.424835
63.410 18.292118
63.415 17.893475
63.420 17.824827
63.425 17.720831
63.430 17.297379
63.435 16.917793
63.440 17.234564
63.445 18.142517
63.450 18.575445
63.455 18.149141
63.460 18.860554
63.465 19.09351
63.470 18.808638
63.475 18.428507
63.480 18.119926
63.485 18.294085
63.490 18.42749
63.495 18.074854
63.500 17.653156
63.505 17.702162
63.510 17.962095
63.515 17.957397
63.520 17.9485
63.525 18.102491
63.530 18.110006
63.535 19.529041
63.540 19.591892
63.545 19.19611
63.550 19.159241
63.555 18.760715
63.560 18.510365
63.565 18.479177
63.570 17.229368
63.575 17.008347
63.580 17.108877
63.585 17.598217
63.590 18.528433
63.595 19.371693
63.600 19.820385
63.605 20.390066
63.610 20.573914
63.615 20.554005
63.620 20.242126
63.625 19.559849
63.630 18.959475
63.635 18.671812
63.640 18.31448
63.645 18.336018
63.650 18.36797
63.655 18.678659
63.660 19.164011
63.665 19.900969
63.670 19.742798
63.675 19.856747
63.680 20.330513
63.685 20.713295
63.690 20.488842
63.695 20.099775
63.700 19.482986
63.705 20.068256
63.710 20.275238
63.715 20.211082
63.720 20.601057
63.725 21.049149
63.730 21.770407
63.735 22.415642
63.740 22.160891
63.745 22.255295
63.750 21.959681
63.755 21.529112
63.760 21.412926
63.765 20.773069
63.770 19.724932
63.775 19.258543
63.780 18.525473
63.785 18.827833
63.790 19.132215
63.795 19.575584
63.800 19.870539
63.805 20.614582
63.810 21.523726
63.815 22.462463
63.820 22.302935
63.825 22.175222
63.830 21.413546
63.835 21.324007
63.840 21.298979
63.845 21.123363
63.850 21.161783
63.855 20.965334
63.860 20.811256
63.865 21.161709
63.870 21.918722
63.875 22.643358
63.880 23.085396
63.885 23.205517
63.890 23.785027
63.895 24.044291
63.900 23.913828
63.905 23.650112
63.910 23.669216
63.915 23.560301
63.920 23.536085
63.925 23.354506
63.930 23.981142
63.935 24.042086
63.940 24.587175
63.945 24.429184
63.950 24.342712
63.955 24.713024
63.960 24.88751
63.965 24.388134
63.970 24.385992
63.975 24.28698
63.980 24.289835
63.985 24.500292
63.990 24.225796
63.995 24.214956
64.000 25.187428
64.005 25.997459
64.010 26.285103
64.015 27.0252
64.020 28.550665
64.025 29.245192
64.030 29.179382
64.035 28.903318
64.040 29.141848
64.045 30.301826
64.050 30.960022
64.055 29.524931
64.060 29.701975
64.065 30.230434
64.070 30.64378
64.075 30.338835
64.080 30.053219
64.085 30.034622
64.090 30.339844
64.095 30.573187
64.100 30.522297
64.105 30.236952
64.110 30.209623
64.115 30.673086
64.120 31.49881
64.125 31.813694
64.130 32.318611
64.135 32.707935
64.140 33.815357
64.145 35.073204
64.150 34.216949
64.155 33.715927
64.160 33.551086
64.165 33.40036
64.170 33.455498
64.175 32.830151
64.180 32.560318
64.185 33.135651
64.190 34.092766
64.195 34.874256
64.200 34.96402
64.205 35.827271
64.210 36.016151
64.215 35.789268
64.220 36.269829
64.225 36.231487
64.230 35.878235
64.235 35.611343
64.240 35.200867
64.245 35.261585
64.250 35.33429
64.255 35.214931
64.260 35.650436
64.265 36.282028
64.270 36.629131
64.275 36.034901
64.280 36.01384
64.285 35.851948
64.290 35.877293
64.295 36.31517
64.300 36.112682
64.305 34.876373
64.310 34.932762
64.315 35.061703
64.320 35.230812
64.325 34.939777
64.330 34.214012
64.335 35.142986
64.340 36.381596
64.345 36.792908
64.350 36.716114
64.355 36.866566
64.360 37.048641
64.365 36.979733
64.370 36.761055
64.375 37.190563
64.380 37.171898
64.385 36.896027
64.390 37.12978
64.395 37.492294
64.400 37.075039
64.405 36.545818
64.410 35.933704
64.415 35.197594
64.420 34.471733
64.425 33.179089
64.430 32.418152
64.435 31.855947
64.440 32.092934
64.445 32.446918
64.450 33.376846
64.455 33.466496
64.460 33.796848
64.465 32.841045
64.470 32.620621
64.475 31.725134
64.480 31.831182
64.485 31.674099
64.490 31.994951
64.495 32.026501
64.500 32.192867
64.505 32.139259
64.510 31.884314
64.515 30.547022
64.520 29.840168
64.525 29.847395
64.530 29.369543
64.535 28.408867
64.540 28.069252
64.545 28.423689
64.550 29.018837
64.555 29.349476
64.560 29.032753
64.565 29.086832
64.570 28.959133
64.575 28.897728
64.580 28.32958
64.585 28.118303
64.590 28.302683
64.595 27.796589
64.600 27.17038
64.605 26.412668
64.610 25.934784
64.615 24.89226
64.620 24.296839
64.625 23.611963
64.630 23.34948
64.635 23.671064
64.640 24.254837
64.645 24.554039
64.650 24.929703
64.655 24.165653
64.660 23.343859
64.665 22.776136
64.670 22.663458
64.675 22.491158
64.680 21.968643
64.685 21.39893
64.690 20.75288
64.695 21.846132
64.700 23.108036
64.705 22.552353
64.710 22.253971
64.715 22.30592
64.720 23.534433
64.725 24.600351
64.730 24.155266
64.735 23.37501
64.740 23.528625
64.745 24.21286
64.750 24.062326
64.755 23.29504
64.760 22.884045
64.765 22.339603
64.770 22.118929
64.775 22.02092
64.780 21.433279
64.785 21.304239
64.790 21.389219
64.795 21.454836
64.800 21.806818
64.805 22.298136
64.810 22.536192
64.815 22.65453
64.820 22.828495
64.825 22.593843
64.830 22.498781
64.835 22.313801
64.840 22.136831
64.845 22.392481
64.850 22.084143
64.855 22.115274
64.860 22.572786
64.865 22.204544
64.870 22.374718
64.875 22.469843
64.880 22.562279
64.885 23.253256
64.890 23.458521
64.895 23.238092
64.900 23.256269
64.905 22.83997
64.910 22.927645
64.915 21.825064
64.920 21.630365
64.925 21.183382
64.930 21.447094
64.935 22.079483
64.940 22.576967
64.945 23.136406
64.950 24.475573
64.955 24.737923
64.960 25.424547
64.965 25.485794
64.970 25.337099
64.975 24.935289
64.980 24.664858
64.985 24.552984
64.990 24.732225
64.995 24.625507
65.000 24.143713
65.005 24.135624
65.010 24.680925
65.015 24.227503
65.020 24.254398
65.025 24.108034
65.030 23.472935
65.035 23.749743
65.040 23.877754
65.045 23.744839
65.050 24.017159
65.055 23.457441
65.060 23.42132
65.065 24.037636
65.070 24.313997
65.075 23.614645
65.080 23.565744
65.085 23.711485
65.090 24.625814
65.095 25.04426
65.100 24.521067
65.105 24.693718
65.110 24.888382
65.115 24.71636
65.120 24.817776
65.125 24.634205
65.130 25.125179
65.135 25.661846
65.140 25.808554
65.145 26.190573
65.150 26.493023
65.155 26.608948
65.160 26.169216
65.165 25.286957
65.170 24.918814
65.175 24.575476
65.180 24.165163
65.185 23.9247
65.190 23.30352
65.195 22.807606
65.200 23.173227
65.205 23.509033
65.210 24.458096
65.215 25.127565
65.220 24.775578
65.225 24.821159
65.230 25.963444
65.235 26.615383
65.240 27.020269
65.245 26.506964
65.250 26.065758
65.255 26.538996
65.260 26.710545
65.265 26.656189
65.270 25.992735
65.275 25.836559
65.280 25.725136
65.285 26.749134
65.290 26.860605
65.295 26.509958
65.300 26.119579
65.305 25.860945
65.310 25.736843
65.315 25.7708
65.320 25.054934
65.325 25.023968
65.330 25.239733
65.335 24.71764
65.340 24.793247
65.345 24.939814
65.350 24.973766
65.355 25.637983
65.360 25.755514
65.365 26.206024
65.370 26.910801
65.375 27.228977
65.380 26.846802
65.385 26.798704
65.390 26.606428
65.395 27.586172
65.400 27.71158
65.405 27.91017
65.410 28.318144
65.415 28.859377
65.420 29.048456
65.425 28.895817
65.430 28.811331
65.435 29.253038
65.440 28.966219
65.445 29.001608
65.450 29.441814
65.455 29.789068
65.460 30.340202
65.465 29.860285
65.470 29.92732
65.475 30.487759
65.480 30.471924
65.485 30.240088
65.490 29.959335
65.495 30.362474
65.500 30.848854
65.505 30.666758
65.510 30.848801
65.515 30.646917
65.520 31.034056
65.525 31.638332
65.530 31.153334
65.535 31.123329
65.540 31.516853
65.545 31.534742
65.550 31.593761
65.555 31.714701
65.560 31.586843
65.565 31.927074
65.570 31.983877
65.575 32.155357
65.580 32.248203
65.585 32.68055
65.590 32.73616
65.595 32.956921
65.600 33.136711
65.605 33.299023
65.610 33.093124
65.615 32.928036
65.620 32.581104
65.625 32.428761
65.630 32.592026
65.635 32.717781
65.640 32.770046
65.645 33.264938
65.650 34.069042
65.655 34.605503
65.660 34.602253
65.665 34.670464
65.670 34.678391
65.675 34.897686
65.680 34.665085
65.685 34.669521
65.690 34.945427
65.695 36.007179
65.700 36.00032
65.705 34.723541
65.710 34.592995
65.715 34.342979
65.720 34.177055
65.725 34.122746
65.730 33.273357
65.735 33.380943
65.740 34.562592
65.745 35.178467
65.750 34.768475
65.755 35.043518
65.760 35.200039
65.765 34.910244
65.770 34.749496
65.775 34.882816
65.780 34.962353
65.785 36.137486
65.790 36.156223
65.795 36.37817
65.800 36.783897
65.805 37.224773
65.810 37.052097
65.815 36.874523
65.820 36.545021
65.825 35.608463
65.830 35.133972
65.835 35.355804
65.840 34.669422
65.845 34.065079
65.850 34.002037
65.855 34.443184
65.860 35.279682
65.865 35.400524
65.870 35.045807
65.875 35.374851
65.880 35.157436
65.885 35.285053
65.890 34.998089
65.895 34.368164
65.900 34.399948
65.905 34.278992
65.910 34.981705
65.915 35.312904
65.920 35.575943
65.925 35.863735
65.930 35.822384
65.935 36.063236
65.940 36.19083
65.945 36.28175
65.950 36.653255
65.955 36.043541
65.960 36.466816
65.965 36.522003
65.970 35.775646
65.975 35.245316
65.980 35.134365
65.985 35.096516
65.990 35.69751
65.995 35.116856
66.000 35.726158
66.005 36.238049
66.010 36.405849
66.015 36.191162
66.020 36.07795
66.025 35.902557
66.030 35.899822
66.035 35.760296
66.040 35.351295
66.045 35.710499
66.050 35.483173
66.055 34.562485
66.060 34.345299
66.065 33.880981
66.070 33.33794
66.075 33.1973
66.080 33.511848
66.085 33.799664
66.090 34.507515
66.095 34.754322
66.100 35.199753
66.105 35.672279
66.110 35.539833
66.115 34.952297
66.120 34.733875
66.125 35.109955
66.130 34.634949
66.135 34.939308
66.140 35.318825
66.145 35.254021
66.150 34.24065
66.155 33.481285
66.160 32.798328
66.165 32.50338
66.170 31.87326
66.175 31.225353
66.180 30.560202
66.185 30.83856
66.190 31.313543
66.195 31.264656
66.200 31.092136
66.205 30.596203
66.210 30.596432
66.215 31.017546
66.220 30.662615
66.225 30.014681
66.230 29.508614
66.235 29.841583
66.240 29.582458
66.245 29.737038
66.250 30.051943
66.255 30.181293
66.260 30.50775
66.265 30.368473
66.270 29.822229
66.275 29.532187
66.280 29.237331
66.285 29.469067
66.290 29.307177
66.295 29.255629
66.300 29.678688
66.305 29.666931
66.310 29.749634
66.315 29.784882
66.320 30.015768
66.325 30.327354
66.330 30.23333
66.335 30.003021
66.340 30.20447
66.345 30.109716
66.350 29.892275
66.355 29.609592
66.360 29.488993
66.365 29.805298
66.370 29.93664
66.375 29.863806
66.380 29.265444
66.385 27.984978
66.390 27.77128
66.395 27.332607
66.400 26.541847
66.405 26.10606
66.410 25.872597
66.415 26.217394
66.420 26.423584
66.425 27.092207
66.430 26.915243
66.435 26.641693
66.440 26.872337
66.445 26.460087
66.450 26.349928
66.455 26.279842
66.460 25.256159
66.465 25.355072
66.470 25.290648
66.475 25.12624
66.480 24.779284
66.485 24.613609
66.490 24.257586
66.495 23.904783
66.500 24.296804
66.505 24.500307
66.510 24.241438
66.515 24.759823
66.520 24.535494
66.525 24.361656
66.530 24.146719
66.535 23.591684
66.540 23.009752
66.545 22.72114
66.550 22.168171
66.555 22.180437
66.560 22.815367
66.565 22.760267
66.570 23.313782
66.575 23.274979
66.580 23.753799
66.585 24.259451
66.590 24.282286
66.595 24.487007
66.600 24.775236
66.605 24.334965
66.610 24.760403
66.615 23.575443
66.620 23.134214
66.625 23.476645
66.630 23.213659
66.635 23.420559
66.640 22.912533
66.645 22.456486
66.650 22.764248
66.655 22.394785
66.660 21.850903
66.665 21.260674
66.670 20.955154
66.675 21.463779
66.680 21.978518
66.685 21.297625
66.690 21.251928
66.695 21.131241
66.700 21.189682
66.705 21.231377
66.710 20.751772
66.715 19.907007
66.720 20.504875
66.725 20.748419
66.730 20.879585
66.735 20.400534
66.740 20.250095
66.745 20.523098
66.750 21.200993
66.755 20.723673
66.760 20.24242
66.765 20.467985
66.770 20.525068
66.775 20.315378
66.780 20.216232
66.785 20.130997
66.790 20.663509
66.795 20.385317
66.800 19.993097
66.805 20.290468
66.810 20.326729
66.815 19.860409
66.820 19.430452
66.825 19.045759
66.830 19.054901
66.835 19.111528
66.840 18.763988
66.845 19.467735
66.850 19.796854
66.855 19.862471
66.860 20.401859
66.865 20.846865
66.870 20.843559
66.875 21.184841
66.880 20.485722
66.885 20.556566
66.890 20.493465
66.895 20.387459
66.900 19.858345
66.905 19.368145
66.910 19.094467
66.915 19.122967
66.920 19.552399
66.925 18.742346
66.930 18.650326
66.935 19.525074
66.940 19.870716
66.945 19.806374
66.950 19.9184
66.955 19.948912
66.960 20.722904
66.965 19.914799
66.970 19.944887
66.975 20.083452
66.980 20.332544
66.985 19.825201
66.990 20.056217
66.995 19.942923
67.000 20.721668
67.005 20.052452
67.010 19.732553
67.015 19.482477
67.020 19.52668
67.025 19.062531
67.030 18.696352
67.035 18.489323
67.040 18.675724
67.045 18.90163
67.050 19.273722
67.055 19.140156
67.060 19.314665
67.065 19.832989
67.070 19.799326
67.075 19.645319
67.080 19.080601
67.085 18.814638
67.090 19.56415
67.095 19.934578
67.100 19.72933
67.105 19.873199
67.110 20.266628
67.115 21.00058
67.120 21.272581
67.125 20.907455
67.130 20.826717
67.135 21.005018
67.140 21.259724
67.145 20.979279
67.150 20.69994
67.155 20.415739
67.160 20.709145
67.165 20.146912
67.170 19.296839
67.175 18.683445
67.180 18.746292
67.185 19.078663
67.190 18.880659
67.195 17.936541
67.200 18.479643
67.205 19.238304
67.210 19.025438
67.215 18.895733
67.220 18.837952
67.225 19.242144
67.230 19.50378
67.235 19.195972
67.240 19.383728
67.245 19.934427
67.250 19.755512
67.255 19.758846
67.260 19.931738
67.265 20.040108
67.270 20.527864
67.275 20.080925
67.280 19.981102
67.285 20.220968
67.290 19.705389
67.295 19.308632
67.300 19.138624
67.305 18.388023
67.310 18.389616
67.315 18.16585
67.320 17.940784
67.325 18.297802
67.330 18.463299
67.335 18.558039
67.340 18.806425
67.345 18.86141
67.350 18.183477
67.355 18.117376
67.360 17.848181
67.365 17.85874
67.370 17.812645
67.375 18.046061
67.380 17.897493
67.385 18.158043
67.390 18.659872
67.395 18.791386
67.400 18.605923
67.405 18.625725
67.410 18.684738
67.415 19.334513
67.420 19.707779
67.425 19.543112
67.430 19.492172
67.435 19.365301
67.440 19.411404
67.445 20.256174
67.450 20.403887
67.455 19.670847
67.460 19.277098
67.465 19.49824
67.470 19.953667
67.475 19.316444
67.480 18.228958
67.485 17.968775
67.490 18.59227
67.495 18.775488
67.500 19.141994
67.505 19.306627
67.510 19.95047
67.515 20.107004
67.520 20.637033
67.525 20.408587
67.530 20.324238
67.535 20.122078
67.540 20.18482
67.545 20.70562
67.550 21.073315
67.555 20.815756
67.560 20.614956
67.565 21.010191
67.570 21.064928
67.575 20.940748
67.580 20.128469
67.585 20.370455
67.590 20.492916
67.595 20.852478
67.600 20.602703
67.605 20.809004
67.610 20.892529
67.615 20.98077
67.620 20.646601
67.625 20.977757
67.630 21.202215
67.635 21.227131
67.640 20.809635
67.645 20.911652
67.650 20.878826
67.655 21.176823
67.660 20.46958
67.665 19.691685
67.670 19.3624
67.675 19.2006
67.680 18.696245
67.685 18.888514
67.690 18.386393
67.695 18.634417
67.700 18.952057
67.705 18.889317
67.710 18.851624
67.715 19.128872
67.720 18.743597
67.725 18.711351
67.730 18.497246
67.735 18.636915
67.740 18.779381
67.745 19.35178
67.750 19.838379
67.755 19.86134
67.760 19.623363
67.765 19.777739
67.770 19.232409
67.775 18.526419
67.780 17.999638
67.785 17.285395
67.790 17.296455
67.795 16.929453
67.800 17.206264
67.805 18.05715
67.810 19.003042
67.815 19.19228
67.820 19.716858
67.825 19.943657
67.830 20.545626
67.835 20.481754
67.840 20.079016
67.845 19.336727
67.850 18.648439
67.855 18.424978
67.860 18.371233
67.865 17.559095
67.870 16.899742
67.875 16.912409
67.880 17.71291
67.885 18.353193
67.890 18.054804
67.895 18.125792
67.900 18.950953
67.905 19.730532
67.910 20.223806
67.915 19.687075
67.920 19.688005
67.925 20.318279
67.930 20.191713
67.935 20.351177
67.940 20.269943
67.945 19.722939
67.950 19.937794
67.955 19.674215
67.960 19.399107
67.965 19.755714
67.970 19.639734
67.975 19.83087
67.980 20.040829
67.985 19.448944
67.990 19.405457
67.995 19.258833
68.000 19.22683
68.005 18.988054
68.010 19.151299
68.015 19.36799
68.020 20.040358
68.025 20.350662
68.030 20.244902
68.035 19.995594
68.040 20.023767
68.045 19.478586
68.050 19.789181
68.055 20.007946
68.060 19.749537
68.065 19.643826
68.070 20.243971
68.075 20.097561
68.080 19.800936
68.085 19.626282
68.090 19.250153
68.095 19.319416
68.100 19.365799
68.105 19.535814
68.110 19.98884
68.115 20.026941
68.120 19.853891
68.125 19.271286
68.130 19.310879
68.135 19.201679
68.140 19.126686
68.145 18.474918
68.150 18.729967
68.155 18.702765
68.160 19.519903
68.165 19.399193
68.170 19.789581
68.175 20.369129
68.180 20.417528
68.185 20.472219
68.190 20.489538
68.195 20.530794
68.200 20.686382
68.205 20.303154
68.210 20.660858
68.215 21.448229
68.220 21.869934
68.225 21.97879
68.230 21.758726
68.235 22.195738
68.240 21.859797
68.245 21.259468
68.250 20.271116
68.255 19.694447
68.260 20.130142
68.265 20.713573
68.270 20.479584
68.275 21.005922
68.280 21.566267
68.285 22.114206
68.290 21.869526
68.295 21.398436
68.300 21.688623
68.305 21.644012
68.310 21.219051
68.315 20.259857
68.320 20.169073
68.325 20.742495
68.330 21.160818
68.335 20.738461
68.340 20.953859
68.345 21.080212
68.350 21.335056
68.355 21.111444
68.360 20.674921
68.365 19.675577
68.370 19.412756
68.375 19.31353
68.380 19.40612
68.385 19.824783
68.390 20.279215
68.395 20.569136
68.400 20.989405
68.405 21.145128
68.410 21.75699
68.415 21.550159
68.420 21.383413
68.425 21.68331
68.430 22.373354
68.435 22.470587
68.440 22.071342
68.445 21.275501
68.450 21.79793
68.455 22.101519
68.460 21.488592
68.465 20.846703
68.470 20.919819
68.475 21.007793
68.480 21.562492
68.485 21.3013
68.490 21.461739
68.495 21.436235
68.500 21.526684
68.505 21.627693
68.510 21.733454
68.515 21.811426
68.520 22.417482
68.525 22.177429
68.530 22.283243
68.535 22.847231
68.540 23.529955
68.545 23.90447
68.550 23.637724
68.555 23.914373
68.560 24.175007
68.565 24.628313
68.570 24.537603
68.575 23.945984
68.580 24.064943
68.585 24.317738
68.590 24.301477
68.595 23.958961
68.600 23.795694
68.605 24.69253
68.610 24.970129
68.615 24.667889
68.620 24.203693
68.625 24.100931
68.630 24.729649
68.635 24.946209
68.640 24.10066
68.645 24.476536
68.650 24.746033
68.655 25.589642
68.660 25.708284
68.665 25.633289
68.670 25.472179
68.675 25.637714
68.680 25.596426
68.685 25.699772
68.690 25.846743
68.695 25.942879
68.700 26.745642
68.705 27.307507
68.710 27.291237
68.715 26.909122
68.720 26.759634
68.725 26.566818
68.730 26.890942
68.735 26.510487
68.740 26.244108
68.745 26.268383
68.750 26.723568
68.755 26.215254
68.760 26.455736
68.765 26.572063
68.770 27.272236
68.775 27.109314
68.780 27.170229
68.785 27.711714
68.790 28.805399
68.795 29.434998
68.800 28.975197
68.805 28.844015
68.810 29.820911
68.815 30.161404
68.820 30.176085
68.825 29.80345
68.830 30.28351
68.835 31.355387
68.840 31.365337
68.845 31.529459
68.850 31.969267
68.855 32.471989
68.860 32.964386
68.865 33.027645
68.870 32.270306
68.875 31.567978
68.880 30.507479
68.885 30.753492
68.890 30.602324
68.895 30.166498
68.900 29.880569
68.905 30.606026
68.910 31.217232
68.915 31.77603
68.920 30.745487
68.925 30.257622
68.930 29.946095
68.935 29.200314
68.940 29.251038
68.945 29.807304
68.950 30.129246
68.955 30.834282
68.960 31.084091
68.965 31.218616
68.970 32.136646
68.975 32.362347
68.980 32.158772
68.985 31.864092
68.990 31.765219
68.995 31.866964
69.000 32.710548
69.005 32.474491
69.010 32.494865
69.015 32.77243
69.020 32.785561
69.025 32.209869
69.030 32.332619
69.035 32.696712
69.040 32.960934
69.045 32.814205
69.050 31.917362
69.055 32.909187
69.060 33.720783
69.065 33.386044
69.070 32.205086
69.075 31.859241
69.080 32.255566
69.085 32.417881
69.090 31.193649
69.095 31.013395
69.100 32.165951
69.105 31.389153
69.110 30.479647
69.115 30.253908
69.120 30.805866
69.125 31.322281
69.130 31.834652
69.135 31.486341
69.140 33.026012
69.145 33.043499
69.150 33.28059
69.155 33.15918
69.160 32.544453
69.165 32.24947
69.170 32.616825
69.175 32.756355
69.180 33.434868
69.185 33.581348
69.190 33.774265
69.195 33.57597
69.200 32.992222
69.205 32.236546
69.210 31.625765
69.215 30.578371
69.220 30.296116
69.225 30.470346
69.230 30.461512
69.235 30.245323
69.240 29.98835
69.245 30.083815
69.250 30.21306
69.255 29.768152
69.260 30.024952
69.265 30.971001
69.270 31.876755
69.275 32.464611
69.280 32.182442
69.285 32.624187
69.290 32.779987
69.295 32.312714
69.300 31.586782
69.305 31.049654
69.310 30.471693
69.315 30.76738
69.320 30.293734
69.325 29.976034
69.330 30.298677
69.335 30.079878
69.340 29.86162
69.345 29.402941
69.350 28.906624
69.355 29.272633
69.360 29.099487
69.365 28.542095
69.370 28.614141
69.375 28.534853
69.380 28.934435
69.385 28.818951
69.390 29.134804
69.395 29.017818
69.400 29.166653
69.405 29.270082
69.410 29.325613
69.415 29.371122
69.420 29.621672
69.425 29.695858
69.430 29.972675
69.435 29.620337
69.440 29.214573
69.445 28.912216
69.450 28.199097
69.455 26.611059
69.460 25.73917
69.465 25.341543
69.470 25.82472
69.475 26.481571
69.480 26.590414
69.485 27.316282
69.490 28.169592
69.495 28.088196
69.500 28.034819
69.505 27.647003
69.510 28.097502
69.515 28.098471
69.520 27.29604
69.525 27.995289
69.530 27.660984
69.535 27.418159
69.540 27.032127
69.545 26.334373
69.550 26.567671
69.555 26.46163
69.560 26.325609
69.565 26.313307
69.570 26.56214
69.575 26.489887
69.580 26.452223
69.585 26.94944
69.590 27.012266
69.595 26.618145
69.600 26.379192
69.605 26.252298
69.610 26.124714
69.615 25.690647
69.620 25.341736
69.625 25.033611
69.630 25.444763
69.635 25.624313
69.640 25.546089
69.645 25.456728
69.650 25.218138
69.655 25.441387
69.660 25.475407
69.665 25.558744
69.670 25.556339
69.675 25.570152
69.680 25.468187
69.685 25.771996
69.690 25.681337
69.695 24.881771
69.700 24.496315
69.705 24.325533
69.710 24.528587
69.715 24.413679
69.720 24.586922
69.725 24.005066
69.730 23.779705
69.735 23.827982
69.740 24.065674
69.745 23.779858
69.750 23.4079
69.755 23.02928
69.760 23.488525
69.765 23.227337
69.770 23.075176
69.775 23.02424
69.780 23.382778
69.785 24.041574
69.790 24.066614
69.795 24.5952
69.800 25.210049
69.805 24.893618
69.810 24.435774
69.815 24.450426
69.820 23.734488
69.825 23.379618
69.830 22.359026
69.835 21.497686
69.840 21.096601
69.845 21.028833
69.850 20.632145
69.855 20.377195
69.860 20.284824
69.865 20.275555
69.870 20.621065
69.875 20.798302
69.880 20.926306
69.885 20.843317
69.890 21.275497
69.895 21.351093
69.900 21.755178
69.905 21.860111
69.910 22.034077
69.915 21.926712
69.920 22.050348
69.925 22.170757
69.930 21.550207
69.935 21.671928
69.940 21.535271
69.945 21.10549
69.950 20.954708
69.955 20.529448
69.960 20.007549
69.965 19.798023
69.970 18.86557
69.975 18.085821
69.980 17.428619
69.985 17.04587
69.990 17.479666
69.995 17.523483
70.000 17.912773
70.005 19.157127
70.010 20.540436
70.015 21.075048
70.020 21.198145
70.025 20.926659
70.030 20.958778
70.035 20.266073
70.040 19.145369
70.045 18.750015
70.050 19.013857
70.055 19.353052
70.060 19.471228
70.065 19.656172
70.070 19.92317
70.075 19.969469
70.080 19.550463
70.085 18.827391
70.090 18.453739
70.095 18.395433
70.100 18.263426
70.105 18.103775
70.110 18.15851
70.115 19.112104
70.120 19.70591
70.125 20.032986
70.130 20.131489
70.135 21.089613
70.140 21.61191
70.145 22.296314
70.150 22.364223
70.155 22.094933
70.160 21.883265
70.165 21.646128
70.170 21.039822
70.175 21.057062
70.180 20.342133
70.185 20.216608
70.190 20.418789
70.195 20.326963
70.200 19.742043
70.205 20.197842
70.210 20.246668
70.215 19.93417
70.220 19.638758
70.225 19.407949
70.230 19.428173
70.235 20.202345
70.240 19.534203
70.245 19.703304
70.250 20.318949
70.255 20.497683
70.260 20.684229
70.265 20.64678
70.270 19.828146
70.275 19.550829
70.280 18.985229
70.285 18.22764
70.290 17.727905
70.295 17.672169
70.300 17.793034
70.305 18.642342
70.310 18.822355
70.315 18.339346
70.320 18.499599
70.325 18.497452
70.330 18.427397
70.335 18.362494
70.340 18.251526
70.345 18.352539
70.350 19.172636
70.355 19.358583
70.360 19.20602
70.365 19.042835
70.370 18.897177
70.375 18.710684
70.380 18.692654
70.385 18.123283
70.390 18.906816
70.395 19.356836
70.400 19.184216
70.405 19.068155
70.410 18.984324
70.415 18.5812
70.420 18.435667
70.425 17.649244
70.430 17.705652
70.435 17.908253
70.440 17.908323
70.445 18.035168
70.450 18.906513
70.455 19.140932
70.460 19.459444
70.465 19.842577
70.470 20.341845
70.475 20.291536
70.480 20.316813
70.485 19.745317
70.490 19.850262
70.495 20.017015
70.500 19.731623
70.505 18.979767
70.510 19.262766
70.515 19.394217
70.520 20.253878
70.525 20.560301
70.530 20.120535
70.535 19.7791
70.540 20.340857
70.545 19.729555
70.550 19.221521
70.555 18.570192
70.560 18.325344
70.565 18.6357
70.570 18.740429
70.575 19.076891
70.580 19.668756
70.585 19.596544
70.590 19.974174
70.595 20.069958
70.600 19.517824
70.605 19.498228
70.610 19.391659
70.615 19.176384
70.620 19.107317
70.625 17.990105
70.630 17.655159
70.635 18.463663
70.640 18.162998
70.645 17.347843
70.650 16.726412
70.655 17.372606
70.660 18.483416
70.665 18.932173
70.670 18.220074
70.675 18.014376
70.680 18.770521
70.685 19.36825
70.690 19.64381
70.695 19.488758
70.700 19.229557
70.705 19.195454
70.710 19.806177
70.715 19.76618
70.720 19.378162
70.725 18.798698
70.730 18.86248
70.735 19.098337
70.740 19.173025
70.745 18.865007
70.750 19.313311
70.755 19.751835
70.760 19.496241
70.765 19.798618
70.770 19.794788
70.775 19.562397
70.780 19.730379
70.785 19.152342
70.790 18.965641
70.795 18.715395
70.800 18.247465
70.805 18.339748
70.810 18.32403
70.815 18.653273
70.820 18.85256
70.825 19.143259
70.830 19.26317
70.835 19.757429
70.840 20.35585
70.845 20.291853
70.850 19.628433
70.855 19.229147
70.860 19.109314
70.865 18.621996
70.870 18.324709
70.875 18.501125
70.880 18.493776
70.885 18.653622
70.890 18.716095
70.895 18.530182
70.900 18.555132
70.905 18.539499
70.910 18.090319
70.915 17.887201
70.920 17.852617
70.925 18.326647
70.930 18.890987
70.935 18.662212
70.940 18.181087
70.945 18.171501
70.950 18.216131
70.955 18.478739
70.960 17.979753
70.965 17.49584
70.970 17.574541
70.975 18.048265
70.980 18.27146
70.985 18.497517
70.990 18.63203
70.995 18.679018
71.000 19.095943
71.005 19.643017
71.010 20.000933
71.015 20.421307
71.020 20.907965
71.025 21.052509
71.030 21.477049
71.035 21.564217
71.040 21.222452
71.045 21.175718
71.050 20.630863
71.055 19.994846
71.060 19.948135
71.065 19.919949
71.070 19.764595
71.075 19.272266
71.080 18.983706
71.085 18.987917
71.090 18.684654
71.095 18.159529
71.100 17.768597
71.105 17.83494
71.110 17.871744
71.115 18.311234
71.120 18.715691
71.125 19.029329
71.130 19.492908
71.135 19.373821
71.140 19.192253
71.145 18.9743
71.150 18.386696
71.155 17.96225
71.160 17.300154
71.165 17.175236
71.170 18.028265
71.175 18.476109
71.180 18.543465
71.185 18.525248
71.190 18.649387
71.195 19.226841
71.200 19.172417
71.205 18.714407
71.210 18.951097
71.215 19.108873
71.220 19.164881
71.225 19.739668
71.230 19.497074
71.235 18.918972
71.240 18.912178
71.245 18.611214
71.250 18.670486
71.255 18.519775
71.260 18.298666
71.265 18.644659
71.270 18.764029
71.275 18.909008
71.280 19.209694
71.285 19.3659
71.290 19.476912
71.295 19.501631
71.300 18.603586
71.305 18.324062
71.310 17.590782
71.315 17.219027
71.320 17.038336
71.325 16.514967
71.330 16.615311
71.335 17.044943
71.340 16.964018
71.345 17.191162
71.350 16.669088
71.355 16.327679
71.360 16.412886
71.365 16.751474
71.370 17.115694
71.375 17.84124
71.380 18.001932
71.385 18.039339
71.390 18.170462
71.395 17.847282
71.400 16.827335
71.405 16.830788
71.410 16.987829
71.415 17.306894
71.420 17.267237
71.425 17.252314
71.430 17.579279
71.435 17.777916
71.440 16.934925
71.445 16.028795
71.450 16.539131
71.455 16.851305
71.460 16.951565
71.465 17.755661
71.470 18.82181
71.475 19.471027
71.480 19.322147
71.485 19.116938
71.490 19.034208
71.495 18.806688
71.500 17.98514
71.505 17.05228
71.510 16.912523
71.515 17.303267
71.520 17.561533
71.525 17.58847
71.530 17.753109
71.535 17.787392
71.540 18.10788
71.545 18.302574
71.550 18.810829
71.555 18.997501
71.560 19.597481
71.565 19.667799
71.570 20.542719
71.575 20.684845
71.580 19.829134
71.585 19.596596
71.590 19.168072
71.595 19.458941
71.600 19.723726
71.605 19.529749
71.610 19.400339
71.615 19.58849
71.620 19.256048
71.625 19.198614
71.630 18.389521
71.635 17.712261
71.640 17.234592
71.645 17.233028
71.650 17.106291
71.655 16.640226
71.660 16.560532
71.665 16.590023
71.670 16.849995
71.675 17.123318
71.680 17.520599
71.685 17.958937
71.690 18.332073
71.695 18.538635
71.700 18.411081
71.705 18.115526
71.710 17.351166
71.715 17.3874
71.720 17.463823
71.725 17.396065
71.730 17.358755
71.735 17.984098
71.740 18.296318
71.745 18.673195
71.750 18.823515
71.755 19.21077
71.760 19.127317
71.765 18.993626
71.770 18.920774
71.775 18.61338
71.780 18.581314
71.785 18.528025
71.790 17.641685
71.795 17.803326
71.800 17.861692
71.805 17.755133
71.810 18.466171
71.815 18.395615
71.820 17.960739
71.825 17.774426
71.830 18.169004
71.835 18.562794
71.840 18.595057
71.845 18.594145
71.850 18.77272
71.855 18.811293
71.860 18.331324
71.865 17.485315
71.870 17.463627
71.875 18.10088
71.880 17.52359
71.885 17.168398
71.890 17.252983
71.895 17.976458
71.900 18.195614
71.905 17.832582
71.910 17.097439
71.915 17.592819
71.920 17.870754
71.925 18.342295
71.930 18.566128
71.935 18.636166
71.940 18.752441
71.945 18.657822
71.950 18.747028
71.955 18.820288
71.960 18.895668
71.965 18.965208
71.970 19.375252
71.975 19.377981
71.980 19.54253
71.985 19.460815
71.990 19.337395
71.995 19.739639
72.000 19.475233
72.005 19.237047
72.010 18.767757
72.015 18.800137
72.020 19.32379
72.025 19.541161
72.030 18.645872
72.035 18.802402
72.040 19.452253
72.045 19.652674
72.050 19.685249
72.055 19.181911
72.060 19.21796
72.065 19.574207
72.070 19.108183
72.075 19.055637
72.080 19.116661
72.085 18.576168
72.090 18.182343
72.095 17.816408
72.100 17.616913
72.105 17.992891
72.110 17.6199
72.115 17.241499
72.120 17.390963
72.125 17.459146
72.130 17.632919
72.135 18.030201
72.140 17.819048
72.145 17.957979
72.150 18.264069
72.155 18.269392
72.160 18.318813
72.165 18.449579
72.170 18.086031
72.175 18.407372
72.180 19.009995
72.185 19.027338
72.190 18.681684
72.195 18.796644
72.200 18.712513
72.205 18.748522
72.210 18.289566
72.215 17.273045
72.220 17.057083
72.225 17.486231
72.230 17.050743
72.235 16.64794
72.240 16.504562
72.245 16.805708
72.250 18.019144
72.255 18.140913
72.260 18.073128
72.265 18.158028
72.270 18.504299
72.275 18.863605
72.280 18.935061
72.285 19.010624
72.290 19.114819
72.295 19.259388
72.300 19.128416
72.305 18.700453
72.310 18.185171
72.315 18.072891
72.320 17.893234
72.325 18.303444
72.330 18.33403
72.335 18.370655
72.340 18.571009
72.345 18.57678
72.350 17.997892
72.355 17.290167
72.360 16.957703
72.365 16.969255
72.370 17.076118
72.375 16.903008
72.380 16.731861
72.385 16.954491
72.390 17.02809
72.395 17.210543
72.400 17.48772
72.405 17.405699
72.410 17.199863
72.415 17.032757
72.420 16.576441
72.425 16.534847
72.430 16.441639
72.435 15.900238
72.440 16.144299
72.445 16.492828
72.450 16.977232
72.455 17.23711
72.460 16.962044
72.465 16.558878
72.470 16.47184
72.475 16.168247
72.480 16.335608
72.485 16.868914
72.490 17.255224
72.495 17.499657
72.500 17.911947
72.505 18.322599
72.510 18.119528
72.515 17.657129
72.520 16.821663
72.525 16.97876
72.530 16.811251
72.535 16.775108
72.540 17.183914
72.545 17.257437
72.550 17.218239
72.555 18.019547
72.560 18.097376
72.565 18.599539
72.570 19.137224
72.575 19.156843
72.580 19.870358
72.585 20.474483
72.590 20.310648
72.595 20.178204
72.600 19.914576
72.605 19.649385
72.610 19.368841
72.615 19.010767
72.620 18.567999
72.625 18.323425
72.630 18.250071
72.635 17.840338
72.640 17.339693
72.645 17.026157
72.650 16.720083
72.655 16.458691
72.660 16.585737
72.665 16.801508
72.670 16.532572
72.675 16.528687
72.680 16.923676
72.685 17.133589
72.690 17.931044
72.695 17.342295
72.700 17.266418
72.705 17.739014
72.710 18.385101
72.715 18.650049
72.720 18.641983
72.725 18.384506
72.730 18.90729
72.735 18.960024
72.740 17.793493
72.745 17.009832
72.750 16.626202
72.755 16.248505
72.760 15.890776
72.765 15.795041
72.770 16.323753
72.775 16.877405
72.780 17.215649
72.785 16.731617
72.790 16.974533
72.795 16.916168
72.800 16.782225
72.805 17.056057
72.810 16.607525
72.815 16.112947
72.820 16.744219
72.825 16.670759
72.830 16.63036
72.835 16.269564
72.840 16.214003
72.845 16.785955
72.850 16.597532
72.855 16.118795
72.860 16.039495
72.865 15.881433
72.870 16.183605
72.875 16.51885
72.880 16.574024
72.885 17.072149
72.890 17.587898
72.895 17.774673
72.900 17.822895
72.905 17.782145
72.910 17.997257
72.915 17.929197
72.920 17.466955
72.925 17.19754
72.930 17.320311
72.935 17.407984
72.940 17.358664
72.945 17.25412
72.950 17.739866
72.955 18.194147
72.960 18.633478
72.965 19.159765
72.970 18.49877
72.975 18.264376
72.980 18.313276
72.985 17.723585
72.990 17.30662
72.995 16.21212
73.000 16.576712
