!@!!GADDS PLOTSO FILE: Chi integration type
!@!!Title/SampleName: map-b3
!@!!Comment: ?
!@!!User: Bruker Instrument Administrator
!@!!Site: University of Illinois Chicago
!@!!Frame: map-b3_01_000.gfrm
!@!!Wavelengths    1.54184   1.54056   1.54439
!@!!Frame angles: 2Theta: 63.000 Omega: 50.000 Phi: 0.000 Chi: 90.000
!@!!Integration range: 2Theta: 53.000 to 73.000  Gamma: -105.000 to -75.000
!@!!Integration method: bin normalized
!@!N
!@!SS
!@!M
!@!L 0.0 0.0 0.0 0.0
!@!XDegrees
!@!YCounts
53.000 8.176527
53.005 8.254877
53.010 8.038108
53.015 7.746068
53.020 7.764814
53.025 7.868911
53.030 8.036781
53.035 7.776937
53.040 7.790535
53.045 8.030641
53.050 8.047084
53.055 7.939784
53.060 7.659306
53.065 7.126083
53.070 6.908422
53.075 6.845113
53.080 7.133469
53.085 7.176449
53.090 7.315615
53.095 7.537198
53.100 7.859752
53.105 8.266819
53.110 8.285499
53.115 8.40222
53.120 8.725661
53.125 8.475993
53.130 8.557084
53.135 8.592232
53.140 8.241763
53.145 8.025736
53.150 7.36141
53.155 7.469568
53.160 7.970857
53.165 7.684352
53.170 7.8708
53.175 8.234119
53.180 8.624938
53.185 9.26824
53.190 8.883705
53.195 8.528955
53.200 8.482106
53.205 8.154794
53.210 8.236454
53.215 7.866594
53.220 7.556403
53.225 7.946896
53.230 8.117027
53.235 8.250108
53.240 8.455039
53.245 8.247934
53.250 8.759939
53.255 8.855639
53.260 8.781763
53.265 9.044458
53.270 9.352476
53.275 9.132648
53.280 9.053662
53.285 8.731853
53.290 8.74143
53.295 8.717781
53.300 8.541752
53.305 8.451792
53.310 8.55598
53.315 8.580947
53.320 8.204417
53.325 8.081645
53.330 8.02973
53.335 7.899429
53.340 7.550414
53.345 7.566009
53.350 7.738965
53.355 8.028908
53.360 7.81236
53.365 7.655068
53.370 7.859437
53.375 7.981952
53.380 7.830356
53.385 7.696118
53.390 7.576344
53.395 7.751253
53.400 8.001719
53.405 8.148599
53.410 8.115657
53.415 7.845671
53.420 7.991808
53.425 8.512935
53.430 8.593361
53.435 8.789145
53.440 8.405043
53.445 8.474049
53.450 8.546095
53.455 8.066111
53.460 7.915917
53.465 7.935987
53.470 8.079588
53.475 8.640992
53.480 8.873857
53.485 9.13975
53.490 9.319584
53.495 9.535666
53.500 9.480855
53.505 9.113574
53.510 8.962462
53.515 9.111965
53.520 8.997578
53.525 8.679235
53.530 8.307789
53.535 8.312042
53.540 8.413614
53.545 8.552534
53.550 8.388981
53.555 8.642628
53.560 8.936384
53.565 8.984376
53.570 9.381471
53.575 9.536619
53.580 9.232202
53.585 9.234083
53.590 8.609697
53.595 8.336617
53.600 8.133845
53.605 7.70715
53.610 7.465629
53.615 7.828582
53.620 7.885957
53.625 8.100513
53.630 8.385936
53.635 8.654658
53.640 8.788979
53.645 8.837477
53.650 8.766696
53.655 8.876876
53.660 9.697536
53.665 10.20555
53.670 10.158855
53.675 9.81513
53.680 9.902555
53.685 9.655197
53.690 10.267153
53.695 9.35027
53.700 8.887468
53.705 9.028295
53.710 8.85981
53.715 8.741733
53.720 8.881274
53.725 8.514768
53.730 8.880322
53.735 8.733328
53.740 8.707014
53.745 9.22694
53.750 9.217381
53.755 8.926434
53.760 8.814717
53.765 8.873318
53.770 9.126836
53.775 9.817505
53.780 9.809132
53.785 9.842137
53.790 10.056858
53.795 9.918233
53.800 9.502866
53.805 8.92829
53.810 7.96862
53.815 7.834582
53.820 8.110582
53.825 7.996434
53.830 8.329278
53.835 8.437737
53.840 8.822502
53.845 8.994928
53.850 8.592648
53.855 8.582278
53.860 8.597899
53.865 8.108714
53.870 8.390461
53.875 8.546214
53.880 8.941077
53.885 9.302807
53.890 9.490924
53.895 9.440728
53.900 9.599263
53.905 9.290978
53.910 8.96183
53.915 8.67072
53.920 7.967023
53.925 7.320848
53.930 7.575713
53.935 7.789438
53.940 8.327825
53.945 8.531551
53.950 8.757248
53.955 9.365307
53.960 9.70205
53.965 9.651525
53.970 9.479242
53.975 9.159481
53.980 9.069379
53.985 9.080288
53.990 8.827102
53.995 8.682091
54.000 8.475698
54.005 8.55184
54.010 8.465352
54.015 8.505957
54.020 8.131802
54.025 8.315597
54.030 8.408311
54.035 8.801658
54.040 8.998519
54.045 9.25721
54.050 9.431145
54.055 9.969481
54.060 10.179068
54.065 10.262997
54.070 10.129773
54.075 9.964035
54.080 9.805747
54.085 10.085333
54.090 10.079854
54.095 10.2203
54.100 10.178741
54.105 10.373424
54.110 10.508924
54.115 10.864445
54.120 10.985327
54.125 10.910709
54.130 10.601487
54.135 10.039331
54.140 9.278678
54.145 9.165583
54.150 8.715838
54.155 8.60469
54.160 8.456166
54.165 8.587201
54.170 9.42426
54.175 9.499762
54.180 9.249118
54.185 8.913295
54.190 8.687468
54.195 8.879955
54.200 9.035324
54.205 8.942531
54.210 9.30317
54.215 9.703707
54.220 9.983242
54.225 10.061278
54.230 9.832809
54.235 9.724293
54.240 10.018886
54.245 9.821742
54.250 9.88222
54.255 9.987564
54.260 9.76915
54.265 9.957531
54.270 9.947541
54.275 10.058438
54.280 10.269127
54.285 9.686056
54.290 9.190689
54.295 9.083665
54.300 9.023666
54.305 8.858259
54.310 8.826678
54.315 8.738248
54.320 8.832312
54.325 9.033572
54.330 9.040461
54.335 9.049083
54.340 9.072663
54.345 8.630464
54.350 8.788882
54.355 9.031961
54.360 9.036154
54.365 8.984544
54.370 8.881175
54.375 8.603765
54.380 8.559186
54.385 8.784911
54.390 8.87825
54.395 8.716392
54.400 8.823138
54.405 8.69887
54.410 8.74894
54.415 8.832075
54.420 8.639712
54.425 8.966217
54.430 9.28173
54.435 9.220929
54.440 9.223845
54.445 9.50703
54.450 9.564096
54.455 9.704717
54.460 9.53349
54.465 9.868781
54.470 9.761742
54.475 9.597307
54.480 9.249824
54.485 9.391169
54.490 9.251838
54.495 9.241343
54.500 9.082622
54.505 9.514406
54.510 9.754339
54.515 9.686403
54.520 9.354108
54.525 9.066263
54.530 9.094457
54.535 8.935792
54.540 8.968201
54.545 9.429624
54.550 9.716933
54.555 10.335918
54.560 10.787068
54.565 10.919074
54.570 10.83543
54.575 10.341679
54.580 9.601254
54.585 9.288709
54.590 8.965637
54.595 8.525534
54.600 8.262653
54.605 8.683389
54.610 9.10377
54.615 9.055806
54.620 9.033259
54.625 9.302524
54.630 9.314936
54.635 9.168763
54.640 8.598065
54.645 8.525037
54.650 8.884608
54.655 8.798098
54.660 8.953145
54.665 9.220546
54.670 9.388502
54.675 9.361761
54.680 9.355059
54.685 9.042496
54.690 9.045732
54.695 8.927175
54.700 8.784949
54.705 9.33386
54.710 9.658452
54.715 9.865361
54.720 9.712819
54.725 9.670379
54.730 9.626363
54.735 9.757338
54.740 9.311459
54.745 9.22038
54.750 9.528915
54.755 9.893786
54.760 9.917631
54.765 9.8037
54.770 9.926135
54.775 10.06496
54.780 10.600084
54.785 10.550976
54.790 10.639592
54.795 10.649542
54.800 10.407458
54.805 9.960564
54.810 10.282925
54.815 10.116749
54.820 9.980697
54.825 9.855092
54.830 9.830646
54.835 10.120045
54.840 10.111928
54.845 9.671134
54.850 9.901811
54.855 10.005544
54.860 9.55245
54.865 9.415806
54.870 9.393318
54.875 9.688577
54.880 9.475879
54.885 9.247581
54.890 9.091194
54.895 9.611505
54.900 9.48313
54.905 9.226648
54.910 8.786573
54.915 9.085838
54.920 9.029881
54.925 9.206883
54.930 9.609427
54.935 10.233504
54.940 10.503251
54.945 10.808264
54.950 10.668109
54.955 10.652761
54.960 10.528511
54.965 9.94062
54.970 9.410266
54.975 9.377047
54.980 9.337824
54.985 9.512238
54.990 9.635654
54.995 9.538038
55.000 9.88635
55.005 10.241673
55.010 10.465202
55.015 10.432891
55.020 10.289929
55.025 10.746922
55.030 11.206275
55.035 10.985129
55.040 10.825482
55.045 10.711107
55.050 10.536092
55.055 10.317974
55.060 9.839623
55.065 9.311406
55.070 9.466104
55.075 9.291795
55.080 9.34455
55.085 9.622362
55.090 9.423131
55.095 9.139699
55.100 9.168625
55.105 9.093393
55.110 9.327721
55.115 9.356379
55.120 9.236615
55.125 9.605731
55.130 9.843399
55.135 9.938926
55.140 9.857535
55.145 9.835648
55.150 9.655806
55.155 9.490491
55.160 9.577195
55.165 9.576725
55.170 9.899431
55.175 9.997394
55.180 10.08279
55.185 10.291171
55.190 10.353202
55.195 10.416855
55.200 10.32019
55.205 10.337976
55.210 10.471366
55.215 10.463785
55.220 10.730907
55.225 10.631116
55.230 10.600822
55.235 10.560057
55.240 10.447625
55.245 10.766439
55.250 10.848528
55.255 10.714849
55.260 10.77786
55.265 10.707603
55.270 10.387341
55.275 9.9394
55.280 9.908437
55.285 9.564818
55.290 9.556293
55.295 9.559454
55.300 9.423017
55.305 9.87962
55.310 10.195879
55.315 9.946276
55.320 10.262294
55.325 9.954393
55.330 10.15353
55.335 10.357301
55.340 10.184359
55.345 9.884885
55.350 9.771104
55.355 9.889456
55.360 10.278604
55.365 10.087655
55.370 9.987497
55.375 9.608968
55.380 9.895608
55.385 9.909068
55.390 9.822698
55.395 10.099971
55.400 9.9131
55.405 10.171339
55.410 10.600317
55.415 10.422421
55.420 10.386065
55.425 10.9355
55.430 11.05629
55.435 11.528728
55.440 11.810558
55.445 12.496302
55.450 13.297072
55.455 13.526512
55.460 13.044919
55.465 12.925168
55.470 13.047852
55.475 12.842068
55.480 11.862253
55.485 11.092952
55.490 11.011834
55.495 10.647783
55.500 10.614311
55.505 10.713337
55.510 10.670711
55.515 10.53826
55.520 10.515637
55.525 10.202681
55.530 10.191319
55.535 10.165165
55.540 10.04757
55.545 9.983929
55.550 10.026601
55.555 9.955898
55.560 10.096732
55.565 10.418526
55.570 9.936331
55.575 9.955301
55.580 10.1537
55.585 10.48317
55.590 10.661515
55.595 10.907861
55.600 10.407717
55.605 10.392078
55.610 9.74368
55.615 9.908065
55.620 10.078561
55.625 9.685569
55.630 9.189138
55.635 9.454145
55.640 10.202446
55.645 10.487077
55.650 10.262712
55.655 10.436337
55.660 10.645078
55.665 11.11455
55.670 11.135199
55.675 11.075474
55.680 10.906302
55.685 11.052287
55.690 10.874318
55.695 11.134054
55.700 10.533754
55.705 9.914109
55.710 9.658255
55.715 9.655776
55.720 9.483287
55.725 9.308969
55.730 9.12605
55.735 9.098426
55.740 9.406787
55.745 9.488777
55.750 9.632735
55.755 9.762549
55.760 10.054251
55.765 9.986669
55.770 10.307226
55.775 10.317889
55.780 10.480948
55.785 10.547616
55.790 10.210356
55.795 9.871898
55.800 10.029223
55.805 10.233597
55.810 10.278163
55.815 10.057472
55.820 10.354856
55.825 10.928491
55.830 11.295525
55.835 11.716676
55.840 11.5515
55.845 11.663633
55.850 11.884979
55.855 11.560073
55.860 11.407542
55.865 11.250684
55.870 10.77404
55.875 10.501959
55.880 10.526661
55.885 10.348782
55.890 10.69899
55.895 10.387047
55.900 10.239669
55.905 10.422102
55.910 10.374987
55.915 10.186393
55.920 10.275434
55.925 10.417286
55.930 10.662655
55.935 10.741493
55.940 11.347579
55.945 12.532366
55.950 13.019272
55.955 12.712899
55.960 12.550501
55.965 12.518433
55.970 12.524654
55.975 11.889036
55.980 11.304729
55.985 10.879651
55.990 10.398379
55.995 10.655928
56.000 10.69674
56.005 11.006363
56.010 11.05383
56.015 10.521729
56.020 10.729652
56.025 11.009662
56.030 10.559451
56.035 10.042994
56.040 9.603535
56.045 9.284871
56.050 9.559724
56.055 9.136242
56.060 9.502781
56.065 10.067483
56.070 10.340474
56.075 10.562653
56.080 11.279013
56.085 11.511944
56.090 11.898964
56.095 11.519039
56.100 11.507492
56.105 11.602777
56.110 11.292108
56.115 10.609578
56.120 10.211924
56.125 9.881938
56.130 9.612795
56.135 9.622797
56.140 10.043622
56.145 10.437565
56.150 10.911514
56.155 11.324536
56.160 11.297696
56.165 11.273559
56.170 10.959892
56.175 10.806751
56.180 10.623869
56.185 10.56194
56.190 10.439985
56.195 10.557052
56.200 11.047343
56.205 11.151839
56.210 11.655622
56.215 11.98699
56.220 11.920593
56.225 12.314075
56.230 12.578197
56.235 12.932569
56.240 12.574738
56.245 11.9697
56.250 12.016899
56.255 11.914652
56.260 12.108206
56.265 11.881283
56.270 11.446718
56.275 11.745493
56.280 11.498578
56.285 11.188822
56.290 11.341811
56.295 11.150522
56.300 11.343853
56.305 11.45297
56.310 11.781922
56.315 12.155856
56.320 12.724728
56.325 12.335164
56.330 12.05997
56.335 12.086228
56.340 12.366023
56.345 11.811661
56.350 11.503991
56.355 10.966753
56.360 11.201838
56.365 11.659965
56.370 11.192404
56.375 10.864058
56.380 10.867127
56.385 11.163967
56.390 11.488212
56.395 11.643284
56.400 11.670512
56.405 12.31124
56.410 12.714985
56.415 13.1346
56.420 13.300338
56.425 13.630996
56.430 13.720607
56.435 14.1389
56.440 14.139014
56.445 13.945947
56.450 13.75103
56.455 13.665262
56.460 13.412187
56.465 13.291211
56.470 12.813092
56.475 12.505663
56.480 12.411175
56.485 12.601617
56.490 12.882685
56.495 12.545272
56.500 12.309813
56.505 12.151892
56.510 11.82542
56.515 11.454997
56.520 11.338289
56.525 11.140014
56.530 11.721431
56.535 11.653715
56.540 11.712991
56.545 11.764792
56.550 11.594464
56.555 11.166034
56.560 10.550033
56.565 9.82077
56.570 9.707404
56.575 10.068663
56.580 10.68973
56.585 11.004738
56.590 11.526037
56.595 12.046147
56.600 12.383717
56.605 12.664228
56.610 12.764019
56.615 12.831182
56.620 13.309079
56.625 13.382934
56.630 13.479857
56.635 14.059045
56.640 13.916571
56.645 14.015372
56.650 14.062871
56.655 13.813307
56.660 13.906743
56.665 13.917658
56.670 13.43977
56.675 13.054946
56.680 12.576339
56.685 12.134869
56.690 11.708078
56.695 11.767373
56.700 11.995376
56.705 12.133004
56.710 12.080895
56.715 12.224676
56.720 12.623956
56.725 13.080291
56.730 12.802353
56.735 12.091731
56.740 11.955564
56.745 12.279993
56.750 12.478097
56.755 12.408293
56.760 11.627285
56.765 11.531526
56.770 12.028333
56.775 12.405396
56.780 12.188825
56.785 12.272989
56.790 12.5404
56.795 13.049742
56.800 13.147872
56.805 13.127834
56.810 13.476831
56.815 13.820144
56.820 13.767272
56.825 13.562028
56.830 13.74765
56.835 14.182803
56.840 14.074126
56.845 13.505915
56.850 13.235888
56.855 12.839231
56.860 12.537563
56.865 12.237174
56.870 12.324443
56.875 12.376348
56.880 12.171128
56.885 11.977553
56.890 12.194209
56.895 12.63923
56.900 12.168452
56.905 11.701497
56.910 11.805389
56.915 12.189097
56.920 12.27875
56.925 12.04512
56.930 11.886959
56.935 12.450838
56.940 12.308687
56.945 12.371567
56.950 12.72805
56.955 13.178898
56.960 13.568268
56.965 13.82998
56.970 13.6211
56.975 13.521683
56.980 12.890675
56.985 12.455025
56.990 12.090438
56.995 11.745584
57.000 11.824129
57.005 12.254116
57.010 12.322604
57.015 12.634462
57.020 12.307912
57.025 12.54648
57.030 12.855277
57.035 12.72259
57.040 12.534992
57.045 12.597306
57.050 12.701163
57.055 12.937594
57.060 12.765862
57.065 12.616837
57.070 12.466752
57.075 12.754805
57.080 13.056548
57.085 13.207036
57.090 13.305614
57.095 13.353606
57.100 13.14095
57.105 12.963367
57.110 12.743313
57.115 12.621693
57.120 12.802581
57.125 12.587885
57.130 12.912819
57.135 13.172874
57.140 13.347922
57.145 12.943275
57.150 12.346969
57.155 12.180449
57.160 12.124137
57.165 12.081979
57.170 12.038579
57.175 12.114089
57.180 12.449312
57.185 12.616361
57.190 12.780842
57.195 12.704719
57.200 12.301192
57.205 11.935712
57.210 11.705044
57.215 11.888163
57.220 12.342255
57.225 12.846013
57.230 13.36511
57.235 13.384397
57.240 13.683157
57.245 13.804025
57.250 13.304515
57.255 12.627258
57.260 11.823556
57.265 11.711915
57.270 11.770122
57.275 12.452881
57.280 12.471716
57.285 12.758817
57.290 13.080191
57.295 13.028843
57.300 12.936308
57.305 12.859735
57.310 12.497018
57.315 12.662827
57.320 13.030722
57.325 12.679579
57.330 12.674655
57.335 13.039063
57.340 13.151438
57.345 12.784656
57.350 12.71143
57.355 12.409827
57.360 12.828592
57.365 13.091152
57.370 12.917415
57.375 12.553317
57.380 12.658053
57.385 12.749544
57.390 12.900275
57.395 13.184021
57.400 13.428488
57.405 13.53147
57.410 13.958482
57.415 14.420536
57.420 14.474954
57.425 14.912753
57.430 14.871575
57.435 14.92911
57.440 14.983926
57.445 14.645396
57.450 14.005293
57.455 13.781172
57.460 13.413466
57.465 13.12335
57.470 13.092151
57.475 12.831548
57.480 12.569876
57.485 12.726894
57.490 12.120717
57.495 12.055859
57.500 11.871272
57.505 11.464024
57.510 11.414165
57.515 11.757849
57.520 11.742071
57.525 12.334318
57.530 12.350834
57.535 12.78765
57.540 13.078701
57.545 12.787654
57.550 13.026489
57.555 13.397503
57.560 12.967402
57.565 13.048633
57.570 12.94467
57.575 13.082621
57.580 13.41121
57.585 13.251082
57.590 13.046019
57.595 13.178494
57.600 13.408379
57.605 13.559681
57.610 13.694695
57.615 13.397119
57.620 13.888489
57.625 14.238
57.630 14.263165
57.635 13.975899
57.640 14.254327
57.645 14.199356
57.650 15.183315
57.655 14.761184
57.660 14.646674
57.665 14.758797
57.670 14.113224
57.675 13.240422
57.680 13.23181
57.685 13.229381
57.690 13.739843
57.695 14.222093
57.700 14.231713
57.705 14.386632
57.710 14.791252
57.715 14.527961
57.720 13.972811
57.725 13.370752
57.730 13.507688
57.735 13.567672
57.740 14.114534
57.745 14.462152
57.750 14.928011
57.755 15.018304
57.760 15.063695
57.765 15.317096
57.770 15.598978
57.775 15.517121
57.780 15.30749
57.785 14.984827
57.790 14.567194
57.795 14.212496
57.800 13.652352
57.805 13.651457
57.810 13.698762
57.815 13.776158
57.820 13.598972
57.825 13.876099
57.830 13.855014
57.835 14.147717
57.840 14.2586
57.845 14.079312
57.850 14.135123
57.855 14.570188
57.860 14.483362
57.865 14.38264
57.870 14.363612
57.875 13.883947
57.880 13.941357
57.885 14.425512
57.890 14.274904
57.895 14.346373
57.900 14.075763
57.905 13.824802
57.910 13.841486
57.915 13.789887
57.920 13.633241
57.925 13.807579
57.930 14.006621
57.935 14.171678
57.940 14.438693
57.945 14.790263
57.950 14.880749
57.955 14.840159
57.960 14.131924
57.965 14.349559
57.970 14.540493
57.975 14.548415
57.980 14.148932
57.985 13.853779
57.990 13.802025
57.995 14.100777
58.000 13.716082
58.005 13.689456
58.010 13.511169
58.015 14.299788
58.020 14.75401
58.025 14.585855
58.030 14.940216
58.035 15.250996
58.040 15.386015
58.045 15.154158
58.050 14.723113
58.055 14.753248
58.060 15.212399
58.065 15.385997
58.070 15.845703
58.075 15.971984
58.080 15.672856
58.085 15.900679
58.090 15.580363
58.095 15.419324
58.100 15.23926
58.105 15.225121
58.110 15.500377
58.115 15.831561
58.120 15.815257
58.125 15.63211
58.130 15.229676
58.135 14.85256
58.140 14.478633
58.145 14.597952
58.150 14.303039
58.155 14.119333
58.160 14.380965
58.165 14.429824
58.170 14.233347
58.175 13.698586
58.180 13.23877
58.185 13.87418
58.190 13.818142
58.195 14.353971
58.200 15.073241
58.205 15.42161
58.210 16.097185
58.215 16.395424
58.220 16.159155
58.225 16.059534
58.230 15.74304
58.235 15.753235
58.240 16.310163
58.245 16.360394
58.250 16.332523
58.255 16.284538
58.260 16.790443
58.265 17.330009
58.270 17.151173
58.275 16.755781
58.280 16.809517
58.285 17.235155
58.290 17.328058
58.295 16.778828
58.300 16.205763
58.305 16.719475
58.310 17.280706
58.315 16.865093
58.320 16.835989
58.325 17.569662
58.330 18.269855
58.335 18.593115
58.340 18.346973
58.345 17.979986
58.350 18.239454
58.355 18.351587
58.360 18.694376
58.365 19.176359
58.370 19.766094
58.375 19.588852
58.380 19.471619
58.385 19.692307
58.390 19.387186
58.395 18.760202
58.400 17.780872
58.405 17.645433
58.410 17.965582
58.415 18.079493
58.420 17.823008
58.425 17.393152
58.430 17.447422
58.435 18.087936
58.440 17.950575
58.445 18.153467
58.450 18.8885
58.455 20.491413
58.460 21.096827
58.465 21.360739
58.470 21.467354
58.475 21.5228
58.480 21.654118
58.485 21.679941
58.490 21.466654
58.495 21.906603
58.500 22.174097
58.505 22.229858
58.510 22.211508
58.515 22.547598
58.520 22.28969
58.525 21.582876
58.530 21.283756
58.535 20.716301
58.540 20.497263
58.545 20.149811
58.550 19.543564
58.555 19.770668
58.560 19.559671
58.565 18.811441
58.570 18.837992
58.575 18.815022
58.580 18.481064
58.585 18.152849
58.590 18.20517
58.595 19.148745
58.600 20.140394
58.605 20.418339
58.610 21.144131
58.615 21.598108
58.620 22.354412
58.625 22.587744
58.630 22.645704
58.635 22.680069
58.640 23.015482
58.645 22.984634
58.650 23.508465
58.655 23.477772
58.660 23.197508
58.665 23.485327
58.670 23.197382
58.675 23.222086
58.680 23.529016
58.685 22.902296
58.690 22.743742
58.695 23.215776
58.700 22.686689
58.705 22.82774
58.710 22.67091
58.715 22.639469
58.720 23.063932
58.725 22.605164
58.730 21.961176
58.735 22.691236
58.740 22.885469
58.745 22.730177
58.750 23.165571
58.755 22.821676
58.760 23.255808
58.765 23.090178
58.770 22.377386
58.775 22.471733
58.780 21.953154
58.785 21.255619
58.790 21.862667
58.795 21.909128
58.800 22.282764
58.805 22.477488
58.810 22.815132
58.815 23.955112
58.820 24.289812
58.825 24.211658
58.830 24.000023
58.835 23.4613
58.840 23.433748
58.845 22.613155
58.850 21.921431
58.855 21.566139
58.860 21.577705
58.865 22.120024
58.870 22.456161
58.875 22.183842
58.880 22.754848
58.885 23.037251
58.890 23.544127
58.895 23.683104
58.900 23.653553
58.905 23.584681
58.910 23.71792
58.915 23.182543
58.920 23.299765
58.925 23.371681
58.930 23.154707
58.935 22.843655
58.940 22.968735
58.945 23.553446
58.950 23.86216
58.955 23.215876
58.960 22.469088
58.965 22.25404
58.970 22.325005
58.975 21.784214
58.980 21.261604
58.985 21.239544
58.990 21.173933
58.995 21.459908
59.000 21.499807
59.005 21.67379
59.010 22.419939
59.015 22.344927
59.020 21.88662
59.025 22.498285
59.030 22.504519
59.035 22.259586
59.040 22.171587
59.045 21.487263
59.050 20.923107
59.055 20.318829
59.060 19.755735
59.065 19.839451
59.070 19.505619
59.075 19.085335
59.080 19.307119
59.085 19.443422
59.090 19.940023
59.095 19.716928
59.100 19.251757
59.105 19.405916
59.110 19.632353
59.115 19.768425
59.120 20.2866
59.125 20.427229
59.130 20.4624
59.135 20.548428
59.140 20.625965
59.145 20.572689
59.150 20.030138
59.155 19.807899
59.160 20.035334
59.165 19.938772
59.170 20.446447
59.175 20.804199
59.180 21.471031
59.185 21.822096
59.190 21.506147
59.195 20.937284
59.200 20.982647
59.205 20.578457
59.210 20.108152
59.215 19.367746
59.220 18.95693
59.225 19.176025
59.230 19.348425
59.235 19.507492
59.240 19.998081
59.245 19.844416
59.250 18.891281
59.255 18.841536
59.260 18.793091
59.265 18.763821
59.270 18.679876
59.275 17.525679
59.280 17.399908
59.285 17.964529
59.290 17.886702
59.295 18.266912
59.300 17.940989
59.305 17.457952
59.310 17.950228
59.315 18.438988
59.320 18.789825
59.325 19.176201
59.330 18.452093
59.335 18.801968
59.340 19.22962
59.345 19.435745
59.350 19.462896
59.355 19.049294
59.360 18.700352
59.365 19.339188
59.370 18.929501
59.375 18.912949
59.380 18.267799
59.385 18.185009
59.390 18.684721
59.395 18.726812
59.400 18.368916
59.405 18.134785
59.410 18.067146
59.415 18.261629
59.420 17.857542
59.425 17.99136
59.430 17.709621
59.435 17.542692
59.440 17.741642
59.445 17.93664
59.450 17.747431
59.455 17.601944
59.460 16.615833
59.465 16.392023
59.470 16.047417
59.475 15.78563
59.480 15.774166
59.485 16.947701
59.490 17.047213
59.495 17.335791
59.500 18.065468
59.505 18.451302
59.510 18.477667
59.515 17.681635
59.520 16.691847
59.525 16.909658
59.530 16.300375
59.535 15.731618
59.540 15.90092
59.545 16.302456
59.550 16.782211
59.555 17.036093
59.560 17.264017
59.565 17.668564
59.570 17.513958
59.575 16.922201
59.580 16.444807
59.585 16.42478
59.590 16.479778
59.595 16.519924
59.600 17.37476
59.605 18.08449
59.610 18.42659
59.615 18.266556
59.620 17.56146
59.625 16.790085
59.630 16.312815
59.635 15.693292
59.640 15.524395
59.645 15.761429
59.650 16.421249
59.655 17.041563
59.660 17.008574
59.665 16.939592
59.670 16.850935
59.675 16.507317
59.680 15.620321
59.685 15.025256
59.690 15.358977
59.695 16.001831
59.700 15.82654
59.705 15.914124
59.710 16.279898
59.715 16.849676
59.720 17.166336
59.725 17.12435
59.730 17.170404
59.735 17.313002
59.740 17.182032
59.745 16.899536
59.750 16.926264
59.755 16.796207
59.760 15.991521
59.765 15.48541
59.770 15.12131
59.775 14.8822
59.780 15.068647
59.785 15.622065
59.790 15.790418
59.795 16.369568
59.800 16.298265
59.805 16.661518
59.810 16.69401
59.815 16.821699
59.820 16.503174
59.825 16.944468
59.830 17.209368
59.835 17.000837
59.840 16.954082
59.845 16.910683
59.850 16.669691
59.855 16.104343
59.860 15.690457
59.865 15.582206
59.870 16.043167
59.875 15.636388
59.880 15.879708
59.885 15.936201
59.890 15.946387
59.895 15.441929
59.900 15.251726
59.905 15.267776
59.910 15.394326
59.915 14.788315
59.920 14.394203
59.925 14.358459
59.930 14.643723
59.935 14.727297
59.940 14.342635
59.945 14.13947
59.950 14.586764
59.955 14.628554
59.960 14.650317
59.965 14.203024
59.970 13.648702
59.975 13.917027
59.980 13.959265
59.985 14.189798
59.990 14.721755
59.995 15.270006
60.000 15.559696
60.005 15.751444
60.010 15.858155
60.015 15.778024
60.020 15.139299
60.025 14.695394
60.030 14.407061
60.035 14.640468
60.040 14.515698
60.045 15.047914
60.050 15.577786
60.055 15.980393
60.060 16.104183
60.065 15.67506
60.070 15.465708
60.075 15.703226
60.080 15.132698
60.085 14.576346
60.090 14.45328
60.095 14.958765
60.100 15.702282
60.105 15.851886
60.110 15.873018
60.115 15.560237
60.120 15.649305
60.125 15.811939
60.130 15.967994
60.135 16.163002
60.140 16.107504
60.145 16.307802
60.150 16.99655
60.155 17.423553
60.160 17.074697
60.165 16.643162
60.170 16.359827
60.175 16.476683
60.180 15.979602
60.185 15.696062
60.190 15.727715
60.195 15.823201
60.200 16.139807
60.205 16.09219
60.210 15.80404
60.215 16.105301
60.220 15.775582
60.225 15.540319
60.230 15.764593
60.235 15.456104
60.240 15.592113
60.245 15.465702
60.250 15.482018
60.255 15.912292
60.260 16.080339
60.265 15.811542
60.270 15.949918
60.275 15.582478
60.280 15.766842
60.285 15.742498
60.290 15.761047
60.295 15.891774
60.300 16.239349
60.305 16.173862
60.310 16.058168
60.315 15.914507
60.320 15.576663
60.325 15.111403
60.330 14.460432
60.335 13.711373
60.340 13.902869
60.345 14.62141
60.350 15.079684
60.355 15.379026
60.360 15.26338
60.365 15.13675
60.370 14.837511
60.375 14.510409
60.380 14.405305
60.385 14.323258
60.390 14.543141
60.395 15.244404
60.400 15.956148
60.405 16.380821
60.410 16.327131
60.415 15.765471
60.420 15.625821
60.425 15.674234
60.430 15.381255
60.435 15.086456
60.440 14.636654
60.445 14.621223
60.450 14.440784
60.455 14.152377
60.460 13.748395
60.465 13.49791
60.470 13.713578
60.475 14.270632
60.480 14.872592
60.485 15.465847
60.490 16.032806
60.495 16.090998
60.500 16.099329
60.505 16.077311
60.510 16.017464
60.515 15.656574
60.520 14.995523
60.525 14.875107
60.530 15.225435
60.535 14.830743
60.540 14.33529
60.545 14.288659
60.550 14.300649
60.555 14.548378
60.560 14.28492
60.565 14.156875
60.570 14.835541
60.575 14.854826
60.580 14.674186
60.585 14.673495
60.590 14.772612
60.595 15.08409
60.600 15.44077
60.605 15.777541
60.610 16.011229
60.615 16.463797
60.620 16.531111
60.625 16.46924
60.630 15.657266
60.635 15.367124
60.640 14.871187
60.645 14.480943
60.650 14.236297
60.655 14.560952
60.660 14.967052
60.665 15.625509
60.670 15.858783
60.675 16.275957
60.680 16.777252
60.685 16.435541
60.690 16.60358
60.695 16.243578
60.700 15.276903
60.705 14.656208
60.710 14.361159
60.715 14.007848
60.720 13.916429
60.725 13.038391
60.730 13.103288
60.735 13.862459
60.740 14.376395
60.745 14.259725
60.750 14.510255
60.755 14.873211
60.760 15.394801
60.765 15.785029
60.770 15.525166
60.775 15.421533
60.780 15.863483
60.785 15.827209
60.790 16.052788
60.795 15.801595
60.800 15.066615
60.805 14.813662
60.810 14.260696
60.815 14.139194
60.820 13.621175
60.825 13.821802
60.830 13.991437
60.835 14.301975
60.840 14.427304
60.845 15.105832
60.850 15.33951
60.855 15.664136
60.860 14.965618
60.865 14.906725
60.870 14.786197
60.875 14.870609
60.880 14.180712
60.885 14.051962
60.890 13.912263
60.895 14.212497
60.900 14.216903
60.905 14.5685
60.910 15.027965
60.915 15.539634
60.920 15.365078
60.925 15.596386
60.930 15.478125
60.935 15.75819
60.940 15.662169
60.945 15.17246
60.950 14.561149
60.955 14.428085
60.960 14.501233
60.965 14.746391
60.970 14.477734
60.975 14.355645
60.980 14.052383
60.985 13.885205
60.990 14.359488
60.995 14.268329
61.000 14.191083
61.005 14.009106
61.010 13.934091
61.015 14.334571
61.020 14.562732
61.025 14.370577
61.030 14.453466
61.035 14.093745
61.040 14.430899
61.045 13.957666
61.050 13.613104
61.055 12.957001
61.060 12.528708
61.065 12.628103
61.070 12.967705
61.075 13.299255
61.080 14.121679
61.085 14.709704
61.090 15.366289
61.095 15.843503
61.100 15.472507
61.105 15.369443
61.110 15.115799
61.115 15.165405
61.120 14.878612
61.125 14.917705
61.130 14.973357
61.135 15.840565
61.140 15.567079
61.145 15.325019
61.150 15.27617
61.155 15.504725
61.160 15.436437
61.165 15.355985
61.170 14.868431
61.175 14.987614
61.180 14.9018
61.185 15.10833
61.190 15.040203
61.195 15.370216
61.200 15.431176
61.205 15.957569
61.210 16.633167
61.215 16.850904
61.220 16.818766
61.225 16.823944
61.230 16.75655
61.235 16.09127
61.240 15.754579
61.245 15.605206
61.250 15.45706
61.255 15.533913
61.260 15.929633
61.265 16.499929
61.270 17.244955
61.275 16.548054
61.280 16.55278
61.285 16.403128
61.290 15.83316
61.295 15.346189
61.300 15.435801
61.305 15.391324
61.310 15.794966
61.315 15.729766
61.320 15.863031
61.325 16.359146
61.330 16.102861
61.335 15.099087
61.340 15.053116
61.345 15.111986
61.350 14.813322
61.355 14.654181
61.360 14.372786
61.365 14.480894
61.370 13.957146
61.375 13.066101
61.380 12.928214
61.385 13.520612
61.390 13.809136
61.395 13.949171
61.400 13.966052
61.405 14.343172
61.410 14.927318
61.415 14.695965
61.420 14.434551
61.425 13.914228
61.430 13.438533
61.435 13.710365
61.440 13.983713
61.445 13.958751
61.450 14.559762
61.455 14.83316
61.460 15.293365
61.465 15.402835
61.470 15.534079
61.475 15.815302
61.480 15.529758
61.485 14.825089
61.490 14.470222
61.495 14.659062
61.500 14.572733
61.505 14.604206
61.510 14.712565
61.515 15.732737
61.520 16.360256
61.525 16.293743
61.530 16.325256
61.535 16.554939
61.540 16.503429
61.545 16.556356
61.550 16.089762
61.555 15.74359
61.560 15.867831
61.565 16.211168
61.570 16.464882
61.575 16.433071
61.580 16.240858
61.585 15.794329
61.590 15.971332
61.595 15.764439
61.600 15.499731
61.605 15.509707
61.610 15.871218
61.615 16.133801
61.620 16.33003
61.625 16.223789
61.630 16.213249
61.635 16.265697
61.640 16.166546
61.645 15.408872
61.650 15.055446
61.655 15.479244
61.660 15.541475
61.665 15.836555
61.670 15.718807
61.675 15.56078
61.680 15.769367
61.685 15.767277
61.690 15.21307
61.695 14.798531
61.700 14.354164
61.705 14.568358
61.710 14.851242
61.715 15.129811
61.720 14.829221
61.725 15.130935
61.730 15.630451
61.735 15.960116
61.740 15.822944
61.745 15.718457
61.750 15.72303
61.755 16.21406
61.760 16.062788
61.765 15.698802
61.770 15.61114
61.775 15.74822
61.780 15.395344
61.785 15.344831
61.790 15.22507
61.795 15.084271
61.800 15.146529
61.805 15.078138
61.810 15.257866
61.815 16.094067
61.820 16.1101
61.825 15.790142
61.830 16.315298
61.835 16.074259
61.840 15.742034
61.845 15.716995
61.850 15.544497
61.855 15.364191
61.860 15.589447
61.865 15.735142
61.870 16.641989
61.875 17.196131
61.880 17.277193
61.885 16.904247
61.890 17.341921
61.895 17.283897
61.900 16.89259
61.905 16.162016
61.910 15.803746
61.915 15.324025
61.920 15.562523
61.925 15.106898
61.930 15.358388
61.935 15.282702
61.940 15.433258
61.945 15.205914
61.950 15.343274
61.955 15.142665
61.960 15.538602
61.965 15.470416
61.970 15.734483
61.975 16.405104
61.980 16.316244
61.985 16.007923
61.990 15.664173
61.995 14.983168
62.000 15.313417
62.005 15.830647
62.010 15.644486
62.015 15.902262
62.020 16.514971
62.025 16.754587
62.030 17.337275
62.035 17.188408
62.040 16.803509
62.045 16.61133
62.050 17.168995
62.055 16.866743
62.060 16.851847
62.065 16.891273
62.070 16.760778
62.075 16.633606
62.080 16.632671
62.085 15.967943
62.090 16.087585
62.095 16.300539
62.100 15.758385
62.105 15.417109
62.110 14.742098
62.115 14.925946
62.120 15.361838
62.125 15.471457
62.130 16.094973
62.135 16.883011
62.140 17.020523
62.145 17.258852
62.150 16.797785
62.155 16.573174
62.160 16.261745
62.165 15.470624
62.170 14.842779
62.175 15.243369
62.180 15.688427
62.185 15.680877
62.190 15.370525
62.195 15.410236
62.200 15.466756
62.205 15.833319
62.210 15.450927
62.215 15.493388
62.220 15.617372
62.225 16.482132
62.230 16.958967
62.235 17.545938
62.240 17.852087
62.245 17.860699
62.250 17.463028
62.255 17.452284
62.260 16.560595
62.265 16.222389
62.270 15.410891
62.275 14.654472
62.280 14.03234
62.285 14.180212
62.290 14.34492
62.295 14.908141
62.300 15.024073
62.305 15.175015
62.310 15.412519
62.315 15.556413
62.320 15.556902
62.325 14.965384
62.330 14.49029
62.335 14.422372
62.340 14.318725
62.345 14.7961
62.350 15.056167
62.355 15.18786
62.360 15.923126
62.365 16.344906
62.370 16.718695
62.375 16.671549
62.380 16.7325
62.385 16.967014
62.390 17.042164
62.395 16.57288
62.400 16.623377
62.405 17.029139
62.410 17.519983
62.415 17.393379
62.420 17.359066
62.425 17.273703
62.430 17.22436
62.435 16.65251
62.440 16.098619
62.445 15.57311
62.450 15.389554
62.455 15.60723
62.460 15.683105
62.465 15.480336
62.470 15.510441
62.475 15.788219
62.480 15.946709
62.485 15.946572
62.490 15.600511
62.495 15.49966
62.500 15.46206
62.505 15.245339
62.510 15.182782
62.515 15.556492
62.520 15.648981
62.525 15.426356
62.530 15.118767
62.535 15.040509
62.540 14.694363
62.545 14.294726
62.550 13.653236
62.555 13.796352
62.560 13.974516
62.565 14.181516
62.570 14.692969
62.575 15.280452
62.580 15.481833
62.585 15.76239
62.590 15.698056
62.595 16.055635
62.600 16.022451
62.605 16.313448
62.610 16.700216
62.615 17.319527
62.620 17.106701
62.625 16.650856
62.630 16.757566
62.635 16.638155
62.640 15.712909
62.645 14.883615
62.650 14.729526
62.655 14.633183
62.660 15.419602
62.665 15.371099
62.670 15.95542
62.675 16.509447
62.680 16.633745
62.685 16.462158
62.690 16.55357
62.695 15.784752
62.700 15.691041
62.705 16.183229
62.710 16.537367
62.715 16.813175
62.720 17.161337
62.725 17.369324
62.730 18.222214
62.735 18.594412
62.740 18.150976
62.745 18.115784
62.750 17.923521
62.755 17.535915
62.760 17.229666
62.765 16.697506
62.770 15.963317
62.775 15.691171
62.780 15.624192
62.785 15.889668
62.790 16.142174
62.795 16.013638
62.800 16.268454
62.805 16.982983
62.810 17.066322
62.815 17.032555
62.820 16.630138
62.825 16.732798
62.830 16.744123
62.835 16.781708
62.840 16.529671
62.845 16.46637
62.850 16.208296
62.855 16.564074
62.860 16.85977
62.865 17.152651
62.870 17.119116
62.875 16.998056
62.880 17.427734
62.885 17.197105
62.890 16.527502
62.895 15.735005
62.900 15.927732
62.905 15.866921
62.910 15.618872
62.915 15.180557
62.920 15.922746
62.925 16.705727
62.930 16.905243
62.935 16.191942
62.940 15.886976
62.945 15.667065
62.950 15.623055
62.955 15.549393
62.960 15.272891
62.965 15.10102
62.970 15.310589
62.975 16.221796
62.980 16.374029
62.985 16.336103
62.990 16.055946
62.995 16.163628
63.000 16.176352
63.005 15.622586
63.010 15.052608
63.015 15.484307
63.020 15.580178
63.025 15.791966
63.030 15.552587
63.035 15.752557
63.040 16.409586
63.045 16.70262
63.050 16.445961
63.055 16.191168
63.060 15.896412
63.065 16.195215
63.070 16.619579
63.075 16.53981
63.080 16.423117
63.085 15.942657
63.090 15.92813
63.095 16.136471
63.100 15.941344
63.105 15.971005
63.110 16.012299
63.115 16.704908
63.120 17.463287
63.125 17.577892
63.130 17.693583
63.135 17.784359
63.140 17.429407
63.145 17.062693
63.150 17.01857
63.155 17.418146
63.160 17.748442
63.165 17.731001
63.170 17.591053
63.175 17.727375
63.180 17.51317
63.185 16.989082
63.190 16.482857
63.195 15.942545
63.200 15.836563
63.205 15.857656
63.210 15.969988
63.215 16.319088
63.220 16.255716
63.225 16.65045
63.230 16.575911
63.235 16.626757
63.240 16.788557
63.245 16.69495
63.250 16.888769
63.255 16.908592
63.260 16.830357
63.265 16.889767
63.270 17.057007
63.275 17.273157
63.280 17.559725
63.285 18.041468
63.290 18.072859
63.295 17.856071
63.300 18.160418
63.305 18.391731
63.310 18.631639
63.315 18.281282
63.320 17.939205
63.325 18.085585
63.330 17.918379
63.335 17.57118
63.340 17.361223
63.345 17.547092
63.350 17.469009
63.355 17.841431
63.360 17.831083
63.365 17.71241
63.370 17.61413
63.375 17.241295
63.380 17.102333
63.385 17.755211
63.390 17.100407
63.395 16.840105
63.400 16.957928
63.405 17.600338
63.410 17.788498
63.415 17.339712
63.420 17.190348
63.425 17.545843
63.430 18.162706
63.435 18.47788
63.440 18.267115
63.445 18.365456
63.450 18.087072
63.455 17.932222
63.460 17.840136
63.465 17.277113
63.470 17.365486
63.475 17.437202
63.480 17.361523
63.485 17.114643
63.490 16.609037
63.495 16.257607
63.500 15.959454
63.505 16.110481
63.510 16.252914
63.515 16.241478
63.520 17.008078
63.525 17.136688
63.530 17.12895
63.535 17.704967
63.540 17.79143
63.545 17.345535
63.550 18.020618
63.555 18.054831
63.560 17.849146
63.565 17.979658
63.570 18.00532
63.575 17.737268
63.580 17.679867
63.585 16.893436
63.590 16.559809
63.595 17.539095
63.600 17.505445
63.605 17.308874
63.610 17.239361
63.615 17.296221
63.620 17.322521
63.625 17.072393
63.630 16.575006
63.635 16.707924
63.640 16.758507
63.645 17.031792
63.650 17.138538
63.655 17.608135
63.660 18.528034
63.665 18.52112
63.670 18.406902
63.675 18.497314
63.680 18.579906
63.685 18.588058
63.690 18.787594
63.695 17.744036
63.700 18.081284
63.705 17.862846
63.710 17.777554
63.715 18.080719
63.720 18.091684
63.725 18.045332
63.730 18.720846
63.735 18.685513
63.740 19.048157
63.745 18.773125
63.750 18.795139
63.755 18.489902
63.760 17.960653
63.765 17.635792
63.770 17.771143
63.775 18.297468
63.780 18.923269
63.785 18.798792
63.790 19.140717
63.795 19.32559
63.800 19.228214
63.805 18.996229
63.810 19.032515
63.815 19.169291
63.820 19.240494
63.825 19.452007
63.830 19.810762
63.835 20.352238
63.840 19.984545
63.845 19.403255
63.850 18.997004
63.855 18.86554
63.860 18.870958
63.865 18.962395
63.870 19.016468
63.875 19.263958
63.880 19.050159
63.885 18.598125
63.890 18.929745
63.895 19.013906
63.900 18.908186
63.905 19.047451
63.910 19.308537
63.915 19.656446
63.920 19.996267
63.925 19.760656
63.930 19.772791
63.935 19.858643
63.940 19.381557
63.945 19.291349
63.950 19.526894
63.955 20.136374
63.960 20.92252
63.965 21.131998
63.970 21.561354
63.975 21.768862
63.980 22.146112
63.985 22.813482
63.990 22.810562
63.995 22.608288
64.000 22.409203
64.005 22.281197
64.010 23.051289
64.015 23.762129
64.020 24.05352
64.025 24.495325
64.030 25.12034
64.035 25.982059
64.040 25.790392
64.045 25.970316
64.050 25.997978
64.055 25.188307
64.060 24.617197
64.065 24.321472
64.070 23.956882
64.075 24.53252
64.080 23.828472
64.085 23.353125
64.090 23.684153
64.095 24.095827
64.100 23.915077
64.105 24.160477
64.110 24.271095
64.115 24.71093
64.120 25.166225
64.125 25.033791
64.130 24.577127
64.135 24.245277
64.140 23.647539
64.145 23.189793
64.150 22.790434
64.155 22.654087
64.160 22.462561
64.165 23.085411
64.170 23.562986
64.175 24.036814
64.180 24.485176
64.185 24.45746
64.190 23.908155
64.195 23.732149
64.200 23.352068
64.205 23.317833
64.210 23.468901
64.215 23.822147
64.220 24.521753
64.225 25.685074
64.230 26.192307
64.235 25.878363
64.240 25.928326
64.245 25.503187
64.250 25.515795
64.255 24.676903
64.260 23.934961
64.265 23.977449
64.270 24.195652
64.275 23.773886
64.280 23.58761
64.285 23.602726
64.290 24.328804
64.295 24.664726
64.300 24.716654
64.305 24.647131
64.310 25.144564
64.315 25.333605
64.320 25.224522
64.325 25.607555
64.330 25.873051
64.335 25.847902
64.340 26.470335
64.345 26.662701
64.350 26.952429
64.355 27.199015
64.360 27.224123
64.365 27.622507
64.370 27.704231
64.375 27.338717
64.380 27.481733
64.385 27.447712
64.390 27.032499
64.395 27.166714
64.400 26.662931
64.405 26.887918
64.410 26.902889
64.415 26.660725
64.420 26.789297
64.425 27.320768
64.430 26.937435
64.435 27.484087
64.440 28.021645
64.445 28.030453
64.450 27.912516
64.455 27.705095
64.460 27.564997
64.465 27.77844
64.470 27.248001
64.475 26.93564
64.480 26.970394
64.485 26.893764
64.490 27.299759
64.495 27.603273
64.500 27.076773
64.505 27.330751
64.510 27.027357
64.515 27.277817
64.520 27.638292
64.525 26.878643
64.530 26.400822
64.535 26.757587
64.540 26.794922
64.545 27.352982
64.550 26.984066
64.555 26.868017
64.560 26.959606
64.565 25.936756
64.570 25.188259
64.575 25.582422
64.580 25.14024
64.585 25.15708
64.590 24.771973
64.595 24.544237
64.600 25.132364
64.605 24.985327
64.610 24.126047
64.615 23.638088
64.620 23.205997
64.625 23.046305
64.630 23.203094
64.635 23.311327
64.640 23.385874
64.645 24.334015
64.650 24.524637
64.655 24.907976
64.660 25.14039
64.665 25.565035
64.670 25.885063
64.675 25.872385
64.680 25.19474
64.685 25.428379
64.690 25.402506
64.695 25.320826
64.700 24.707535
64.705 24.064016
64.710 23.718809
64.715 23.707121
64.720 23.296486
64.725 23.453503
64.730 23.281717
64.735 22.955072
64.740 23.090778
64.745 23.882055
64.750 23.841587
64.755 24.158752
64.760 24.065948
64.765 24.759619
64.770 25.301666
64.775 25.119967
64.780 24.466171
64.785 24.080767
64.790 23.236969
64.795 22.638115
64.800 22.087217
64.805 22.050835
64.810 23.018791
64.815 23.494749
64.820 24.197977
64.825 24.837402
64.830 25.325249
64.835 25.820417
64.840 25.426348
64.845 24.861095
64.850 24.918402
64.855 24.572994
64.860 24.78093
64.865 24.922606
64.870 24.548668
64.875 24.752632
64.880 24.731382
64.885 23.452129
64.890 23.766293
64.895 23.999334
64.900 23.759144
64.905 23.846464
64.910 23.43008
64.915 22.726582
64.920 23.244431
64.925 22.998194
64.930 21.982508
64.935 21.777025
64.940 22.257864
64.945 22.819387
64.950 23.29388
64.955 23.579952
64.960 23.385555
64.965 23.315279
64.970 22.876459
64.975 22.540672
64.980 23.133972
64.985 24.144346
64.990 24.563721
64.995 24.473198
65.000 24.73225
65.005 25.123297
65.010 25.423553
65.015 24.408646
65.020 24.397228
65.025 23.655737
65.030 24.562408
65.035 25.107965
65.040 25.179192
65.045 24.802555
65.050 25.238657
65.055 24.520403
65.060 24.622011
65.065 24.126068
65.070 24.070705
65.075 23.85182
65.080 23.988094
65.085 24.258953
65.090 24.774488
65.095 24.773298
65.100 23.959518
65.105 23.098923
65.110 22.56204
65.115 22.000793
65.120 21.5902
65.125 21.787426
65.130 22.310354
65.135 22.50337
65.140 22.758455
65.145 23.350439
65.150 23.89439
65.155 23.499632
65.160 23.022911
65.165 22.653
65.170 23.236973
65.175 23.859365
65.180 23.708195
65.185 23.468889
65.190 23.513893
65.195 22.791483
65.200 23.08445
65.205 23.106466
65.210 22.734308
65.215 22.365007
65.220 21.887638
65.225 22.103943
65.230 22.543358
65.235 22.571863
65.240 22.189922
65.245 22.100254
65.250 21.844589
65.255 22.280523
65.260 22.527142
65.265 22.290308
65.270 21.987764
65.275 21.89859
65.280 21.994953
65.285 22.277679
65.290 21.997103
65.295 21.422199
65.300 21.388777
65.305 21.081509
65.310 21.076611
65.315 21.610899
65.320 21.894556
65.325 21.896053
65.330 21.307697
65.335 21.050028
65.340 21.704046
65.345 21.85997
65.350 20.784046
65.355 20.172697
65.360 20.466171
65.365 20.668068
65.370 21.255968
65.375 20.771391
65.380 20.921659
65.385 21.395792
65.390 21.701359
65.395 21.63694
65.400 21.653187
65.405 20.465612
65.410 20.84967
65.415 21.069983
65.420 21.456148
65.425 21.463285
65.430 21.564672
65.435 21.973686
65.440 22.469011
65.445 22.116213
65.450 22.032984
65.455 21.991896
65.460 22.134972
65.465 21.602419
65.470 21.447098
65.475 21.497196
65.480 21.386984
65.485 20.795938
65.490 20.605179
65.495 20.482763
65.500 21.43523
65.505 21.315454
65.510 20.985125
65.515 20.931229
65.520 20.976355
65.525 20.820513
65.530 20.808245
65.535 20.364822
65.540 20.870159
65.545 21.279028
65.550 20.998224
65.555 20.9277
65.560 21.075041
65.565 21.459026
65.570 21.258741
65.575 21.149715
65.580 21.866806
65.585 23.313406
65.590 23.439199
65.595 22.900391
65.600 22.377796
65.605 22.499523
65.610 22.017107
65.615 21.434963
65.620 21.367867
65.625 22.145578
65.630 22.602083
65.635 22.455742
65.640 22.609293
65.645 23.160563
65.650 22.842348
65.655 21.860409
65.660 21.568003
65.665 21.503361
65.670 21.667629
65.675 21.485168
65.680 21.913469
65.685 22.251099
65.690 22.428753
65.695 23.098614
65.700 23.658558
65.705 23.806519
65.710 23.782528
65.715 23.065903
65.720 22.626799
65.725 22.377016
65.730 21.049919
65.735 20.207447
65.740 20.192268
65.745 20.974268
65.750 21.140253
65.755 21.653936
65.760 21.773569
65.765 22.79361
65.770 23.042715
65.775 22.970524
65.780 23.252705
65.785 23.452467
65.790 23.300375
65.795 23.363335
65.800 23.547747
65.805 24.605648
65.810 24.628017
65.815 24.246269
65.820 24.06131
65.825 24.677237
65.830 25.1786
65.835 24.448563
65.840 23.85968
65.845 24.015152
65.850 24.714188
65.855 25.58544
65.860 25.383684
65.865 25.368183
65.870 25.219051
65.875 26.192236
65.880 25.779305
65.885 24.987385
65.890 24.692556
65.895 24.519503
65.900 24.732424
65.905 25.364588
65.910 25.67598
65.915 26.637924
65.920 26.931913
65.925 27.348995
65.930 28.29159
65.935 28.47398
65.940 28.274273
65.945 27.966841
65.950 27.943544
65.955 27.746588
65.960 28.240992
65.965 28.646807
65.970 28.939045
65.975 28.624321
65.980 28.235813
65.985 28.699108
65.990 29.651823
65.995 29.76985
66.000 30.172804
66.005 30.210388
66.010 30.447458
66.015 30.176294
66.020 30.294476
66.025 30.40588
66.030 31.830017
66.035 31.271862
66.040 31.894846
66.045 33.258781
66.050 33.695297
66.055 33.236496
66.060 32.72353
66.065 31.46896
66.070 32.651009
66.075 32.817955
66.080 32.552635
66.085 33.418446
66.090 34.231339
66.095 35.218979
66.100 35.82777
66.105 35.284042
66.110 35.483231
66.115 35.512383
66.120 34.993473
66.125 35.103806
66.130 35.290199
66.135 35.576618
66.140 36.152317
66.145 36.434998
66.150 36.586979
66.155 36.323391
66.160 36.450844
66.165 36.648365
66.170 36.760609
66.175 36.836231
66.180 37.014523
66.185 37.678986
66.190 38.190903
66.195 37.855053
66.200 37.677834
66.205 37.773861
66.210 39.068054
66.215 39.718258
66.220 39.70158
66.225 39.951572
66.230 40.536831
66.235 40.865414
66.240 41.227882
66.245 41.075012
66.250 41.506565
66.255 42.315514
66.260 42.859768
66.265 42.647976
66.270 42.732327
66.275 42.16151
66.280 42.170616
66.285 41.365643
66.290 40.487396
66.295 40.504337
66.300 41.617249
66.305 42.032417
66.310 41.428722
66.315 40.769318
66.320 41.324627
66.325 41.622334
66.330 41.401253
66.335 40.476276
66.340 41.228523
66.345 41.883781
66.350 41.637772
66.355 41.501469
66.360 41.117691
66.365 40.275471
66.370 39.755802
66.375 39.07449
66.380 38.409904
66.385 38.507286
66.390 37.930626
66.395 37.089336
66.400 37.038963
66.405 37.236591
66.410 37.286888
66.415 37.564888
66.420 37.016453
66.425 37.228691
66.430 37.424713
66.435 37.661957
66.440 36.848515
66.445 36.213039
66.450 35.817719
66.455 35.921345
66.460 35.873795
66.465 35.610012
66.470 35.204971
66.475 34.949306
66.480 33.922287
66.485 33.87521
66.490 33.124981
66.495 32.532116
66.500 32.37183
66.505 31.850815
66.510 31.922447
66.515 31.378847
66.520 30.372789
66.525 29.512209
66.530 29.283739
66.535 28.807007
66.540 28.349752
66.545 27.780691
66.550 27.925211
66.555 28.125595
66.560 28.627428
66.565 28.47477
66.570 28.357525
66.575 28.276035
66.580 27.939396
66.585 27.325041
66.590 26.883131
66.595 26.332745
66.600 25.907049
66.605 25.735519
66.610 25.784058
66.615 25.787739
66.620 25.452599
66.625 25.327333
66.630 25.851299
66.635 25.641462
66.640 24.961018
66.645 24.143652
66.650 23.75951
66.655 24.186037
66.660 23.603521
66.665 22.641644
66.670 22.046442
66.675 21.781857
66.680 22.156395
66.685 21.359959
66.690 19.827459
66.695 19.465025
66.700 19.229677
66.705 19.330217
66.710 20.350407
66.715 20.362837
66.720 20.3295
66.725 20.683462
66.730 20.596695
66.735 20.368614
66.740 20.338797
66.745 20.477266
66.750 20.515911
66.755 21.003603
66.760 21.074947
66.765 20.604496
66.770 20.293066
66.775 20.143759
66.780 19.233772
66.785 18.680721
66.790 18.476469
66.795 18.112177
66.800 18.593548
66.805 19.016432
66.810 18.52948
66.815 18.579288
66.820 18.864229
66.825 19.290358
66.830 19.451054
66.835 19.587679
66.840 19.767
66.845 20.129831
66.850 20.206024
66.855 19.715841
66.860 19.296579
66.865 19.62084
66.870 19.422276
66.875 18.832737
66.880 18.824709
66.885 19.266323
66.890 19.468027
66.895 19.915777
66.900 19.831459
66.905 20.246027
66.910 20.796476
66.915 21.062609
66.920 20.735287
66.925 21.029045
66.930 20.523508
66.935 20.551702
66.940 20.323978
66.945 20.211411
66.950 19.786398
66.955 19.207418
66.960 18.823484
66.965 18.867329
66.970 18.582169
66.975 18.603245
66.980 18.598068
66.985 18.569168
66.990 19.672827
66.995 19.798689
67.000 20.539686
67.005 21.164244
67.010 21.72485
67.015 21.248535
67.020 20.796064
67.025 20.228653
67.030 19.830107
67.035 19.647322
67.040 19.070229
67.045 18.474224
67.050 18.908705
67.055 19.081282
67.060 19.016415
67.065 18.833437
67.070 18.369247
67.075 18.684921
67.080 18.753778
67.085 18.848625
67.090 18.852987
67.095 19.28215
67.100 19.773808
67.105 19.463825
67.110 19.065786
67.115 18.571442
67.120 18.842844
67.125 18.993885
67.130 19.05559
67.135 18.972641
67.140 19.236982
67.145 19.782578
67.150 20.308001
67.155 20.093983
67.160 20.190607
67.165 20.119305
67.170 20.421074
67.175 20.103985
67.180 19.102291
67.185 19.046057
67.190 18.844257
67.195 18.910006
67.200 18.850595
67.205 18.255829
67.210 18.03845
67.215 18.62892
67.220 18.631714
67.225 18.477524
67.230 18.512142
67.235 18.171974
67.240 18.583805
67.245 18.580151
67.250 18.56735
67.255 18.615711
67.260 18.588995
67.265 18.156836
67.270 18.066948
67.275 18.21323
67.280 18.766808
67.285 18.663074
67.290 18.437002
67.295 18.729948
67.300 18.730301
67.305 18.711843
67.310 18.695152
67.315 18.64978
67.320 19.084869
67.325 19.099398
67.330 19.098351
67.335 19.13995
67.340 19.249607
67.345 19.315662
67.350 19.253441
67.355 19.118795
67.360 19.308147
67.365 18.962879
67.370 19.220121
67.375 19.413801
67.380 19.187752
67.385 19.368603
67.390 18.970564
67.395 18.520357
67.400 19.277164
67.405 19.254868
67.410 19.418684
67.415 19.433231
67.420 19.247589
67.425 19.300846
67.430 19.271292
67.435 18.525038
67.440 18.310856
67.445 18.771122
67.450 19.418962
67.455 19.453768
67.460 19.344023
67.465 19.391705
67.470 19.63965
67.475 19.584602
67.480 19.397167
67.485 19.209108
67.490 18.956039
67.495 19.435522
67.500 19.956837
67.505 20.317944
67.510 20.093973
67.515 19.592632
67.520 19.520966
67.525 20.201252
67.530 20.036402
67.535 20.163906
67.540 20.205669
67.545 20.468281
67.550 20.675415
67.555 20.722038
67.560 20.339182
67.565 20.587269
67.570 20.252327
67.575 20.117657
67.580 19.948416
67.585 19.967592
67.590 19.854792
67.595 20.075289
67.600 20.023087
67.605 19.953835
67.610 19.918205
67.615 19.940813
67.620 19.57416
67.625 19.880583
67.630 19.812408
67.635 19.568605
67.640 19.718449
67.645 19.445967
67.650 19.241476
67.655 19.175495
67.660 18.892998
67.665 18.40942
67.670 18.593437
67.675 18.273544
67.680 18.853138
67.685 19.141193
67.690 18.98554
67.695 19.119423
67.700 19.653229
67.705 19.489805
67.710 19.426842
67.715 19.2265
67.720 19.193748
67.725 19.419258
67.730 18.659513
67.735 17.946739
67.740 18.259722
67.745 17.979412
67.750 17.925293
67.755 18.097672
67.760 17.508465
67.765 17.658867
67.770 17.741461
67.775 17.839558
67.780 17.833519
67.785 17.682106
67.790 18.174921
67.795 19.196198
67.800 19.739588
67.805 19.789474
67.810 19.451609
67.815 19.222406
67.820 19.087269
67.825 18.407566
67.830 18.05743
67.835 18.091175
67.840 18.485653
67.845 18.981627
67.850 19.389378
67.855 19.283686
67.860 19.150307
67.865 19.030191
67.870 19.144379
67.875 18.972773
67.880 18.856274
67.885 18.63855
67.890 18.4734
67.895 18.610672
67.900 18.882429
67.905 18.898794
67.910 18.5324
67.915 18.689465
67.920 19.147575
67.925 19.630648
67.930 19.551365
67.935 18.981689
67.940 18.806223
67.945 18.273922
67.950 17.839169
67.955 17.282112
67.960 17.23373
67.965 17.037218
67.970 16.842573
67.975 16.705309
67.980 17.132113
67.985 17.059107
67.990 17.923273
67.995 18.014444
68.000 18.398191
68.005 18.725235
68.010 19.325171
68.015 20.20196
68.020 21.130705
68.025 21.278162
68.030 21.354919
68.035 21.183973
68.040 21.031475
68.045 20.756681
68.050 20.650555
68.055 20.123652
68.060 19.122873
68.065 18.673931
68.070 18.723383
68.075 19.378119
68.080 19.503159
68.085 19.131302
68.090 19.015608
68.095 19.366159
68.100 19.804138
68.105 20.219084
68.110 20.331646
68.115 19.881556
68.120 19.858341
68.125 19.778475
68.130 19.535789
68.135 19.45644
68.140 19.224419
68.145 19.057564
68.150 19.720623
68.155 19.931108
68.160 20.451805
68.165 20.965849
68.170 20.798931
68.175 20.402899
68.180 19.471382
68.185 18.711273
68.190 18.590866
68.195 18.557829
68.200 18.277161
68.205 18.050356
68.210 18.540197
68.215 19.551517
68.220 20.272505
68.225 20.174501
68.230 19.908571
68.235 20.323301
68.240 20.554348
68.245 20.251396
68.250 19.542866
68.255 19.045624
68.260 19.069586
68.265 18.947662
68.270 18.826994
68.275 18.194872
68.280 17.537727
68.285 17.396511
68.290 17.21718
68.295 17.534498
68.300 17.293116
68.305 17.559608
68.310 18.365158
68.315 19.118616
68.320 18.966654
68.325 19.216688
68.330 18.598721
68.335 18.62536
68.340 18.411682
68.345 17.811003
68.350 17.74901
68.355 18.311726
68.360 18.196672
68.365 18.379759
68.370 18.395262
68.375 18.679228
68.380 18.868456
68.385 18.321623
68.390 17.923685
68.395 18.180702
68.400 18.360426
68.405 18.004591
68.410 17.805368
68.415 17.846867
68.420 18.764774
68.425 18.599867
68.430 18.251148
68.435 18.425074
68.440 18.617029
68.445 18.92012
68.450 19.08238
68.455 18.689541
68.460 18.859667
68.465 19.74852
68.470 20.014626
68.475 20.207811
68.480 19.963324
68.485 19.815022
68.490 20.268335
68.495 20.529322
68.500 19.861919
68.505 19.42935
68.510 19.381317
68.515 19.224939
68.520 19.024809
68.525 18.898752
68.530 18.839952
68.535 19.186396
68.540 19.462269
68.545 19.827066
68.550 20.560692
68.555 20.492035
68.560 20.252317
68.565 20.35994
68.570 20.524338
68.575 20.989851
68.580 20.287415
68.585 20.192125
68.590 21.060511
68.595 21.136402
68.600 20.213408
68.605 19.441938
68.610 19.104906
68.615 19.125996
68.620 18.570362
68.625 18.362541
68.630 18.261806
68.635 19.018002
68.640 19.905067
68.645 20.025494
68.650 20.325638
68.655 20.356579
68.660 20.243336
68.665 20.749071
68.670 20.031702
68.675 19.040968
68.680 19.111801
68.685 19.656754
68.690 19.789799
68.695 19.285254
68.700 19.23242
68.705 19.252645
68.710 19.673765
68.715 19.580912
68.720 18.886518
68.725 18.953354
68.730 19.552219
68.735 19.336817
68.740 19.769268
68.745 19.317514
68.750 19.37273
68.755 19.733181
68.760 19.74276
68.765 19.998196
68.770 20.490084
68.775 20.91313
68.780 21.079134
68.785 20.550087
68.790 20.692154
68.795 20.443027
68.800 19.467007
68.805 19.263885
68.810 19.970024
68.815 20.323503
68.820 20.03672
68.825 19.82839
68.830 20.917711
68.835 21.473288
68.840 20.991682
68.845 20.056919
68.850 20.900129
68.855 21.402929
68.860 21.397837
68.865 21.248482
68.870 21.062014
68.875 21.32583
68.880 21.313375
68.885 20.817371
68.890 21.084242
68.895 21.012608
68.900 21.147533
68.905 21.752251
68.910 21.636326
68.915 21.600708
68.920 21.866734
68.925 21.584566
68.930 22.309242
68.935 22.818228
68.940 22.757526
68.945 22.716274
68.950 22.945505
68.955 23.004057
68.960 23.427393
68.965 22.890543
68.970 22.914953
68.975 23.923357
68.980 24.856905
68.985 24.957949
68.990 25.157064
68.995 24.790489
69.000 24.967533
69.005 24.665125
69.010 23.973417
69.015 22.677633
69.020 22.640368
69.025 23.027353
69.030 23.141827
69.035 22.692532
69.040 22.654102
69.045 22.694216
69.050 23.446901
69.055 23.515451
69.060 23.378845
69.065 24.044811
69.070 24.560074
69.075 24.298439
69.080 24.496038
69.085 24.644497
69.090 24.677467
69.095 24.461311
69.100 24.067694
69.105 24.288008
69.110 24.820307
69.115 25.427509
69.120 26.198765
69.125 26.162001
69.130 26.829424
69.135 27.226812
69.140 27.403687
69.145 27.292601
69.150 26.47171
69.155 25.858683
69.160 25.711748
69.165 25.748674
69.170 25.66552
69.175 25.949736
69.180 26.222816
69.185 26.909483
69.190 27.303505
69.195 27.699306
69.200 27.363688
69.205 27.172258
69.210 26.996128
69.215 27.709299
69.220 27.768993
69.225 28.170084
69.230 28.624048
69.235 28.810268
69.240 28.824247
69.245 29.02615
69.250 28.886379
69.255 29.05769
69.260 29.018721
69.265 29.233229
69.270 30.246157
69.275 31.870264
69.280 32.206448
69.285 32.043556
69.290 31.79755
69.295 31.399906
69.300 31.177198
69.305 30.755983
69.310 31.064934
69.315 31.071575
69.320 32.044708
69.325 32.915485
69.330 33.297539
69.335 33.513401
69.340 33.139301
69.345 33.187462
69.350 33.855
69.355 33.831711
69.360 33.932125
69.365 34.121998
69.370 33.667442
69.375 33.171032
69.380 32.645107
69.385 32.001499
69.390 32.054382
69.395 31.396122
69.400 32.35891
69.405 32.881046
69.410 33.584698
69.415 33.932167
69.420 33.988331
69.425 33.732761
69.430 35.084896
69.435 34.813244
69.440 35.141094
69.445 35.724586
69.450 36.634892
69.455 36.536827
69.460 36.247421
69.465 35.631474
69.470 35.792191
69.475 35.972542
69.480 35.290733
69.485 35.500294
69.490 35.639832
69.495 35.816196
69.500 35.091827
69.505 35.23793
69.510 34.869484
69.515 34.562294
69.520 33.701611
69.525 33.691391
69.530 33.45747
69.535 33.466152
69.540 33.451962
69.545 34.417591
69.550 34.973835
69.555 35.618507
69.560 36.426285
69.565 37.704433
69.570 38.797039
69.575 38.544945
69.580 37.949963
69.585 37.918289
69.590 36.740036
69.595 35.963142
69.600 35.539112
69.605 35.051315
69.610 35.524765
69.615 35.113865
69.620 35.219349
69.625 35.718281
69.630 35.195415
69.635 34.319672
69.640 34.756863
69.645 34.486862
69.650 34.359982
69.655 34.04414
69.660 33.954983
69.665 33.720928
69.670 33.536091
69.675 32.852283
69.680 32.382153
69.685 32.589684
69.690 32.315247
69.695 32.228226
69.700 32.205807
69.705 31.989281
69.710 31.787437
69.715 31.834507
69.720 31.637548
69.725 31.511852
69.730 31.125755
69.735 31.12351
69.740 31.330526
69.745 31.208883
69.750 30.963219
69.755 30.952494
69.760 30.55385
69.765 30.500351
69.770 29.73278
69.775 28.909546
69.780 28.309544
69.785 28.480885
69.790 28.188463
69.795 28.392368
69.800 28.065445
69.805 27.786058
69.810 27.944532
69.815 27.411758
69.820 26.606747
69.825 26.40313
69.830 25.919598
69.835 26.285284
69.840 26.41287
69.845 26.419836
69.850 26.189547
69.855 25.734272
69.860 24.551758
69.865 23.708632
69.870 23.127174
69.875 23.089832
69.880 22.688688
69.885 22.441656
69.890 21.953032
69.895 22.300667
69.900 22.389824
69.905 22.721222
69.910 22.868305
69.915 23.054289
69.920 23.541826
69.925 23.968916
69.930 24.158001
69.935 23.623594
69.940 22.357771
69.945 21.937954
69.950 21.784586
69.955 21.140924
69.960 20.522188
69.965 20.271852
69.970 20.767168
69.975 21.302881
69.980 21.271364
69.985 21.570124
69.990 22.249689
69.995 22.696615
70.000 23.030491
70.005 23.191008
70.010 23.649118
70.015 23.499233
70.020 23.242472
70.025 23.045927
70.030 23.216522
70.035 22.915533
70.040 22.336092
70.045 21.639408
70.050 21.244459
70.055 21.094311
70.060 21.123611
70.065 20.68161
70.070 20.644859
70.075 20.605595
70.080 20.407537
70.085 20.658199
70.090 20.663483
70.095 20.627329
70.100 20.586124
70.105 19.957312
70.110 20.151245
70.115 20.325588
70.120 20.503918
70.125 20.790678
70.130 20.904354
70.135 20.63237
70.140 20.531576
70.145 20.156113
70.150 19.787201
70.155 19.483904
70.160 18.658169
70.165 18.251963
70.170 17.88793
70.175 17.812471
70.180 17.737692
70.185 17.248634
70.190 17.121481
70.195 17.071646
70.200 17.075077
70.205 17.918642
70.210 18.380514
70.215 18.66172
70.220 19.193018
70.225 19.645193
70.230 20.005836
70.235 19.938986
70.240 20.289776
70.245 20.808935
70.250 21.152626
70.255 21.145336
70.260 21.080854
70.265 21.03437
70.270 20.956547
70.275 20.387075
70.280 19.387543
70.285 19.064899
70.290 18.896124
70.295 18.762144
70.300 18.720898
70.305 18.566338
70.310 18.182869
70.315 18.665707
70.320 18.496534
70.325 18.194551
70.330 17.877237
70.335 17.726263
70.340 18.209061
70.345 17.863667
70.350 17.87888
70.355 18.25069
70.360 18.652351
70.365 19.421553
70.370 19.622913
70.375 19.4858
70.380 20.796091
70.385 20.559547
70.390 20.688282
70.395 20.91189
70.400 20.764534
70.405 21.30604
70.410 20.662811
70.415 19.665937
70.420 19.422609
70.425 19.050676
70.430 18.72747
70.435 17.942152
70.440 17.191381
70.445 16.940184
70.450 17.340126
70.455 17.322777
70.460 17.497862
70.465 17.881279
70.470 18.105537
70.475 18.662853
70.480 18.843618
70.485 19.117882
70.490 19.091902
70.495 18.715899
70.500 18.779329
70.505 19.140751
70.510 18.749784
70.515 18.093588
70.520 17.918011
70.525 17.770441
70.530 17.565939
70.535 17.407322
70.540 16.981331
70.545 17.284002
70.550 18.106527
70.555 18.229935
70.560 18.769581
70.565 19.054171
70.570 19.440722
70.575 19.864176
70.580 19.776146
70.585 19.315224
70.590 19.388456
70.595 19.686846
70.600 19.787235
70.605 19.367188
70.610 19.41564
70.615 19.988138
70.620 20.050333
70.625 19.464298
70.630 18.987602
70.635 18.465019
70.640 18.239748
70.645 17.538599
70.650 17.630264
70.655 17.791981
70.660 17.99432
70.665 17.55294
70.670 17.69343
70.675 18.045912
70.680 18.314468
70.685 18.015142
70.690 18.433273
70.695 18.686148
70.700 18.992186
70.705 18.491051
70.710 18.143047
70.715 18.088272
70.720 17.6663
70.725 17.518602
70.730 18.10667
70.735 18.206657
70.740 18.418249
70.745 18.374462
70.750 18.48465
70.755 18.528574
70.760 17.126362
70.765 16.480028
70.770 16.913279
70.775 17.504051
70.780 17.772184
70.785 17.59329
70.790 17.872786
70.795 18.659473
70.800 18.931305
70.805 18.525463
70.810 18.0191
70.815 17.680609
70.820 17.820156
70.825 17.600653
70.830 17.144222
70.835 16.735586
70.840 16.953997
70.845 17.350361
70.850 17.819773
70.855 17.733477
70.860 17.940975
70.865 18.140282
70.870 18.396194
70.875 17.880526
70.880 17.635235
70.885 17.618814
70.890 18.059835
70.895 17.527649
70.900 16.774361
70.905 16.86413
70.910 17.843397
70.915 18.245672
70.920 18.350496
70.925 17.587929
70.930 18.380554
70.935 18.971039
70.940 18.855118
70.945 18.41745
70.950 17.663378
70.955 17.840843
70.960 18.466604
70.965 18.945179
70.970 19.146778
70.975 18.580282
70.980 18.291819
70.985 18.356905
70.990 17.913462
70.995 17.755194
71.000 17.498396
71.005 17.672598
71.010 18.315273
71.015 18.395882
71.020 18.08889
71.025 17.887325
71.030 17.348812
71.035 17.361767
71.040 17.584908
71.045 17.734055
71.050 18.823481
71.055 19.054821
71.060 19.168526
71.065 19.06912
71.070 18.876633
71.075 18.475407
71.080 17.941536
71.085 18.11747
71.090 17.959919
71.095 17.480997
71.100 17.372131
71.105 17.127441
71.110 16.808884
71.115 16.217394
71.120 16.175556
71.125 17.181847
71.130 17.587072
71.135 17.334948
71.140 17.55537
71.145 17.820457
71.150 17.782484
71.155 17.43334
71.160 17.532133
71.165 17.239792
71.170 17.732643
71.175 17.290262
71.180 17.269293
71.185 17.530592
71.190 17.132524
71.195 16.486137
71.200 16.774471
71.205 17.128897
71.210 17.487715
71.215 17.461924
71.220 16.893892
71.225 16.946302
71.230 16.881714
71.235 16.769123
71.240 16.442896
71.245 16.274782
71.250 16.050495
71.255 16.287889
71.260 16.5797
71.265 17.822495
71.270 18.338634
71.275 17.929928
71.280 18.253067
71.285 18.395809
71.290 18.364075
71.295 18.463676
71.300 17.661079
71.305 17.917377
71.310 18.423203
71.315 18.425432
71.320 19.062613
71.325 19.012051
71.330 19.086651
71.335 19.166574
71.340 18.964155
71.345 18.742767
71.350 18.461008
71.355 18.387209
71.360 18.227617
71.365 17.913197
71.370 17.390316
71.375 17.963747
71.380 17.914543
71.385 18.084911
71.390 17.482264
71.395 17.428093
71.400 17.707451
71.405 18.489227
71.410 18.386791
71.415 18.683987
71.420 18.829117
71.425 19.326715
71.430 18.806337
71.435 18.149151
71.440 17.563601
71.445 17.642447
71.450 17.544352
71.455 17.897129
71.460 17.974083
71.465 18.600052
71.470 19.082329
71.475 19.066978
71.480 18.886692
71.485 18.658653
71.490 17.914328
71.495 18.139412
71.500 17.858553
71.505 17.636587
71.510 17.320139
71.515 17.396641
71.520 17.449123
71.525 17.887011
71.530 18.249722
71.535 18.787172
71.540 18.950497
71.545 19.028765
71.550 19.165573
71.555 18.850405
71.560 18.299473
71.565 18.018501
71.570 18.131239
71.575 18.628923
71.580 18.45858
71.585 18.407442
71.590 18.761921
71.595 18.779007
71.600 18.922258
71.605 18.882864
71.610 18.680454
71.615 18.930195
71.620 19.040808
71.625 19.39817
71.630 19.509733
71.635 18.635092
71.640 17.997726
71.645 18.037529
71.650 17.935289
71.655 18.309544
71.660 17.628384
71.665 17.615522
71.670 17.828045
71.675 17.605427
71.680 17.737036
71.685 17.629854
71.690 17.982033
71.695 17.806599
71.700 18.018019
71.705 18.369873
71.710 18.430794
71.715 17.817841
71.720 17.669622
71.725 17.216358
71.730 17.869127
71.735 17.702971
71.740 17.541124
71.745 17.428724
71.750 17.435751
71.755 17.530024
71.760 17.698334
71.765 17.824966
71.770 18.071148
71.775 18.062325
71.780 18.2155
71.785 17.948486
71.790 17.434387
71.795 16.999914
71.800 17.408192
71.805 17.463366
71.810 17.369791
71.815 17.698732
71.820 18.037361
71.825 18.418579
71.830 18.182674
71.835 17.648409
71.840 17.93545
71.845 18.177776
71.850 17.937944
71.855 17.622244
71.860 17.817131
71.865 17.850628
71.870 18.052443
71.875 18.239166
71.880 18.082792
71.885 18.449802
71.890 18.291294
71.895 18.208834
71.900 18.278139
71.905 17.642538
71.910 17.405266
71.915 17.350462
71.920 17.557079
71.925 17.970474
71.930 17.965773
71.935 17.979244
71.940 18.061752
71.945 17.659796
71.950 17.756075
71.955 17.590893
71.960 17.256655
71.965 17.476522
71.970 17.885101
71.975 17.850973
71.980 18.233032
71.985 17.596146
71.990 17.694555
71.995 17.725368
72.000 17.476662
72.005 17.220428
72.010 17.50226
72.015 17.276539
72.020 18.060381
72.025 18.280756
72.030 18.912262
72.035 18.682762
72.040 18.745037
72.045 18.797567
72.050 18.748985
72.055 18.489296
72.060 17.920757
72.065 18.010015
72.070 18.058596
72.075 17.726757
72.080 17.237795
72.085 17.065374
72.090 16.637491
72.095 16.717659
72.100 16.689503
72.105 16.98632
72.110 17.119877
72.115 17.553148
72.120 17.317276
72.125 17.570065
72.130 17.108526
72.135 17.111338
72.140 17.073805
72.145 16.868284
72.150 16.868437
72.155 16.72076
72.160 16.76437
72.165 16.605682
72.170 16.783165
72.175 16.598364
72.180 16.658886
72.185 17.364592
72.190 17.9615
72.195 18.24457
72.200 17.950481
72.205 18.065552
72.210 18.217926
72.215 18.060619
72.220 17.85144
72.225 18.093397
72.230 18.289597
72.235 18.88776
72.240 18.97508
72.245 19.08325
72.250 19.337347
72.255 18.777884
72.260 18.57937
72.265 18.073389
72.270 17.533386
72.275 17.24461
72.280 16.88327
72.285 17.170525
72.290 17.325911
72.295 17.327141
72.300 18.176836
72.305 18.78116
72.310 18.77718
72.315 19.30246
72.320 18.340528
72.325 18.940027
72.330 18.759073
72.335 18.1714
72.340 17.730118
72.345 17.491903
72.350 17.550634
72.355 17.741331
72.360 16.766348
72.365 16.61171
72.370 17.017519
72.375 17.501635
72.380 17.790941
72.385 17.50284
72.390 18.185291
72.395 18.603333
72.400 18.314362
72.405 17.439854
72.410 16.648809
72.415 16.485689
72.420 16.779379
72.425 15.867827
72.430 15.880705
72.435 16.240334
72.440 17.03961
72.445 17.623024
72.450 17.904381
72.455 17.751457
72.460 18.318558
72.465 18.697617
72.470 18.721739
72.475 18.700651
72.480 19.044935
72.485 18.589182
72.490 18.496065
72.495 18.410254
72.500 17.672949
72.505 17.08392
72.510 16.660061
72.515 16.383656
72.520 16.442011
72.525 16.033449
72.530 16.064533
72.535 16.475496
72.540 17.132303
72.545 16.740534
72.550 16.39131
72.555 16.60116
72.560 17.109425
72.565 17.306726
72.570 17.714525
72.575 17.893847
72.580 18.334517
72.585 18.838493
72.590 19.151173
72.595 19.301382
72.600 19.333273
72.605 19.061216
72.610 18.781279
72.615 18.394379
72.620 18.16396
72.625 17.267694
72.630 16.682558
72.635 15.975156
72.640 16.017376
72.645 16.729063
72.650 16.885422
72.655 16.938755
72.660 16.609289
72.665 17.028336
72.670 17.637718
72.675 17.099533
72.680 16.658976
72.685 16.235752
72.690 16.087437
72.695 16.290447
72.700 16.52578
72.705 16.750498
72.710 16.87921
72.715 17.050005
72.720 17.088146
72.725 17.40271
72.730 17.324408
72.735 17.230827
72.740 16.974409
72.745 17.09001
72.750 17.086
72.755 17.659185
72.760 17.493805
72.765 17.223026
72.770 17.102673
72.775 16.836742
72.780 17.033796
72.785 16.795073
72.790 17.351547
72.795 17.303883
72.800 17.141346
72.805 17.386307
72.810 17.144527
72.815 17.14385
72.820 16.845604
72.825 16.287237
72.830 16.939157
72.835 17.240805
72.840 17.259392
72.845 17.398298
72.850 16.882601
72.855 16.788492
72.860 17.520519
72.865 16.884064
72.870 16.645828
72.875 16.613947
72.880 16.440111
72.885 16.558424
72.890 16.664186
72.895 16.214895
72.900 16.041605
72.905 16.003551
72.910 16.324129
72.915 16.61408
72.920 16.78845
72.925 16.13463
72.930 15.864382
72.935 15.779208
72.940 15.974342
72.945 16.14642
72.950 15.9564
72.955 16.062679
72.960 16.297693
72.965 16.297796
72.970 16.4177
72.975 15.597366
72.980 15.464636
72.985 15.597706
72.990 15.481881
72.995 15.422021
73.000 15.419613
