!@!!GADDS PLOTSO FILE: Chi integration type
!@!!Title/SampleName: map-73
!@!!Comment: ?
!@!!User: Bruker Instrument Administrator
!@!!Site: University of Illinois Chicago
!@!!Frame: map-73_01_000.gfrm
!@!!Wavelengths    1.54184   1.54056   1.54439
!@!!Frame angles: 2Theta: 63.000 Omega: 50.000 Phi: 0.000 Chi: 90.000
!@!!Integration range: 2Theta: 53.000 to 73.000  Gamma: -105.000 to -75.000
!@!!Integration method: bin normalized
!@!N
!@!SS
!@!M
!@!L 0.0 0.0 0.0 0.0
!@!XDegrees
!@!YCounts
53.000 11.760498
53.005 11.251317
53.010 10.946882
53.015 10.651558
53.020 10.676601
53.025 10.468546
53.030 9.989115
53.035 9.742776
53.040 9.714201
53.045 9.414164
53.050 9.662574
53.055 9.832693
53.060 9.683897
53.065 10.025963
53.070 10.088937
53.075 10.108729
53.080 10.215095
53.085 10.546796
53.090 10.810265
53.095 10.847265
53.100 10.807347
53.105 11.102215
53.110 11.233919
53.115 11.423432
53.120 11.051077
53.125 10.576468
53.130 10.80631
53.135 10.866364
53.140 10.31873
53.145 10.305689
53.150 10.042008
53.155 9.841363
53.160 9.857501
53.165 9.63657
53.170 10.008474
53.175 10.215795
53.180 10.218741
53.185 10.840002
53.190 10.5862
53.195 10.648604
53.200 10.6601
53.205 10.449718
53.210 10.379698
53.215 10.37697
53.220 10.278601
53.225 11.085369
53.230 11.052519
53.235 10.813869
53.240 10.891348
53.245 10.833862
53.250 10.113007
53.255 9.855399
53.260 10.077252
53.265 10.317198
53.270 10.303087
53.275 10.494918
53.280 10.568674
53.285 11.049003
53.290 10.967089
53.295 10.799753
53.300 10.923702
53.305 10.727682
53.310 10.341226
53.315 10.483638
53.320 10.139357
53.325 10.246842
53.330 9.933022
53.335 10.142901
53.340 10.221817
53.345 10.585573
53.350 10.653844
53.355 11.050819
53.360 10.933
53.365 10.718206
53.370 10.463567
53.375 10.601356
53.380 10.5797
53.385 10.550523
53.390 10.660932
53.395 10.639941
53.400 11.168912
53.405 11.605805
53.410 11.936131
53.415 11.835922
53.420 12.147289
53.425 12.332127
53.430 12.58047
53.435 12.301476
53.440 12.478171
53.445 12.194501
53.450 12.431298
53.455 12.409677
53.460 11.90417
53.465 11.58701
53.470 11.248432
53.475 10.424444
53.480 10.192885
53.485 9.690594
53.490 9.839957
53.495 10.092614
53.500 9.880523
53.505 9.892685
53.510 10.250019
53.515 11.112046
53.520 11.569494
53.525 11.493266
53.530 11.896655
53.535 12.295467
53.540 12.543191
53.545 12.543838
53.550 11.830771
53.555 11.251871
53.560 11.170915
53.565 10.808233
53.570 10.511845
53.575 10.597567
53.580 10.17512
53.585 10.475669
53.590 10.522014
53.595 10.431041
53.600 11.222951
53.605 11.367176
53.610 11.403107
53.615 11.609235
53.620 11.264569
53.625 11.490796
53.630 11.633899
53.635 11.620293
53.640 11.876912
53.645 11.783381
53.650 11.672787
53.655 11.817613
53.660 11.800778
53.665 11.515149
53.670 11.303885
53.675 11.302922
53.680 11.343528
53.685 11.268439
53.690 11.46221
53.695 11.261538
53.700 11.163339
53.705 11.16866
53.710 10.817129
53.715 11.402789
53.720 11.691474
53.725 11.717434
53.730 11.958006
53.735 12.124938
53.740 12.28203
53.745 12.596669
53.750 12.255177
53.755 12.155977
53.760 11.429646
53.765 11.20153
53.770 10.882113
53.775 10.69751
53.780 10.750977
53.785 10.359802
53.790 10.705541
53.795 11.215728
53.800 11.473823
53.805 11.380299
53.810 11.199672
53.815 11.315739
53.820 11.410606
53.825 11.55956
53.830 11.286902
53.835 11.173495
53.840 11.714217
53.845 11.389529
53.850 11.15441
53.855 10.87041
53.860 10.766596
53.865 10.823037
53.870 10.682584
53.875 10.785961
53.880 11.121075
53.885 11.581175
53.890 11.529192
53.895 11.385592
53.900 11.60193
53.905 11.658429
53.910 11.592403
53.915 11.67828
53.920 11.624997
53.925 11.826042
53.930 12.081127
53.935 11.95414
53.940 11.902615
53.945 11.92724
53.950 11.938057
53.955 12.262242
53.960 12.21673
53.965 12.21545
53.970 12.390407
53.975 12.697284
53.980 12.631677
53.985 12.528514
53.990 12.181004
53.995 12.417603
54.000 11.91895
54.005 11.594063
54.010 11.421033
54.015 11.300321
54.020 11.319493
54.025 10.927436
54.030 11.421156
54.035 11.835684
54.040 11.895755
54.045 11.495522
54.050 11.556402
54.055 11.692861
54.060 11.646543
54.065 11.223064
54.070 11.227599
54.075 11.769514
54.080 12.37144
54.085 12.261594
54.090 12.478726
54.095 12.685737
54.100 12.493834
54.105 12.568807
54.110 12.09959
54.115 11.750134
54.120 11.82828
54.125 11.512608
54.130 11.385715
54.135 11.088417
54.140 10.450233
54.145 10.350744
54.150 10.5546
54.155 10.648524
54.160 10.850318
54.165 10.958532
54.170 11.306648
54.175 11.352485
54.180 11.540536
54.185 11.30293
54.190 11.230799
54.195 11.441018
54.200 11.951217
54.205 12.497617
54.210 12.615026
54.215 12.621023
54.220 12.61834
54.225 12.537456
54.230 12.522171
54.235 12.032053
54.240 11.610129
54.245 11.509421
54.250 11.746523
54.255 11.7324
54.260 11.560507
54.265 11.489055
54.270 11.802393
54.275 11.707569
54.280 11.636083
54.285 11.296203
54.290 11.621238
54.295 11.899437
54.300 11.541276
54.305 11.172726
54.310 11.529515
54.315 11.783452
54.320 12.291068
54.325 12.28904
54.330 12.476708
54.335 13.2055
54.340 13.367223
54.345 12.842474
54.350 12.844212
54.355 12.230148
54.360 12.055124
54.365 11.360932
54.370 11.122187
54.375 11.290221
54.380 11.217044
54.385 11.114895
54.390 11.64315
54.395 11.525405
54.400 11.591809
54.405 11.660423
54.410 11.59134
54.415 11.470254
54.420 11.428089
54.425 11.368912
54.430 11.226483
54.435 11.466123
54.440 11.128937
54.445 11.726812
54.450 12.00568
54.455 11.656302
54.460 10.762337
54.465 10.780437
54.470 10.573008
54.475 10.4802
54.480 10.319109
54.485 10.161075
54.490 10.760475
54.495 11.731359
54.500 11.563661
54.505 11.900186
54.510 11.966964
54.515 11.762491
54.520 11.61332
54.525 10.754429
54.530 10.382693
54.535 10.81324
54.540 10.884493
54.545 10.797608
54.550 10.847867
54.555 10.883814
54.560 11.292281
54.565 11.453413
54.570 11.118029
54.575 10.96346
54.580 11.198327
54.585 11.167094
54.590 11.09727
54.595 11.104548
54.600 10.923579
54.605 10.690638
54.610 11.060523
54.615 11.170543
54.620 11.496189
54.625 11.426105
54.630 11.57324
54.635 11.640079
54.640 11.872273
54.645 11.458852
54.650 11.34733
54.655 11.30899
54.660 11.563502
54.665 11.524013
54.670 11.741239
54.675 11.739261
54.680 11.694558
54.685 11.766991
54.690 11.597561
54.695 11.524889
54.700 11.537496
54.705 11.628651
54.710 11.284056
54.715 11.31652
54.720 11.575725
54.725 11.674235
54.730 11.991986
54.735 11.7688
54.740 11.86737
54.745 11.872227
54.750 11.979103
54.755 11.861832
54.760 11.621085
54.765 11.421451
54.770 11.51658
54.775 11.410711
54.780 11.605707
54.785 11.473958
54.790 11.839565
54.795 12.647428
54.800 13.119867
54.805 13.173224
54.810 13.125193
54.815 13.354198
54.820 13.36655
54.825 13.256931
54.830 12.71929
54.835 12.406164
54.840 12.344413
54.845 12.660557
54.850 12.639948
54.855 12.397282
54.860 12.235217
54.865 12.257596
54.870 12.561297
54.875 12.646788
54.880 12.525442
54.885 12.269903
54.890 12.3037
54.895 12.693917
54.900 12.930676
54.905 12.641454
54.910 12.751933
54.915 13.095086
54.920 13.009429
54.925 13.122106
54.930 13.277564
54.935 13.113396
54.940 13.272781
54.945 13.291359
54.950 13.785791
54.955 14.033812
54.960 13.479063
54.965 13.053102
54.970 13.640642
54.975 13.69908
54.980 12.805996
54.985 12.071692
54.990 12.461972
54.995 12.75252
55.000 12.364453
55.005 11.841029
55.010 12.229207
55.015 12.723999
55.020 12.803252
55.025 12.429161
55.030 12.603305
55.035 12.648284
55.040 12.521586
55.045 12.505765
55.050 12.469531
55.055 12.461502
55.060 13.116585
55.065 12.975663
55.070 12.764311
55.075 12.605036
55.080 12.77912
55.085 12.957001
55.090 12.972507
55.095 12.837655
55.100 13.02801
55.105 13.296783
55.110 13.145135
55.115 12.948467
55.120 12.2018
55.125 11.924271
55.130 11.52994
55.135 11.27023
55.140 11.368584
55.145 11.737184
55.150 12.103704
55.155 13.143912
55.160 13.330477
55.165 13.329142
55.170 13.361462
55.175 13.493676
55.180 13.957422
55.185 14.265782
55.190 14.122007
55.195 14.644446
55.200 14.141897
55.205 14.165524
55.210 13.76838
55.215 13.072736
55.220 12.792172
55.225 12.177071
55.230 11.483904
55.235 11.812377
55.240 11.847544
55.245 11.846998
55.250 11.719135
55.255 11.066185
55.260 11.344235
55.265 11.456801
55.270 11.806838
55.275 11.829803
55.280 11.347972
55.285 11.700888
55.290 11.945409
55.295 11.871736
55.300 11.24356
55.305 10.902646
55.310 11.167436
55.315 11.479756
55.320 11.640666
55.325 12.247235
55.330 12.695023
55.335 13.215088
55.340 13.353621
55.345 13.365786
55.350 13.114941
55.355 13.383479
55.360 12.825587
55.365 12.932877
55.370 12.992186
55.375 12.924146
55.380 13.329444
55.385 13.344831
55.390 13.036877
55.395 12.993461
55.400 13.120884
55.405 13.141561
55.410 13.214036
55.415 13.191895
55.420 12.696062
55.425 12.589344
55.430 12.250282
55.435 12.321661
55.440 13.226367
55.445 12.658807
55.450 12.508307
55.455 12.559998
55.460 12.765845
55.465 12.973186
55.470 12.262842
55.475 11.793868
55.480 12.043196
55.485 12.174658
55.490 12.385169
55.495 12.890689
55.500 12.761619
55.505 12.855936
55.510 13.236892
55.515 13.619264
55.520 14.058897
55.525 14.567377
55.530 14.817677
55.535 15.521712
55.540 15.369271
55.545 15.191928
55.550 15.031429
55.555 14.531654
55.560 13.648281
55.565 12.866093
55.570 12.286154
55.575 12.052007
55.580 12.199281
55.585 12.397494
55.590 12.937489
55.595 13.091343
55.600 12.661648
55.605 12.435306
55.610 12.188143
55.615 11.940113
55.620 11.767153
55.625 11.445709
55.630 11.562766
55.635 12.060699
55.640 12.281092
55.645 12.42158
55.650 11.945586
55.655 11.849233
55.660 11.721899
55.665 11.510189
55.670 11.40867
55.675 11.666043
55.680 11.558024
55.685 12.229822
55.690 12.542082
55.695 12.719658
55.700 13.12252
55.705 13.395707
55.710 13.456421
55.715 13.778084
55.720 13.768891
55.725 13.764949
55.730 13.773253
55.735 13.986279
55.740 13.584352
55.745 13.89334
55.750 13.561593
55.755 13.224271
55.760 13.143723
55.765 13.8613
55.770 14.541561
55.775 14.845978
55.780 14.53611
55.785 14.545583
55.790 14.477474
55.795 13.811872
55.800 12.492916
55.805 11.764815
55.810 11.447865
55.815 11.577394
55.820 12.144317
55.825 12.418688
55.830 12.954131
55.835 13.850639
55.840 14.144238
55.845 14.388944
55.850 14.416418
55.855 14.533265
55.860 14.710178
55.865 14.698806
55.870 14.127603
55.875 14.050454
55.880 14.508204
55.885 14.568371
55.890 14.166357
55.895 14.065638
55.900 13.695188
55.905 13.913195
55.910 13.373477
55.915 13.011703
55.920 12.855055
55.925 13.255406
55.930 13.061315
55.935 13.160162
55.940 13.361498
55.945 14.219636
55.950 14.292944
55.955 14.009949
55.960 13.461535
55.965 13.558592
55.970 13.58569
55.975 13.141522
55.980 12.254189
55.985 12.046962
55.990 12.503072
55.995 12.672168
56.000 12.794799
56.005 13.145217
56.010 13.657155
56.015 14.043084
56.020 13.991567
56.025 13.752808
56.030 13.660151
56.035 13.98013
56.040 14.126608
56.045 14.273932
56.050 14.174335
56.055 13.80558
56.060 13.572055
56.065 13.334811
56.070 12.837386
56.075 12.312008
56.080 11.924426
56.085 11.691916
56.090 11.703668
56.095 11.642302
56.100 11.935965
56.105 12.064995
56.110 12.21392
56.115 12.396199
56.120 12.511648
56.125 12.928679
56.130 13.086518
56.135 12.497983
56.140 12.04971
56.145 11.785536
56.150 11.60815
56.155 11.841899
56.160 12.101737
56.165 12.142055
56.170 13.055346
56.175 13.503964
56.180 14.157177
56.185 14.350969
56.190 14.247601
56.195 13.784109
56.200 13.738421
56.205 13.112386
56.210 12.641297
56.215 12.432678
56.220 12.381995
56.225 12.15864
56.230 13.018977
56.235 13.837358
56.240 14.091798
56.245 14.978513
56.250 14.975683
56.255 15.229463
56.260 15.35995
56.265 14.999475
56.270 14.835068
56.275 14.64084
56.280 14.14852
56.285 14.218718
56.290 14.325386
56.295 14.366952
56.300 14.191649
56.305 14.345243
56.310 14.557871
56.315 14.355099
56.320 14.259892
56.325 14.332715
56.330 14.681428
56.335 14.863574
56.340 14.485806
56.345 14.192031
56.350 14.75124
56.355 14.676201
56.360 14.490331
56.365 13.972701
56.370 13.7953
56.375 13.924067
56.380 13.820153
56.385 13.709713
56.390 13.167716
56.395 13.017568
56.400 13.113609
56.405 12.888732
56.410 13.116602
56.415 13.550857
56.420 13.143895
56.425 13.647003
56.430 13.429294
56.435 13.185418
56.440 13.470377
56.445 13.34562
56.450 12.635488
56.455 12.570047
56.460 12.572285
56.465 12.751166
56.470 12.731593
56.475 12.074828
56.480 11.500534
56.485 11.785457
56.490 12.417516
56.495 13.045651
56.500 13.260986
56.505 13.788634
56.510 14.544785
56.515 14.828711
56.520 14.839132
56.525 14.423242
56.530 14.39731
56.535 14.491998
56.540 14.341276
56.545 14.160851
56.550 14.605481
56.555 14.875908
56.560 14.949132
56.565 14.199762
56.570 13.875312
56.575 13.913523
56.580 13.578583
56.585 13.499393
56.590 13.361996
56.595 13.197643
56.600 13.029877
56.605 13.159904
56.610 12.988698
56.615 13.011871
56.620 13.019478
56.625 12.678867
56.630 12.695855
56.635 13.041677
56.640 12.289508
56.645 12.565375
56.650 12.765418
56.655 12.767735
56.660 13.241194
56.665 13.515541
56.670 13.724014
56.675 14.522563
56.680 14.285141
56.685 14.092578
56.690 13.89594
56.695 13.761649
56.700 13.34275
56.705 13.494864
56.710 13.212718
56.715 13.347767
56.720 13.171963
56.725 13.141641
56.730 13.435572
56.735 13.87444
56.740 14.38955
56.745 15.00078
56.750 15.519158
56.755 16.104404
56.760 16.224678
56.765 16.026222
56.770 15.757332
56.775 15.309456
56.780 15.04923
56.785 14.566548
56.790 14.494485
56.795 14.601365
56.800 14.797366
56.805 14.969765
56.810 14.885215
56.815 14.972999
56.820 15.323885
56.825 15.273316
56.830 15.229429
56.835 15.211594
56.840 15.125896
56.845 15.156847
56.850 14.807594
56.855 14.324928
56.860 14.154855
56.865 14.232481
56.870 14.081742
56.875 14.04489
56.880 14.29959
56.885 14.549042
56.890 14.80692
56.895 15.512476
56.900 15.622898
56.905 15.180844
56.910 15.429697
56.915 15.376791
56.920 15.316665
56.925 15.053576
56.930 14.428943
56.935 14.027038
56.940 14.263336
56.945 13.852579
56.950 13.822966
56.955 13.874464
56.960 13.604375
56.965 13.271055
56.970 13.179461
56.975 13.077108
56.980 12.549134
56.985 12.386711
56.990 12.825636
56.995 13.209619
57.000 13.87994
57.005 14.51773
57.010 14.584118
57.015 15.29345
57.020 15.294533
57.025 14.988661
57.030 14.806375
57.035 14.762349
57.040 14.498168
57.045 14.316046
57.050 14.539375
57.055 14.692739
57.060 14.682307
57.065 14.893768
57.070 14.820272
57.075 14.865778
57.080 14.325315
57.085 13.984793
57.090 13.958709
57.095 14.46303
57.100 14.116892
57.105 14.197581
57.110 15.059992
57.115 15.803978
57.120 15.706901
57.125 15.540884
57.130 15.110987
57.135 15.198799
57.140 14.991535
57.145 14.516115
57.150 14.290781
57.155 14.096725
57.160 14.392124
57.165 14.63661
57.170 14.757131
57.175 15.136121
57.180 15.382229
57.185 15.112668
57.190 15.020722
57.195 14.407549
57.200 14.346693
57.205 14.399334
57.210 14.717368
57.215 14.236126
57.220 14.503903
57.225 14.519346
57.230 14.894459
57.235 14.872878
57.240 14.473542
57.245 13.996993
57.250 13.974338
57.255 14.015362
57.260 14.873476
57.265 15.138051
57.270 15.190586
57.275 15.512623
57.280 15.599645
57.285 15.503523
57.290 15.230929
57.295 14.522979
57.300 14.385837
57.305 14.28416
57.310 14.135798
57.315 13.924228
57.320 14.371466
57.325 14.515383
57.330 14.851225
57.335 14.925505
57.340 14.635763
57.345 15.233491
57.350 15.317615
57.355 15.298663
57.360 15.373664
57.365 15.078301
57.370 15.978433
57.375 16.134821
57.380 15.770392
57.385 16.035471
57.390 15.865105
57.395 15.810263
57.400 15.664933
57.405 14.98328
57.410 14.825599
57.415 14.804641
57.420 14.45272
57.425 14.123091
57.430 14.190055
57.435 14.300149
57.440 14.039734
57.445 14.136702
57.450 14.242892
57.455 14.52719
57.460 15.014149
57.465 15.38914
57.470 15.465488
57.475 15.867991
57.480 15.72853
57.485 15.949103
57.490 15.703608
57.495 15.484237
57.500 15.509353
57.505 15.500019
57.510 15.157823
57.515 15.299956
57.520 15.206862
57.525 15.908353
57.530 15.431577
57.535 15.127273
57.540 15.196521
57.545 15.804163
57.550 15.834409
57.555 15.602146
57.560 15.375672
57.565 15.880459
57.570 16.55409
57.575 16.666321
57.580 16.354166
57.585 16.679117
57.590 17.179613
57.595 17.537487
57.600 17.829277
57.605 17.468027
57.610 17.527454
57.615 17.806129
57.620 18.18951
57.625 18.185316
57.630 17.482386
57.635 16.880684
57.640 16.614128
57.645 16.304638
57.650 15.983399
57.655 15.594483
57.660 15.611396
57.665 15.572663
57.670 15.632528
57.675 15.678297
57.680 15.618497
57.685 15.502925
57.690 15.436432
57.695 15.660275
57.700 16.456467
57.705 16.409481
57.710 16.738205
57.715 16.604824
57.720 16.746025
57.725 15.927155
57.730 15.684613
57.735 15.106973
57.740 14.678044
57.745 14.709027
57.750 14.76305
57.755 14.910925
57.760 15.038609
57.765 14.656694
57.770 14.57454
57.775 14.494556
57.780 14.509625
57.785 14.996328
57.790 15.181126
57.795 15.361236
57.800 15.690214
57.805 16.386723
57.810 17.127548
57.815 17.431454
57.820 17.006544
57.825 16.834284
57.830 17.021528
57.835 17.296656
57.840 17.435453
57.845 16.864477
57.850 16.770491
57.855 17.012907
57.860 17.021812
57.865 16.994738
57.870 17.416588
57.875 17.482203
57.880 17.638069
57.885 16.994278
57.890 16.820713
57.895 16.813803
57.900 16.813423
57.905 16.805862
57.910 16.526802
57.915 16.635384
57.920 17.569063
57.925 17.557217
57.930 17.309834
57.935 16.664085
57.940 16.218857
57.945 15.645561
57.950 15.20983
57.955 15.069016
57.960 15.297041
57.965 15.677918
57.970 16.056225
57.975 16.091965
57.980 16.571585
57.985 16.894411
57.990 16.635908
57.995 16.447323
58.000 16.006792
58.005 16.349079
58.010 16.486597
58.015 17.113735
58.020 17.232409
58.025 17.472095
58.030 17.538956
58.035 17.824209
58.040 17.678545
58.045 17.560925
58.050 17.499544
58.055 17.341232
58.060 17.100023
58.065 17.659679
58.070 17.585682
58.075 17.344986
58.080 17.428074
58.085 17.374094
58.090 17.381256
58.095 17.574064
58.100 17.829216
58.105 18.500441
58.110 18.532564
58.115 18.425415
58.120 18.516689
58.125 18.460421
58.130 18.201248
58.135 17.543224
58.140 17.448959
58.145 18.070116
58.150 18.276033
58.155 18.113173
58.160 18.005407
58.165 18.131435
58.170 18.162426
58.175 18.423477
58.180 18.947935
58.185 18.93293
58.190 19.275564
58.195 19.218699
58.200 19.989578
58.205 20.693247
58.210 20.408241
58.215 20.191462
58.220 20.085636
58.225 19.847486
58.230 20.028299
58.235 19.064743
58.240 18.418661
58.245 17.724907
58.250 17.612108
58.255 17.784643
58.260 18.159189
58.265 18.695473
58.270 18.988804
58.275 19.151478
58.280 19.654501
58.285 19.956446
58.290 20.491522
58.295 20.659697
58.300 20.366226
58.305 20.579679
58.310 20.943241
58.315 21.195105
58.320 21.066713
58.325 20.678877
58.330 19.990219
58.335 20.063692
58.340 20.279232
58.345 20.527344
58.350 20.774969
58.355 21.18136
58.360 21.6761
58.365 22.401237
58.370 22.753698
58.375 23.075832
58.380 23.064384
58.385 22.968927
58.390 22.396448
58.395 22.149872
58.400 22.613688
58.405 22.850973
58.410 23.356434
58.415 23.255171
58.420 23.299603
58.425 23.71686
58.430 24.613565
58.435 25.16254
58.440 25.775383
58.445 25.932077
58.450 26.389051
58.455 26.566004
58.460 27.248074
58.465 26.911448
58.470 27.124744
58.475 26.931425
58.480 27.164011
58.485 27.573318
58.490 27.875759
58.495 26.685566
58.500 25.95503
58.505 25.278702
58.510 24.91787
58.515 24.547825
58.520 23.980701
58.525 24.582838
58.530 26.059015
58.535 26.650848
58.540 26.771706
58.545 26.854406
58.550 26.796631
58.555 27.163885
58.560 26.536961
58.565 26.151354
58.570 25.758387
58.575 25.827452
58.580 25.760061
58.585 26.024656
58.590 25.968678
58.595 25.673794
58.600 25.528994
58.605 25.556398
58.610 25.418007
58.615 25.271461
58.620 25.668112
58.625 25.874493
58.630 25.783083
58.635 25.696802
58.640 25.992205
58.645 25.720491
58.650 25.54381
58.655 25.078909
58.660 24.476568
58.665 24.517561
58.670 24.949879
58.675 25.09977
58.680 25.054987
58.685 24.976423
58.690 24.551353
58.695 25.485195
58.700 26.107603
58.705 25.993896
58.710 25.709734
58.715 25.611856
58.720 26.356161
58.725 26.27487
58.730 25.103926
58.735 24.497454
58.740 24.871368
58.745 25.82345
58.750 26.09617
58.755 25.211699
58.760 25.699957
58.765 25.794203
58.770 25.774054
58.775 24.917562
58.780 24.298782
58.785 24.155231
58.790 24.174688
58.795 23.72632
58.800 23.923203
58.805 23.374737
58.810 23.028006
58.815 22.730625
58.820 22.578503
58.825 22.495211
58.830 22.53446
58.835 22.037392
58.840 22.404245
58.845 22.135416
58.850 21.393667
58.855 21.000677
58.860 20.996372
58.865 21.013233
58.870 21.681597
58.875 21.691053
58.880 22.643711
58.885 23.5163
58.890 24.275328
58.895 24.17127
58.900 24.011505
58.905 24.085947
58.910 24.216866
58.915 23.819977
58.920 23.130465
58.925 22.465408
58.930 22.430981
58.935 21.898024
58.940 21.440384
58.945 21.997217
58.950 21.564882
58.955 21.169432
58.960 20.870142
58.965 20.840731
58.970 21.363903
58.975 20.731306
58.980 19.792173
58.985 20.564676
58.990 21.387049
58.995 21.97229
59.000 22.211927
59.005 22.442818
59.010 23.101
59.015 23.497286
59.020 23.348125
59.025 22.720131
59.030 21.778097
59.035 21.226366
59.040 21.796297
59.045 21.970917
59.050 21.60652
59.055 21.147366
59.060 21.513481
59.065 21.942432
59.070 22.04965
59.075 20.921757
59.080 20.296209
59.085 20.317856
59.090 20.313337
59.095 20.128866
59.100 19.919115
59.105 19.991413
59.110 20.456308
59.115 20.653988
59.120 20.184315
59.125 20.022959
59.130 20.165199
59.135 20.394432
59.140 20.088346
59.145 20.00972
59.150 19.794594
59.155 19.663315
59.160 19.183044
59.165 19.311647
59.170 19.081793
59.175 18.854849
59.180 18.285637
59.185 17.697716
59.190 17.999039
59.195 18.646959
59.200 18.780207
59.205 18.673454
59.210 18.764503
59.215 19.179255
59.220 19.917639
59.225 20.21871
59.230 19.521795
59.235 19.700144
59.240 20.453079
59.245 21.323402
59.250 21.540731
59.255 21.080755
59.260 21.259108
59.265 21.548483
59.270 21.132036
59.275 20.741903
59.280 20.170113
59.285 20.172665
59.290 20.725863
59.295 20.619431
59.300 20.04542
59.305 19.391365
59.310 18.594799
59.315 18.294243
59.320 18.03664
59.325 17.89831
59.330 17.701485
59.335 18.417673
59.340 19.463936
59.345 19.75733
59.350 19.696718
59.355 19.762671
59.360 19.543791
59.365 19.484901
59.370 19.068283
59.375 18.601809
59.380 18.602104
59.385 18.836323
59.390 18.988714
59.395 19.670408
59.400 19.750084
59.405 19.777308
59.410 19.761557
59.415 19.775497
59.420 20.610933
59.425 20.580412
59.430 20.288408
59.435 20.035439
59.440 19.829525
59.445 20.040091
59.450 20.459869
59.455 19.558218
59.460 18.821087
59.465 18.455633
59.470 18.385731
59.475 17.97224
59.480 18.134613
59.485 17.7619
59.490 18.201801
59.495 18.769562
59.500 19.26185
59.505 19.712788
59.510 20.414301
59.515 20.306932
59.520 20.113665
59.525 19.797422
59.530 19.451443
59.535 19.119858
59.540 18.790833
59.545 18.69171
59.550 18.477457
59.555 18.630489
59.560 18.767309
59.565 19.016796
59.570 19.453228
59.575 19.323801
59.580 19.209978
59.585 19.272095
59.590 18.930532
59.595 18.449579
59.600 18.247221
59.605 17.538614
59.610 17.478306
59.615 17.014473
59.620 16.975218
59.625 17.34099
59.630 17.580257
59.635 17.415916
59.640 17.305218
59.645 17.557711
59.650 17.715214
59.655 17.664219
59.660 17.909693
59.665 17.487223
59.670 17.855812
59.675 18.573378
59.680 18.389084
59.685 18.344526
59.690 18.56555
59.695 18.590223
59.700 18.96044
59.705 18.544558
59.710 18.4146
59.715 19.192572
59.720 19.914726
59.725 20.244699
59.730 20.041521
59.735 20.337009
59.740 20.872
59.745 20.812231
59.750 20.058969
59.755 19.427343
59.760 19.031694
59.765 19.081944
59.770 18.132202
59.775 17.920034
59.780 17.882063
59.785 17.975134
59.790 17.242428
59.795 16.957048
59.800 17.27577
59.805 17.447069
59.810 17.070053
59.815 16.819086
59.820 16.131706
59.825 16.501183
59.830 16.375317
59.835 16.203928
59.840 16.826515
59.845 17.109171
59.850 17.469906
59.855 17.908888
59.860 17.836296
59.865 18.273203
59.870 18.180151
59.875 17.633339
59.880 17.732281
59.885 17.929838
59.890 18.571228
59.895 19.090328
59.900 18.954258
59.905 18.67758
59.910 18.199577
59.915 18.01585
59.920 18.513506
59.925 18.235909
59.930 17.992031
59.935 18.083872
59.940 18.39831
59.945 18.739588
59.950 18.581425
59.955 17.704992
59.960 17.521723
59.965 17.462851
59.970 17.14542
59.975 16.803621
59.980 17.140112
59.985 17.14134
59.990 17.613703
59.995 17.89682
60.000 17.729567
60.005 17.658178
60.010 18.52552
60.015 18.852097
60.020 18.762587
60.025 18.306395
60.030 18.132448
60.035 18.580841
60.040 18.266035
60.045 17.315634
60.050 16.782845
60.055 16.793192
60.060 17.671103
60.065 18.148916
60.070 18.053892
60.075 18.784424
60.080 19.275814
60.085 19.186533
60.090 18.844196
60.095 17.99893
60.100 18.321802
60.105 17.91626
60.110 17.030651
60.115 16.513668
60.120 16.488218
60.125 17.651314
60.130 18.001154
60.135 17.631636
60.140 17.85696
60.145 18.464474
60.150 19.22509
60.155 19.034605
60.160 18.215456
60.165 18.068321
60.170 17.937548
60.175 18.134708
60.180 17.643671
60.185 16.476402
60.190 16.118349
60.195 15.393984
60.200 15.045073
60.205 14.93576
60.210 14.901943
60.215 14.70174
60.220 14.901834
60.225 15.35752
60.230 15.780692
60.235 15.659347
60.240 15.627179
60.245 15.721921
60.250 15.999371
60.255 16.338036
60.260 16.321831
60.265 16.746534
60.270 17.300877
60.275 17.331743
60.280 16.806667
60.285 16.492903
60.290 16.395433
60.295 16.447355
60.300 16.130043
60.305 15.673702
60.310 15.458587
60.315 15.869789
60.320 16.233013
60.325 16.61659
60.330 16.222889
60.335 16.226795
60.340 15.982848
60.345 16.270626
60.350 16.286877
60.355 16.111395
60.360 15.785744
60.365 16.00701
60.370 15.998821
60.375 16.132799
60.380 15.924891
60.385 15.729655
60.390 15.720535
60.395 15.859773
60.400 15.354205
60.405 15.613996
60.410 16.432978
60.415 16.9107
60.420 17.560427
60.425 17.74752
60.430 17.71175
60.435 17.963501
60.440 17.939751
60.445 17.254042
60.450 16.653166
60.455 16.420052
60.460 16.828087
60.465 17.474504
60.470 17.851557
60.475 17.642626
60.480 17.375755
60.485 17.372257
60.490 17.446117
60.495 17.083136
60.500 16.783022
60.505 16.682861
60.510 17.062923
60.515 17.277079
60.520 17.559147
60.525 17.854408
60.530 17.760332
60.535 17.977476
60.540 17.988974
60.545 17.557222
60.550 17.257887
60.555 17.203926
60.560 16.909817
60.565 17.191824
60.570 17.094946
60.575 16.719759
60.580 17.246355
60.585 17.562382
60.590 17.222542
60.595 17.024279
60.600 16.456736
60.605 16.113813
60.610 16.171148
60.615 15.68398
60.620 16.239449
60.625 16.61742
60.630 16.824512
60.635 16.802158
60.640 16.65012
60.645 17.314453
60.650 17.552034
60.655 17.672676
60.660 17.594061
60.665 17.597834
60.670 17.716547
60.675 17.778936
60.680 17.682739
60.685 17.602251
60.690 17.009565
60.695 16.808842
60.700 16.747971
60.705 16.847445
60.710 17.140488
60.715 17.293921
60.720 17.220366
60.725 17.733419
60.730 17.992088
60.735 18.365244
60.740 18.505238
60.745 18.284351
60.750 17.505215
60.755 17.43255
60.760 17.24999
60.765 17.319244
60.770 17.603065
60.775 17.294048
60.780 17.25457
60.785 17.574986
60.790 17.310755
60.795 17.217016
60.800 16.683556
60.805 16.138678
60.810 16.477854
60.815 16.138342
60.820 15.678438
60.825 16.000456
60.830 16.328356
60.835 16.367994
60.840 16.774635
60.845 16.849783
60.850 17.019735
60.855 17.487774
60.860 17.348827
60.865 17.400562
60.870 17.319614
60.875 16.884315
60.880 17.127962
60.885 17.660522
60.890 17.422943
60.895 17.410158
60.900 17.229111
60.905 17.119202
60.910 17.409143
60.915 17.252377
60.920 17.067839
60.925 17.271017
60.930 17.486809
60.935 17.683037
60.940 18.088005
60.945 17.610401
60.950 16.949348
60.955 17.251055
60.960 17.358517
60.965 17.057045
60.970 16.763535
60.975 16.507063
60.980 16.672604
60.985 17.583942
60.990 17.091391
60.995 17.153143
61.000 16.939909
61.005 17.094406
61.010 16.804052
61.015 16.382578
61.020 15.922189
61.025 15.915209
61.030 15.579122
61.035 15.600653
61.040 15.39266
61.045 15.314891
61.050 15.252287
61.055 15.098571
61.060 14.866671
61.065 15.208637
61.070 15.653928
61.075 15.489941
61.080 15.974543
61.085 16.670034
61.090 17.069544
61.095 17.462526
61.100 17.317495
61.105 17.316273
61.110 17.803776
61.115 17.860886
61.120 16.915846
61.125 16.518627
61.130 15.965137
61.135 15.914617
61.140 15.936099
61.145 15.820819
61.150 15.762036
61.155 16.239944
61.160 16.347157
61.165 16.682388
61.170 16.408659
61.175 16.328892
61.180 16.734285
61.185 16.778229
61.190 16.967232
61.195 17.025459
61.200 17.298504
61.205 17.969826
61.210 17.90855
61.215 17.813492
61.220 18.133942
61.225 18.128626
61.230 19.311131
61.235 19.416084
61.240 19.008322
61.245 19.08412
61.250 18.837509
61.255 18.843664
61.260 18.682919
61.265 17.42264
61.270 17.245996
61.275 17.300034
61.280 17.045786
61.285 16.660847
61.290 16.584976
61.295 16.693634
61.300 17.078375
61.305 16.953619
61.310 16.918867
61.315 16.780821
61.320 16.599768
61.325 16.523361
61.330 16.425751
61.335 17.378517
61.340 17.639772
61.345 17.606091
61.350 17.94433
61.355 17.957521
61.360 18.280098
61.365 18.257292
61.370 17.028214
61.375 17.327589
61.380 17.506962
61.385 17.593479
61.390 18.275185
61.395 18.417061
61.400 18.549179
61.405 18.275738
61.410 17.608591
61.415 17.537548
61.420 17.050226
61.425 16.569798
61.430 15.779191
61.435 15.048799
61.440 15.339258
61.445 15.39383
61.450 15.753045
61.455 16.108171
61.460 16.196693
61.465 16.518003
61.470 17.309116
61.475 17.616816
61.480 17.058098
61.485 17.145555
61.490 17.327776
61.495 17.135557
61.500 17.321753
61.505 17.207172
61.510 17.256649
61.515 17.769915
61.520 17.075365
61.525 16.988014
61.530 16.841213
61.535 16.35696
61.540 16.076351
61.545 15.920303
61.550 16.277767
61.555 17.352922
61.560 17.976446
61.565 18.824028
61.570 18.720394
61.575 18.627033
61.580 18.464905
61.585 18.055098
61.590 17.636908
61.595 17.219114
61.600 16.619989
61.605 17.231884
61.610 17.010069
61.615 16.756979
61.620 16.357542
61.625 16.636366
61.630 16.426228
61.635 16.760948
61.640 16.773952
61.645 17.146135
61.650 17.53414
61.655 17.404224
61.660 16.66782
61.665 16.934149
61.670 16.856005
61.675 16.624445
61.680 16.565529
61.685 16.774628
61.690 17.182682
61.695 17.57399
61.700 17.564419
61.705 17.451027
61.710 17.510998
61.715 17.388569
61.720 16.846748
61.725 16.462105
61.730 15.953074
61.735 16.046738
61.740 16.132044
61.745 16.832432
61.750 17.129694
61.755 17.817579
61.760 17.962116
61.765 18.215872
61.770 17.9405
61.775 17.764421
61.780 16.848322
61.785 16.170525
61.790 15.717218
61.795 15.964912
61.800 15.861731
61.805 16.162498
61.810 16.324299
61.815 16.765339
61.820 17.541447
61.825 17.680634
61.830 17.531204
61.835 17.866024
61.840 18.024509
61.845 17.983725
61.850 18.029535
61.855 18.047314
61.860 18.204952
61.865 18.576849
61.870 18.024118
61.875 17.496767
61.880 17.12487
61.885 17.543892
61.890 17.332022
61.895 17.325823
61.900 17.16292
61.905 16.993105
61.910 17.22912
61.915 17.411606
61.920 16.899134
61.925 16.888626
61.930 16.690393
61.935 16.904829
61.940 17.702625
61.945 18.104988
61.950 18.03826
61.955 18.140692
61.960 18.51836
61.965 18.634859
61.970 18.60076
61.975 18.404293
61.980 17.653301
61.985 17.489542
61.990 17.790615
61.995 17.427914
62.000 17.229174
62.005 16.965784
62.010 16.797434
62.015 17.288006
62.020 17.225296
62.025 16.727707
62.030 16.958357
62.035 17.17724
62.040 17.549067
62.045 17.470142
62.050 17.677959
62.055 17.610725
62.060 17.53219
62.065 17.418636
62.070 16.771486
62.075 16.548658
62.080 16.646185
62.085 16.231518
62.090 16.603491
62.095 17.075438
62.100 17.388266
62.105 17.404684
62.110 17.176472
62.115 17.729967
62.120 18.338655
62.125 18.803066
62.130 18.467335
62.135 18.328449
62.140 19.045944
62.145 19.31329
62.150 19.059488
62.155 18.944792
62.160 18.264059
62.165 18.514334
62.170 18.481295
62.175 18.539524
62.180 18.485579
62.185 18.119644
62.190 17.818134
62.195 17.812933
62.200 17.37994
62.205 16.577047
62.210 15.511422
62.215 15.34334
62.220 15.048175
62.225 15.040121
62.230 14.805166
62.235 14.711529
62.240 15.263328
62.245 16.21073
62.250 16.43129
62.255 16.531572
62.260 16.595814
62.265 17.163498
62.270 17.475824
62.275 18.338499
62.280 17.844557
62.285 17.48485
62.290 17.499662
62.295 17.542149
62.300 17.631617
62.305 17.735624
62.310 17.552874
62.315 18.089174
62.320 18.477028
62.325 18.398737
62.330 18.490896
62.335 18.110971
62.340 17.799025
62.345 17.273354
62.350 17.096001
62.355 16.799229
62.360 17.243019
62.365 17.271751
62.370 17.238371
62.375 16.930798
62.380 16.958761
62.385 17.202665
62.390 17.43679
62.395 17.243879
62.400 17.705931
62.405 18.246544
62.410 19.080276
62.415 18.880524
62.420 18.64229
62.425 18.326046
62.430 18.086624
62.435 17.276188
62.440 16.760298
62.445 16.363598
62.450 16.857433
62.455 17.273275
62.460 18.167259
62.465 18.546284
62.470 18.87628
62.475 19.394974
62.480 19.84322
62.485 19.367891
62.490 18.617184
62.495 18.039547
62.500 17.722847
62.505 17.703989
62.510 17.472279
62.515 16.856146
62.520 17.176424
62.525 17.167177
62.530 17.222338
62.535 17.38518
62.540 17.750597
62.545 17.889467
62.550 17.62784
62.555 17.096973
62.560 17.449259
62.565 17.247131
62.570 16.739975
62.575 16.221813
62.580 15.759377
62.585 16.553152
62.590 16.715134
62.595 16.216887
62.600 16.295296
62.605 16.31069
62.610 16.361406
62.615 16.660049
62.620 16.193832
62.625 16.010849
62.630 16.702578
62.635 17.59479
62.640 18.149656
62.645 17.867846
62.650 17.839037
62.655 17.777122
62.660 18.380833
62.665 17.968807
62.670 17.17627
62.675 16.760326
62.680 16.803133
62.685 17.20005
62.690 17.982208
62.695 17.730513
62.700 17.376919
62.705 17.282066
62.710 17.609756
62.715 18.586706
62.720 18.536779
62.725 17.426212
62.730 17.929804
62.735 18.885555
62.740 19.160112
62.745 19.151827
62.750 18.265755
62.755 18.622303
62.760 19.148565
62.765 19.210516
62.770 18.364365
62.775 18.579369
62.780 18.900486
62.785 19.319088
62.790 19.258286
62.795 19.30641
62.800 19.2159
62.805 19.628115
62.810 19.288351
62.815 19.089596
62.820 18.316456
62.825 17.804745
62.830 17.53742
62.835 17.307402
62.840 17.460083
62.845 17.92038
62.850 17.633402
62.855 17.343019
62.860 17.187904
62.865 17.217609
62.870 17.162117
62.875 16.737286
62.880 16.126375
62.885 16.123941
62.890 16.114668
62.895 16.763275
62.900 17.348145
62.905 17.400658
62.910 17.289938
62.915 17.292521
62.920 17.878532
62.925 18.478001
62.930 17.667114
62.935 17.37071
62.940 17.66482
62.945 17.981339
62.950 18.577925
62.955 18.502216
62.960 18.096746
62.965 19.101421
62.970 20.058996
62.975 20.195524
62.980 19.848045
62.985 19.401102
62.990 19.748117
62.995 20.538177
63.000 19.716402
63.005 18.75478
63.010 19.048613
63.015 19.390203
63.020 19.575369
63.025 19.360298
63.030 18.880646
63.035 18.556795
63.040 17.891537
63.045 17.359312
63.050 17.230549
63.055 17.206909
63.060 16.929348
63.065 16.657244
63.070 16.935555
63.075 18.272919
63.080 18.353842
63.085 17.826143
63.090 17.715975
63.095 17.918819
63.100 17.979149
63.105 17.813866
63.110 17.325901
63.115 17.802418
63.120 18.396189
63.125 18.724182
63.130 18.543581
63.135 18.426662
63.140 18.688627
63.145 17.868078
63.150 17.072508
63.155 16.436445
63.160 15.818383
63.165 16.065821
63.170 15.93491
63.175 16.070038
63.180 16.348198
63.185 16.557077
63.190 16.551395
63.195 16.662859
63.200 16.690977
63.205 16.89868
63.210 17.091963
63.215 17.375267
63.220 17.312008
63.225 17.883362
63.230 18.078484
63.235 18.267611
63.240 18.109745
63.245 17.342196
63.250 17.694241
63.255 18.648758
63.260 18.803064
63.265 18.781153
63.270 18.677532
63.275 19.189716
63.280 19.406908
63.285 19.199854
63.290 18.787369
63.295 18.451796
63.300 18.678337
63.305 18.933067
63.310 19.379087
63.315 19.73563
63.320 19.931648
63.325 19.963987
63.330 20.917347
63.335 20.91164
63.340 20.99334
63.345 20.223728
63.350 19.675232
63.355 19.449713
63.360 19.630112
63.365 18.922106
63.370 18.91032
63.375 18.504503
63.380 19.136896
63.385 19.360151
63.390 19.318665
63.395 18.708187
63.400 19.088673
63.405 19.014475
63.410 18.611992
63.415 18.047867
63.420 18.345469
63.425 18.400175
63.430 18.239313
63.435 17.457798
63.440 17.337788
63.445 17.893417
63.450 17.863842
63.455 17.386766
63.460 17.684187
63.465 18.715776
63.470 19.613039
63.475 19.75312
63.480 19.802795
63.485 20.324226
63.490 20.366787
63.495 20.340935
63.500 20.2857
63.505 20.527458
63.510 20.379974
63.515 19.635239
63.520 19.263741
63.525 19.273602
63.530 19.292187
63.535 19.046307
63.540 18.89329
63.545 19.192137
63.550 19.894133
63.555 20.395615
63.560 20.349419
63.565 20.26182
63.570 19.745171
63.575 19.744453
63.580 19.601171
63.585 19.948694
63.590 19.580654
63.595 19.780172
63.600 19.168034
63.605 19.421579
63.610 19.222328
63.615 19.118328
63.620 18.927399
63.625 19.09798
63.630 18.878002
63.635 18.960218
63.640 18.424412
63.645 18.642887
63.650 18.426533
63.655 18.305695
63.660 18.687195
63.665 19.66474
63.670 20.164936
63.675 20.608454
63.680 20.576796
63.685 20.683458
63.690 20.088255
63.695 19.741409
63.700 19.401089
63.705 19.010086
63.710 19.229979
63.715 19.553375
63.720 19.745638
63.725 20.037666
63.730 20.74754
63.735 20.661556
63.740 21.386011
63.745 21.440928
63.750 20.72533
63.755 20.276571
63.760 20.00338
63.765 19.341454
63.770 19.89975
63.775 19.299385
63.780 19.811693
63.785 20.699001
63.790 21.45327
63.795 22.275589
63.800 23.101776
63.805 23.409813
63.810 23.988573
63.815 23.719456
63.820 23.78426
63.825 24.14802
63.830 23.735006
63.835 23.369371
63.840 23.175772
63.845 23.282934
63.850 23.320988
63.855 23.581383
63.860 23.060127
63.865 22.948391
63.870 22.603796
63.875 22.189142
63.880 22.005804
63.885 22.53023
63.890 23.059187
63.895 23.790689
63.900 24.226896
63.905 24.689365
63.910 24.731674
63.915 24.322208
63.920 23.556156
63.925 23.052582
63.930 22.87562
63.935 23.175798
63.940 23.641573
63.945 24.408768
63.950 24.989975
63.955 25.400007
63.960 25.179304
63.965 25.897606
63.970 26.010155
63.975 26.490713
63.980 26.487694
63.985 26.890162
63.990 26.790455
63.995 27.523466
64.000 27.349815
64.005 27.480143
64.010 27.194048
64.015 27.910833
64.020 28.155785
64.025 28.528431
64.030 28.674627
64.035 28.680149
64.040 28.455893
64.045 28.767395
64.050 28.99828
64.055 29.189512
64.060 29.519775
64.065 29.624895
64.070 29.725054
64.075 30.327122
64.080 30.256475
64.085 30.2197
64.090 30.580257
64.095 30.793955
64.100 30.678379
64.105 30.5082
64.110 30.287624
64.115 30.46195
64.120 30.236271
64.125 30.552536
64.130 30.182079
64.135 30.776442
64.140 30.948891
64.145 31.013849
64.150 31.23015
64.155 31.169292
64.160 30.502989
64.165 30.712091
64.170 30.823071
64.175 31.200607
64.180 31.585463
64.185 30.944794
64.190 31.019346
64.195 31.951666
64.200 31.738791
64.205 31.594429
64.210 31.605
64.215 31.044044
64.220 31.533804
64.225 31.518606
64.230 31.591341
64.235 31.572189
64.240 31.662357
64.245 31.650471
64.250 31.237061
64.255 31.613333
64.260 32.120022
64.265 31.602777
64.270 32.178772
64.275 32.206337
64.280 32.470627
64.285 33.219109
64.290 32.576233
64.295 32.311127
64.300 32.594528
64.305 32.477493
64.310 32.775433
64.315 33.186749
64.320 32.9622
64.325 32.847702
64.330 32.585285
64.335 32.122059
64.340 31.98209
64.345 31.562323
64.350 31.05629
64.355 31.564911
64.360 32.473602
64.365 32.253983
64.370 32.185493
64.375 31.386362
64.380 31.086071
64.385 30.438845
64.390 29.036638
64.395 28.291935
64.400 28.442583
64.405 28.855223
64.410 29.019966
64.415 28.936062
64.420 28.903185
64.425 28.949919
64.430 28.187338
64.435 27.518505
64.440 27.317997
64.445 26.844418
64.450 26.917856
64.455 27.2146
64.460 27.557911
64.465 27.483896
64.470 27.235922
64.475 26.735731
64.480 27.131868
64.485 27.249283
64.490 26.983658
64.495 26.977678
64.500 27.241524
64.505 27.733116
64.510 27.892143
64.515 27.962244
64.520 27.771688
64.525 27.346416
64.530 27.302122
64.535 27.298861
64.540 27.384075
64.545 27.679447
64.550 27.566956
64.555 27.824413
64.560 27.277237
64.565 26.82859
64.570 26.259302
64.575 25.181759
64.580 24.70327
64.585 24.823988
64.590 25.407719
64.595 26.003256
64.600 26.064379
64.605 26.204477
64.610 26.154978
64.615 25.565617
64.620 24.658031
64.625 23.564535
64.630 23.326229
64.635 22.976599
64.640 22.932802
64.645 23.476671
64.650 23.745613
64.655 23.64185
64.660 23.550699
64.665 23.722263
64.670 23.856403
64.675 23.523397
64.680 23.3752
64.685 23.47636
64.690 23.819542
64.695 24.459049
64.700 23.966032
64.705 23.822447
64.710 24.105358
64.715 23.872606
64.720 23.057135
64.725 22.399811
64.730 22.502405
64.735 22.760965
64.740 23.534779
64.745 23.62434
64.750 23.52408
64.755 24.133732
64.760 24.34787
64.765 24.345858
64.770 24.114687
64.775 23.467731
64.780 22.831825
64.785 23.133547
64.790 23.036684
64.795 22.496208
64.800 21.902418
64.805 21.81683
64.810 21.845579
64.815 21.670841
64.820 21.594839
64.825 22.380013
64.830 22.597744
64.835 22.672035
64.840 23.24246
64.845 23.009579
64.850 23.307472
64.855 23.336309
64.860 22.41363
64.865 22.286716
64.870 22.311113
64.875 21.771948
64.880 22.103622
64.885 22.022064
64.890 22.116348
64.895 22.208258
64.900 22.412167
64.905 22.856876
64.910 22.960257
64.915 23.085369
64.920 22.604248
64.925 21.923826
64.930 21.893606
64.935 21.819019
64.940 21.439959
64.945 22.145849
64.950 22.750629
64.955 23.32025
64.960 24.029989
64.965 24.118284
64.970 23.917286
64.975 24.469975
64.980 24.093067
64.985 23.673668
64.990 23.487518
64.995 23.640448
65.000 24.150236
65.005 24.252329
65.010 24.026644
65.015 23.693308
65.020 24.962271
65.025 25.809771
65.030 25.570309
65.035 24.99427
65.040 25.699148
65.045 25.999666
65.050 25.854792
65.055 24.934807
65.060 24.901215
65.065 25.05039
65.070 25.242014
65.075 24.495192
65.080 24.335327
65.085 24.626217
65.090 24.239714
65.095 24.191513
65.100 24.310019
65.105 24.462307
65.110 24.682659
65.115 24.780348
65.120 24.686769
65.125 25.277884
65.130 25.004261
65.135 24.552906
65.140 24.973606
65.145 25.243954
65.150 25.460331
65.155 25.773012
65.160 25.406725
65.165 25.69932
65.170 26.763416
65.175 26.870983
65.180 26.61978
65.185 26.118681
65.190 25.917536
65.195 25.505898
65.200 25.377378
65.205 25.344261
65.210 25.334829
65.215 25.553965
65.220 25.620047
65.225 25.643562
65.230 25.527002
65.235 25.340681
65.240 24.681385
65.245 24.644255
65.250 24.766333
65.255 24.680359
65.260 25.146309
65.265 25.014059
65.270 25.022024
65.275 24.848438
65.280 24.85339
65.285 24.688122
65.290 25.082115
65.295 25.32015
65.300 25.736643
65.305 25.930069
65.310 26.353804
65.315 26.366032
65.320 26.438824
65.325 25.585146
65.330 25.633837
65.335 26.932167
65.340 27.95377
65.345 28.009991
65.350 27.384136
65.355 27.412407
65.360 27.444851
65.365 26.938936
65.370 25.851725
65.375 24.941061
65.380 24.762293
65.385 25.504288
65.390 25.174837
65.395 25.516476
65.400 25.44372
65.405 25.336943
65.410 25.181135
65.415 25.019461
65.420 24.857433
65.425 25.464361
65.430 26.038126
65.435 26.464376
65.440 26.500813
65.445 26.442406
65.450 27.134003
65.455 27.491823
65.460 27.378553
65.465 26.898056
65.470 26.911047
65.475 27.0606
65.480 27.2663
65.485 27.189913
65.490 26.650211
65.495 27.144905
65.500 27.08342
65.505 27.088638
65.510 27.700716
65.515 27.697662
65.520 27.399841
65.525 27.525658
65.530 27.853249
65.535 27.691994
65.540 27.587831
65.545 27.499176
65.550 27.745619
65.555 27.753414
65.560 27.959293
65.565 27.448982
65.570 27.927116
65.575 28.082844
65.580 28.445171
65.585 28.151524
65.590 28.033632
65.595 27.858755
65.600 28.094521
65.605 28.399582
65.610 29.165201
65.615 29.308067
65.620 30.161629
65.625 30.911499
65.630 30.927628
65.635 31.425194
65.640 31.544378
65.645 30.301956
65.650 29.732315
65.655 29.650059
65.660 29.168198
65.665 29.193335
65.670 29.03087
65.675 28.508671
65.680 29.434771
65.685 30.314831
65.690 31.309587
65.695 31.512674
65.700 31.979622
65.705 32.464634
65.710 33.446579
65.715 32.413616
65.720 31.181511
65.725 30.320686
65.730 30.774708
65.735 30.094261
65.740 29.273153
65.745 28.977058
65.750 29.53793
65.755 30.297173
65.760 30.920959
65.765 31.797379
65.770 32.02776
65.775 32.693375
65.780 32.515293
65.785 32.908382
65.790 33.218227
65.795 33.72884
65.800 33.335541
65.805 34.085575
65.810 34.51601
65.815 34.714596
65.820 34.505531
65.825 34.811569
65.830 34.843338
65.835 34.753487
65.840 34.551727
65.845 33.988388
65.850 34.042915
65.855 34.448975
65.860 34.437798
65.865 34.632206
65.870 35.586445
65.875 36.178375
65.880 36.531754
65.885 36.743855
65.890 36.201141
65.895 35.191963
65.900 34.791939
65.905 34.376583
65.910 34.775715
65.915 35.172867
65.920 35.712044
65.925 36.629414
65.930 38.015465
65.935 38.509941
65.940 38.420395
65.945 38.145439
65.950 37.969017
65.955 37.270622
65.960 36.597519
65.965 35.593151
65.970 35.209812
65.975 35.185394
65.980 34.689434
65.985 34.810604
65.990 35.652641
65.995 36.146103
66.000 36.460007
66.005 36.017246
66.010 36.01321
66.015 36.13665
66.020 35.787018
66.025 35.863834
66.030 36.162125
66.035 35.829529
66.040 36.623024
66.045 37.140572
66.050 37.137039
66.055 37.198948
66.060 36.932327
66.065 36.33165
66.070 36.409351
66.075 36.419319
66.080 36.409683
66.085 37.023655
66.090 36.62645
66.095 36.060646
66.100 36.9133
66.105 36.972168
66.110 36.71891
66.115 35.952606
66.120 35.382462
66.125 35.660942
66.130 36.142696
66.135 36.450897
66.140 37.301704
66.145 37.613415
66.150 37.848087
66.155 37.384132
66.160 37.397926
66.165 37.843491
66.170 37.482613
66.175 36.595741
66.180 36.331276
66.185 36.953751
66.190 38.011929
66.195 38.25032
66.200 38.232155
66.205 38.067577
66.210 37.823807
66.215 37.652699
66.220 36.615761
66.225 35.620968
66.230 35.109932
66.235 35.05254
66.240 35.142914
66.245 35.301018
66.250 36.042564
66.255 36.747524
66.260 36.981247
66.265 37.30904
66.270 36.588642
66.275 36.3461
66.280 36.627972
66.285 36.148426
66.290 35.700119
66.295 35.937355
66.300 35.312351
66.305 34.973576
66.310 34.77216
66.315 34.464264
66.320 34.60799
66.325 35.518574
66.330 35.780071
66.335 36.050411
66.340 36.352245
66.345 36.257267
66.350 36.124477
66.355 35.029308
66.360 33.824001
66.365 33.302788
66.370 32.887783
66.375 32.29192
66.380 31.717268
66.385 31.106236
66.390 31.329508
66.395 30.380653
66.400 30.016161
66.405 30.69038
66.410 31.259588
66.415 31.582979
66.420 31.066132
66.425 30.947706
66.430 31.177593
66.435 30.393654
66.440 29.323519
66.445 28.575104
66.450 28.11438
66.455 28.46102
66.460 28.399807
66.465 28.511791
66.470 28.208513
66.475 28.536844
66.480 27.988108
66.485 27.925451
66.490 27.457054
66.495 27.340271
66.500 27.349064
66.505 27.676723
66.510 26.810806
66.515 26.412012
66.520 26.03443
66.525 26.051353
66.530 26.083521
66.535 26.338606
66.540 26.357559
66.545 26.635708
66.550 26.994225
66.555 27.07703
66.560 27.274265
66.565 26.99872
66.570 26.623886
66.575 26.306087
66.580 26.012762
66.585 26.162922
66.590 26.437258
66.595 25.873468
66.600 25.86142
66.605 26.347662
66.610 26.08069
66.615 25.745375
66.620 24.686239
66.625 24.47245
66.630 24.335857
66.635 23.65295
66.640 22.658607
66.645 22.307947
66.650 21.918343
66.655 21.938242
66.660 21.671534
66.665 21.398697
66.670 21.464151
66.675 21.98782
66.680 22.277628
66.685 22.741127
66.690 22.636141
66.695 22.478315
66.700 22.489515
66.705 22.82468
66.710 22.984056
66.715 23.469524
66.720 23.491558
66.725 22.99778
66.730 22.408745
66.735 22.234865
66.740 21.780148
66.745 21.044842
66.750 20.39986
66.755 20.329113
66.760 20.664337
66.765 21.207781
66.770 21.608343
66.775 21.583977
66.780 21.739595
66.785 22.240894
66.790 22.150524
66.795 22.221132
66.800 21.963993
66.805 22.060408
66.810 22.146635
66.815 22.014448
66.820 21.984665
66.825 22.358143
66.830 22.399
66.835 22.030809
66.840 21.571362
66.845 21.212765
66.850 21.086031
66.855 19.96558
66.860 19.237074
66.865 19.208227
66.870 19.849823
66.875 20.626293
66.880 20.720373
66.885 20.545082
66.890 20.695911
66.895 20.765392
66.900 20.569447
66.905 19.689966
66.910 18.406254
66.915 18.769732
66.920 18.87981
66.925 19.224216
66.930 18.340836
66.935 18.234083
66.940 18.115965
66.945 18.531288
66.950 18.100262
66.955 17.918673
66.960 17.9055
66.965 19.217411
66.970 19.615181
66.975 19.76837
66.980 19.878817
66.985 20.130217
66.990 20.298082
66.995 20.77338
67.000 20.127111
67.005 19.772173
67.010 20.113022
67.015 20.19099
67.020 20.500126
67.025 20.477146
67.030 20.234451
67.035 20.901808
67.040 21.228506
67.045 21.077267
67.050 20.557907
67.055 20.443893
67.060 20.695377
67.065 20.422548
67.070 19.567774
67.075 19.549141
67.080 19.830452
67.085 20.057953
67.090 20.128777
67.095 20.140211
67.100 20.223866
67.105 20.841318
67.110 20.795389
67.115 20.941608
67.120 21.22883
67.125 21.180996
67.130 21.088289
67.135 21.214888
67.140 21.02416
67.145 21.076824
67.150 20.878412
67.155 20.878523
67.160 20.832502
67.165 20.969992
67.170 21.20274
67.175 21.23987
67.180 20.593428
67.185 20.203243
67.190 19.743603
67.195 19.225254
67.200 19.303087
67.205 19.327875
67.210 19.577623
67.215 20.261187
67.220 20.656733
67.225 20.92618
67.230 21.174664
67.235 20.984945
67.240 20.222799
67.245 20.169292
67.250 19.909668
67.255 20.13822
67.260 20.591322
67.265 20.542093
67.270 20.598688
67.275 21.364697
67.280 21.355124
67.285 21.064745
67.290 20.906162
67.295 20.222
67.300 20.183586
67.305 19.963917
67.310 19.522036
67.315 20.167173
67.320 20.649073
67.325 20.43936
67.330 20.693571
67.335 20.444176
67.340 20.132486
67.345 19.990305
67.350 19.669008
67.355 19.772923
67.360 19.705126
67.365 20.275541
67.370 21.011539
67.375 21.687801
67.380 22.035078
67.385 21.214743
67.390 20.621441
67.395 20.920456
67.400 20.070107
67.405 19.231846
67.410 18.664736
67.415 18.064934
67.420 18.235437
67.425 18.082378
67.430 17.718618
67.435 18.204624
67.440 18.601461
67.445 19.196762
67.450 19.703571
67.455 19.407518
67.460 19.546061
67.465 19.798059
67.470 19.964396
67.475 20.016926
67.480 19.673454
67.485 19.714924
67.490 20.365984
67.495 20.10647
67.500 20.053228
67.505 19.58275
67.510 19.388136
67.515 19.925863
67.520 20.285908
67.525 20.29755
67.530 20.602943
67.535 20.895123
67.540 21.498865
67.545 21.773045
67.550 21.565929
67.555 21.076305
67.560 20.835257
67.565 20.331573
67.570 19.982161
67.575 19.658615
67.580 19.887159
67.585 19.715376
67.590 19.543076
67.595 19.401127
67.600 19.81843
67.605 19.969067
67.610 20.043474
67.615 20.067505
67.620 19.898676
67.625 20.126005
67.630 20.888018
67.635 20.562807
67.640 20.182802
67.645 20.084654
67.650 19.894775
67.655 19.67556
67.660 20.184315
67.665 20.120131
67.670 20.014576
67.675 20.552656
67.680 20.987566
67.685 21.216122
67.690 20.257969
67.695 19.218645
67.700 18.897133
67.705 18.615192
67.710 18.301889
67.715 17.657804
67.720 18.179848
67.725 18.604179
67.730 19.040186
67.735 19.612282
67.740 19.827114
67.745 19.429245
67.750 19.561975
67.755 18.744589
67.760 18.728588
67.765 18.750135
67.770 18.591574
67.775 18.813332
67.780 19.418079
67.785 19.447855
67.790 19.976141
67.795 20.854275
67.800 21.14431
67.805 21.101851
67.810 21.364664
67.815 21.391708
67.820 21.778847
67.825 21.504669
67.830 21.386332
67.835 21.502403
67.840 21.996716
67.845 22.328926
67.850 21.853437
67.855 21.514982
67.860 22.097162
67.865 22.1059
67.870 21.983273
67.875 21.812296
67.880 21.303917
67.885 21.267626
67.890 20.668276
67.895 20.55579
67.900 20.984474
67.905 20.572882
67.910 19.844913
67.915 19.61586
67.920 19.924427
67.925 19.969397
67.930 19.564251
67.935 18.863052
67.940 19.054045
67.945 19.700447
67.950 19.620817
67.955 19.318979
67.960 18.972527
67.965 18.707457
67.970 18.726269
67.975 18.303854
67.980 18.106548
67.985 19.067356
67.990 20.161573
67.995 20.61306
68.000 20.762611
68.005 21.189428
68.010 21.438372
68.015 21.300955
68.020 20.820883
68.025 19.964743
68.030 19.994781
68.035 20.085747
68.040 19.697292
68.045 19.93508
68.050 20.287384
68.055 20.537783
68.060 20.596151
68.065 20.596601
68.070 20.412846
68.075 20.348446
68.080 20.526825
68.085 20.386969
68.090 20.051609
68.095 20.678825
68.100 20.76018
68.105 20.887508
68.110 21.082991
68.115 20.567904
68.120 20.228243
68.125 20.135582
68.130 19.307558
68.135 19.332087
68.140 18.681284
68.145 18.567961
68.150 18.804224
68.155 18.433239
68.160 18.392385
68.165 18.674267
68.170 18.721048
68.175 19.762142
68.180 19.928755
68.185 20.028366
68.190 19.696949
68.195 20.039448
68.200 20.355179
68.205 20.557844
68.210 20.491734
68.215 20.938877
68.220 21.007532
68.225 21.442728
68.230 21.288628
68.235 21.17782
68.240 20.972355
68.245 20.655313
68.250 20.260912
68.255 20.39538
68.260 20.593954
68.265 20.797161
68.270 20.971104
68.275 21.468674
68.280 21.484028
68.285 21.362444
68.290 20.791264
68.295 21.026089
68.300 21.078768
68.305 20.77231
68.310 19.890577
68.315 19.946819
68.320 20.17152
68.325 20.733509
68.330 20.47958
68.335 20.016888
68.340 20.080053
68.345 19.993176
68.350 19.732948
68.355 20.350994
68.360 20.575907
68.365 20.250509
68.370 20.563219
68.375 20.753704
68.380 21.623451
68.385 22.196159
68.390 21.925116
68.395 21.616409
68.400 21.51877
68.405 21.218578
68.410 21.038952
68.415 20.645123
68.420 20.120766
68.425 19.997049
68.430 20.44132
68.435 20.903517
68.440 21.370173
68.445 21.100386
68.450 21.483322
68.455 21.834333
68.460 22.268021
68.465 22.485727
68.470 22.155684
68.475 22.478991
68.480 22.434881
68.485 21.628044
68.490 21.222034
68.495 20.33353
68.500 20.1509
68.505 20.443422
68.510 20.441736
68.515 20.477846
68.520 20.858852
68.525 21.526133
68.530 22.223221
68.535 21.947485
68.540 21.374252
68.545 21.626945
68.550 22.305975
68.555 21.763004
68.560 21.573414
68.565 21.587746
68.570 21.806349
68.575 22.00598
68.580 21.806522
68.585 21.351828
68.590 21.746466
68.595 21.219749
68.600 21.215107
68.605 21.540058
68.610 21.873409
68.615 22.230331
68.620 22.93952
68.625 23.231853
68.630 23.451948
68.635 23.291533
68.640 23.129841
68.645 22.851549
68.650 22.526766
68.655 22.435181
68.660 22.222797
68.665 22.897776
68.670 23.586546
68.675 24.191462
68.680 24.657894
68.685 24.971249
68.690 25.5982
68.695 26.098814
68.700 25.690271
68.705 25.335497
68.710 25.107925
68.715 25.204931
68.720 25.115505
68.725 24.571394
68.730 24.651014
68.735 24.987572
68.740 24.760378
68.745 25.050861
68.750 25.090221
68.755 24.895481
68.760 25.013718
68.765 24.80858
68.770 24.486385
68.775 24.633934
68.780 23.949171
68.785 23.802937
68.790 24.094606
68.795 24.703207
68.800 25.23069
68.805 25.971004
68.810 26.207834
68.815 26.65461
68.820 27.198553
68.825 27.154848
68.830 26.631306
68.835 26.603048
68.840 26.385677
68.845 26.36413
68.850 26.352734
68.855 26.684036
68.860 27.450968
68.865 27.70372
68.870 27.832169
68.875 28.194431
68.880 29.035444
68.885 29.195015
68.890 29.353241
68.895 29.28224
68.900 28.531879
68.905 28.186895
68.910 27.856726
68.915 27.521523
68.920 27.150007
68.925 27.019308
68.930 27.349573
68.935 28.39982
68.940 28.530195
68.945 28.880045
68.950 29.077686
68.955 29.341854
68.960 29.318747
68.965 28.675079
68.970 27.979298
68.975 28.281343
68.980 28.258514
68.985 28.325541
68.990 28.242727
68.995 27.966627
69.000 28.401432
69.005 29.393406
69.010 29.754614
69.015 29.684418
69.020 29.835083
69.025 30.179092
69.030 30.67988
69.035 31.180525
69.040 30.633341
69.045 30.198711
69.050 30.432886
69.055 30.658451
69.060 31.545555
69.065 30.911669
69.070 30.376352
69.075 30.792212
69.080 30.978434
69.085 30.730463
69.090 29.46751
69.095 29.129635
69.100 29.447031
69.105 30.678368
69.110 30.750395
69.115 31.122393
69.120 31.894533
69.125 32.267509
69.130 31.683271
69.135 31.932516
69.140 31.063679
69.145 30.913467
69.150 30.910536
69.155 31.729685
69.160 32.282749
69.165 32.034481
69.170 31.788939
69.175 32.153423
69.180 31.743332
69.185 31.137497
69.190 30.608608
69.195 31.170252
69.200 31.719839
69.205 31.585796
69.210 31.054312
69.215 31.243559
69.220 30.833071
69.225 30.259142
69.230 30.128326
69.235 30.354843
69.240 30.216604
69.245 31.168631
69.250 31.140318
69.255 31.55727
69.260 31.399826
69.265 31.640947
69.270 31.324919
69.275 31.686451
69.280 31.383512
69.285 31.657907
69.290 31.88596
69.295 31.669693
69.300 31.067076
69.305 31.441166
69.310 32.019341
69.315 31.57156
69.320 31.580626
69.325 31.703522
69.330 32.142807
69.335 32.152702
69.340 31.730598
69.345 31.276819
69.350 31.62538
69.355 31.075022
69.360 30.790236
69.365 30.665117
69.370 30.890112
69.375 31.168079
69.380 31.701509
69.385 32.024975
69.390 33.036499
69.395 33.165058
69.400 33.096603
69.405 32.923283
69.410 32.25304
69.415 32.278866
69.420 32.238949
69.425 31.904791
69.430 31.925339
69.435 32.474888
69.440 32.930634
69.445 33.945789
69.450 33.871479
69.455 33.613815
69.460 33.078758
69.465 32.875401
69.470 32.06221
69.475 31.846788
69.480 30.997715
69.485 30.487659
69.490 30.571995
69.495 30.939671
69.500 31.337286
69.505 31.415417
69.510 31.684761
69.515 31.917597
69.520 32.053764
69.525 31.440208
69.530 31.143436
69.535 30.560713
69.540 30.638388
69.545 30.363125
69.550 30.979235
69.555 31.248528
69.560 30.893623
69.565 30.8174
69.570 31.296782
69.575 31.404573
69.580 30.639046
69.585 29.939676
69.590 29.870205
69.595 30.015575
69.600 29.478605
69.605 29.517754
69.610 29.015272
69.615 28.865591
69.620 28.962423
69.625 29.138441
69.630 29.221317
69.635 29.139038
69.640 28.873545
69.645 29.279232
69.650 29.794111
69.655 29.750235
69.660 29.100138
69.665 29.758495
69.670 29.933826
69.675 29.251276
69.680 28.936743
69.685 28.586948
69.690 27.741272
69.695 28.185472
69.700 27.793852
69.705 27.569227
69.710 27.109446
69.715 26.78705
69.720 26.333899
69.725 26.302046
69.730 25.942671
69.735 25.605516
69.740 26.001623
69.745 26.917988
69.750 26.972988
69.755 26.535761
69.760 25.95447
69.765 25.314627
69.770 25.560226
69.775 24.594976
69.780 24.104288
69.785 23.830727
69.790 23.953089
69.795 24.35376
69.800 24.802433
69.805 23.912769
69.810 23.77389
69.815 23.94553
69.820 23.742218
69.825 24.082169
69.830 24.220478
69.835 24.54866
69.840 24.781919
69.845 25.050173
69.850 24.645037
69.855 25.215736
69.860 24.729338
69.865 24.435106
69.870 24.626547
69.875 24.698584
69.880 24.183645
69.885 24.054951
69.890 23.899136
69.895 24.372303
69.900 24.398069
69.905 24.201855
69.910 24.13286
69.915 24.403728
69.920 24.22691
69.925 24.38834
69.930 24.175758
69.935 23.814196
69.940 23.626688
69.945 23.666481
69.950 23.650383
69.955 23.770687
69.960 24.083513
69.965 24.259811
69.970 23.955843
69.975 23.235926
69.980 23.290113
69.985 23.601582
69.990 23.268082
69.995 22.704103
70.000 21.520996
70.005 21.853256
70.010 22.30658
70.015 21.685888
70.020 21.368784
70.025 21.073792
70.030 21.107037
70.035 21.832876
70.040 21.651701
70.045 21.10923
70.050 20.848953
70.055 20.840271
70.060 21.146692
70.065 20.770473
70.070 20.230211
70.075 20.088577
70.080 20.4562
70.085 20.600986
70.090 19.998995
70.095 19.60272
70.100 19.256216
70.105 18.849295
70.110 19.472469
70.115 19.595631
70.120 19.672338
70.125 20.312111
70.130 20.771919
70.135 21.110573
70.140 21.013277
70.145 21.016996
70.150 21.316996
70.155 21.019587
70.160 20.325136
70.165 19.881422
70.170 19.318619
70.175 19.426062
70.180 19.473087
70.185 19.386303
70.190 19.491205
70.195 19.493683
70.200 19.099892
70.205 19.19249
70.210 18.758432
70.215 18.151693
70.220 18.391417
70.225 18.534332
70.230 19.033928
70.235 19.256901
70.240 19.292883
70.245 19.145447
70.250 19.111784
70.255 18.729231
70.260 18.447266
70.265 18.4729
70.270 18.902737
70.275 18.90538
70.280 19.005011
70.285 19.226521
70.290 19.403164
70.295 19.344339
70.300 19.587076
70.305 19.121086
70.310 19.967886
70.315 20.16621
70.320 19.574059
70.325 20.047691
70.330 20.43737
70.335 20.504984
70.340 20.72897
70.345 20.187599
70.350 19.687502
70.355 19.793045
70.360 19.701277
70.365 20.043343
70.370 19.739479
70.375 19.19792
70.380 19.401247
70.385 19.923416
70.390 19.886108
70.395 19.438686
70.400 18.896746
70.405 19.271025
70.410 19.328175
70.415 19.186939
70.420 19.086742
70.425 19.201971
70.430 19.397781
70.435 20.015074
70.440 19.852755
70.445 19.886969
70.450 19.526245
70.455 19.30018
70.460 19.295317
70.465 19.268583
70.470 18.822729
70.475 19.187105
70.480 19.796289
70.485 19.673851
70.490 19.393129
70.495 19.217424
70.500 18.551802
70.505 18.731335
70.510 18.72044
70.515 18.917574
70.520 19.309332
70.525 19.27408
70.530 19.303518
70.535 19.658783
70.540 19.259882
70.545 18.043112
70.550 18.291101
70.555 18.613554
70.560 18.485451
70.565 18.734278
70.570 18.270823
70.575 18.546091
70.580 18.851049
70.585 17.861416
70.590 17.751886
70.595 17.991255
70.600 17.871
70.605 18.256971
70.610 18.163696
70.615 18.139572
70.620 18.138721
70.625 18.110865
70.630 17.734671
70.635 17.809092
70.640 17.267872
70.645 17.006317
70.650 17.207314
70.655 17.360119
70.660 17.259382
70.665 17.59465
70.670 18.056589
70.675 18.88875
70.680 19.325293
70.685 19.64933
70.690 20.718479
70.695 21.534098
70.700 21.267693
70.705 20.652939
70.710 20.765186
70.715 21.457102
70.720 21.315525
70.725 20.417896
70.730 20.08544
70.735 19.709248
70.740 19.644112
70.745 18.832838
70.750 18.545895
70.755 18.588516
70.760 18.687651
70.765 18.776777
70.770 19.178707
70.775 19.226351
70.780 18.878971
70.785 18.276037
70.790 18.136877
70.795 17.912085
70.800 18.287638
70.805 18.888445
70.810 19.040743
70.815 19.439487
70.820 20.422359
70.825 20.659767
70.830 20.575603
70.835 19.879635
70.840 19.32662
70.845 19.028017
70.850 18.723145
70.855 18.471819
70.860 18.746637
70.865 19.287889
70.870 20.003742
70.875 19.969315
70.880 20.546694
70.885 20.569885
70.890 20.378817
70.895 20.460211
70.900 20.228106
70.905 19.707403
70.910 19.871624
70.915 19.769056
70.920 19.860493
70.925 19.376003
70.930 19.092167
70.935 19.170221
70.940 19.009192
70.945 18.900221
70.950 18.969385
70.955 18.904856
70.960 19.276003
70.965 19.40255
70.970 20.098932
70.975 20.22418
70.980 20.58989
70.985 20.589592
70.990 20.57213
70.995 19.58004
71.000 19.74069
71.005 19.786556
71.010 19.644691
71.015 19.152422
71.020 18.80028
71.025 18.683777
71.030 18.780642
71.035 18.29295
71.040 17.963867
71.045 18.658659
71.050 19.088587
71.055 19.341393
71.060 19.977039
71.065 20.370104
71.070 19.807886
71.075 19.074972
71.080 18.644815
71.085 18.392143
71.090 18.787169
71.095 18.936369
71.100 18.377298
71.105 18.530966
71.110 18.638569
71.115 18.551676
71.120 18.508545
71.125 18.210192
71.130 17.850071
71.135 18.168003
71.140 18.650822
71.145 18.891672
71.150 19.103676
71.155 19.058483
71.160 18.851171
71.165 19.167112
71.170 19.35976
71.175 19.404562
71.180 19.049517
71.185 18.934237
71.190 18.530399
71.195 18.932995
71.200 19.001738
71.205 18.817944
71.210 18.804708
71.215 18.76317
71.220 18.615391
71.225 18.619781
71.230 18.160601
71.235 18.304893
71.240 18.17514
71.245 18.068401
71.250 18.508812
71.255 18.71801
71.260 19.106483
71.265 19.400183
71.270 19.362844
71.275 19.237238
71.280 18.89813
71.285 18.90181
71.290 18.777136
71.295 18.098125
71.300 17.834955
71.305 17.545498
71.310 17.752495
71.315 18.046186
71.320 17.974623
71.325 17.847681
71.330 17.900223
71.335 18.240576
71.340 18.129831
71.345 18.025789
71.350 18.024824
71.355 17.642122
71.360 17.778713
71.365 17.551197
71.370 17.280571
71.375 17.433842
71.380 17.188141
71.385 17.491264
71.390 18.11685
71.395 17.898222
71.400 18.208586
71.405 18.776649
71.410 18.743237
71.415 18.988291
71.420 18.591164
71.425 18.452169
71.430 18.862698
71.435 18.617554
71.440 18.207947
71.445 18.204834
71.450 18.691423
71.455 19.267456
71.460 19.495634
71.465 19.335779
71.470 19.572416
71.475 20.502642
71.480 20.390532
71.485 20.721617
71.490 20.148849
71.495 19.699442
71.500 19.735638
71.505 19.530535
71.510 19.337952
71.515 19.357576
71.520 18.869564
71.525 19.180258
71.530 18.752775
71.535 19.217072
71.540 18.984892
71.545 18.484465
71.550 18.3493
71.555 18.278557
71.560 18.892525
71.565 19.22286
71.570 19.005375
71.575 18.930733
71.580 18.677229
71.585 18.672134
71.590 18.674553
71.595 18.467117
71.600 19.059799
71.605 18.938383
71.610 19.179943
71.615 19.585022
71.620 19.556931
71.625 19.405361
71.630 19.085606
71.635 18.870052
71.640 19.119709
71.645 19.106197
71.650 18.911482
71.655 19.190237
71.660 19.491966
71.665 19.918615
71.670 19.626062
71.675 19.124981
71.680 18.994461
71.685 18.80695
71.690 18.508944
71.695 18.004066
71.700 17.915375
71.705 18.058815
71.710 18.636118
71.715 18.907497
71.720 18.753569
71.725 18.580675
71.730 18.530159
71.735 18.441954
71.740 18.553913
71.745 18.231787
71.750 18.234682
71.755 18.783155
71.760 19.50522
71.765 19.788126
71.770 19.941042
71.775 20.252428
71.780 19.993683
71.785 20.475267
71.790 20.652876
71.795 20.577162
71.800 20.262274
71.805 19.945625
71.810 20.09828
71.815 20.247993
71.820 19.889097
71.825 19.46764
71.830 19.313265
71.835 19.537489
71.840 19.258963
71.845 19.265387
71.850 19.31448
71.855 19.07048
71.860 19.106207
71.865 18.755207
71.870 19.179405
71.875 19.170216
71.880 19.110952
71.885 18.687553
71.890 18.463448
71.895 18.06987
71.900 18.173264
71.905 18.265635
71.910 18.586273
71.915 18.994347
71.920 19.568768
71.925 20.004955
71.930 20.120016
71.935 20.060251
71.940 19.920696
71.945 19.637121
71.950 19.193502
71.955 18.849632
71.960 18.806087
71.965 18.64389
71.970 18.326712
71.975 18.364151
71.980 18.958574
71.985 19.311996
71.990 18.650511
71.995 18.363813
72.000 18.630688
72.005 18.670614
72.010 17.763828
72.015 16.964561
72.020 17.479195
72.025 18.048449
72.030 18.125811
72.035 18.63784
72.040 19.057234
72.045 19.20771
72.050 18.861742
72.055 18.291834
72.060 18.120996
72.065 18.400126
72.070 18.255814
72.075 18.020763
72.080 18.089205
72.085 18.247225
72.090 18.543369
72.095 18.717709
72.100 18.878321
72.105 18.787256
72.110 18.630716
72.115 18.185688
72.120 17.588581
72.125 17.142952
72.130 16.379036
72.135 16.18714
72.140 16.289972
72.145 16.262241
72.150 17.07856
72.155 17.897411
72.160 18.460201
72.165 18.433872
72.170 18.259296
72.175 18.363995
72.180 18.723614
72.185 18.913126
72.190 18.413471
72.195 19.446791
72.200 19.888334
72.205 20.354321
72.210 19.834023
72.215 19.098955
72.220 18.978548
72.225 19.088833
72.230 18.69335
72.235 18.741854
72.240 18.586159
72.245 18.961531
72.250 19.599228
72.255 20.108603
72.260 19.518213
72.265 19.26432
72.270 19.494881
72.275 19.433825
72.280 19.222929
72.285 18.901188
72.290 18.928782
72.295 19.02882
72.300 18.343071
72.305 17.814526
72.310 18.047792
72.315 18.305462
72.320 18.238222
72.325 18.551706
72.330 18.633341
72.335 19.158169
72.340 18.970747
72.345 18.758171
72.350 18.915058
72.355 18.881945
72.360 18.527966
72.365 18.404188
72.370 18.454834
72.375 18.779764
72.380 18.839647
72.385 18.657572
72.390 18.171877
72.395 18.129917
72.400 17.9538
72.405 17.654119
72.410 18.041948
72.415 18.049402
72.420 18.457584
72.425 18.654821
72.430 18.878201
72.435 18.769291
72.440 18.893816
72.445 18.797361
72.450 18.657188
72.455 18.272383
72.460 17.891047
72.465 18.141333
72.470 18.423704
72.475 18.219803
72.480 17.871948
72.485 17.999237
72.490 18.318953
72.495 18.056152
72.500 17.592093
72.505 17.325394
72.510 17.539913
72.515 17.163162
72.520 17.32975
72.525 17.425102
72.530 17.708321
72.535 18.232147
72.540 18.484079
72.545 18.433573
72.550 18.728104
72.555 18.356979
72.560 18.913338
72.565 19.432795
72.570 19.143456
72.575 18.917355
72.580 19.247744
72.585 19.637527
72.590 19.78907
72.595 19.301285
72.600 19.402708
72.605 19.785498
72.610 19.407715
72.615 19.31637
72.620 19.191353
72.625 19.090446
72.630 19.349058
72.635 19.113605
72.640 18.402477
72.645 18.74234
72.650 17.748684
72.655 17.087881
72.660 16.751158
72.665 15.874178
72.670 15.877425
72.675 16.042126
72.680 15.987742
72.685 16.097462
72.690 15.889971
72.695 16.022078
72.700 16.167105
72.705 16.116091
72.710 15.911737
72.715 16.202324
72.720 16.682215
72.725 16.642572
72.730 17.21492
72.735 17.568357
72.740 17.841574
72.745 18.662237
72.750 18.505064
72.755 19.263008
72.760 19.545486
72.765 18.55971
72.770 18.180908
72.775 17.495035
72.780 16.647099
72.785 16.972137
72.790 15.952564
72.795 15.782013
72.800 15.687507
72.805 16.209377
72.810 16.078272
72.815 16.301323
72.820 16.647257
72.825 16.979578
72.830 17.220869
72.835 17.600597
72.840 17.410343
72.845 17.323874
72.850 17.337927
72.855 16.660234
72.860 16.902248
72.865 16.459881
72.870 16.495087
72.875 16.410549
72.880 16.35722
72.885 15.770706
72.890 15.426788
72.895 15.508268
72.900 15.604759
72.905 15.892424
72.910 16.443382
72.915 16.563536
72.920 16.952084
72.925 17.234818
72.930 17.295553
72.935 18.181305
72.940 17.817156
72.945 17.416325
72.950 17.345219
72.955 17.698442
72.960 18.094135
72.965 17.555132
72.970 17.17539
72.975 18.027361
72.980 17.873276
72.985 17.233341
72.990 16.710398
72.995 16.146305
73.000 15.440723
