!@!!GADDS PLOTSO FILE: Chi integration type
!@!!Title/SampleName: map-103
!@!!Comment: ?
!@!!User: Bruker Instrument Administrator
!@!!Site: University of Illinois Chicago
!@!!Frame: map-103_01_000.gfrm
!@!!Wavelengths    1.54184   1.54056   1.54439
!@!!Frame angles: 2Theta: 63.000 Omega: 50.000 Phi: 0.000 Chi: 90.000
!@!!Integration range: 2Theta: 53.000 to 73.000  Gamma: -105.000 to -75.000
!@!!Integration method: bin normalized
!@!N
!@!SS
!@!M
!@!L 0.0 0.0 0.0 0.0
!@!XDegrees
!@!YCounts
53.000 9.282792
53.005 9.092583
53.010 8.822182
53.015 9.204056
53.020 9.428315
53.025 9.316446
53.030 9.610758
53.035 9.735334
53.040 9.996431
53.045 10.048191
53.050 9.756714
53.055 10.19542
53.060 10.337474
53.065 9.764586
53.070 9.333104
53.075 9.11817
53.080 9.078609
53.085 8.588597
53.090 8.328394
53.095 8.414943
53.100 8.438319
53.105 8.792303
53.110 9.122749
53.115 9.6307
53.120 9.6554
53.125 9.08202
53.130 8.924159
53.135 8.599214
53.140 8.325607
53.145 7.840466
53.150 7.43876
53.155 7.93716
53.160 7.928646
53.165 7.867074
53.170 8.1576
53.175 8.786006
53.180 8.958255
53.185 8.894658
53.190 9.172816
53.195 9.703387
53.200 9.89961
53.205 9.911276
53.210 9.663185
53.215 9.55119
53.220 9.385988
53.225 8.923475
53.230 8.990335
53.235 9.01195
53.240 8.548293
53.245 8.424849
53.250 8.80165
53.255 8.976826
53.260 9.113892
53.265 9.031521
53.270 8.611732
53.275 8.345182
53.280 8.073264
53.285 8.063544
53.290 8.182055
53.295 7.990385
53.300 8.077538
53.305 8.740485
53.310 9.246945
53.315 9.920195
53.320 9.671669
53.325 9.798105
53.330 10.125549
53.335 9.663501
53.340 9.152652
53.345 9.083322
53.350 8.757577
53.355 9.079903
53.360 8.780933
53.365 8.827035
53.370 9.154091
53.375 9.491788
53.380 9.326745
53.385 9.062721
53.390 9.083132
53.395 9.149981
53.400 9.139359
53.405 9.529919
53.410 9.818865
53.415 10.187262
53.420 10.398754
53.425 10.089291
53.430 9.702796
53.435 9.584123
53.440 8.945433
53.445 9.06886
53.450 8.996156
53.455 9.079391
53.460 9.361282
53.465 9.482699
53.470 9.393199
53.475 9.573888
53.480 9.121722
53.485 8.651011
53.490 8.510866
53.495 8.664126
53.500 8.599625
53.505 8.988408
53.510 9.262238
53.515 9.545044
53.520 9.785984
53.525 9.749738
53.530 9.751393
53.535 9.881392
53.540 9.901044
53.545 9.823764
53.550 10.338466
53.555 10.655902
53.560 10.625941
53.565 10.818602
53.570 10.83072
53.575 10.755574
53.580 10.432693
53.585 10.044719
53.590 9.556524
53.595 9.328511
53.600 9.492727
53.605 9.349771
53.610 9.409909
53.615 9.372794
53.620 9.213092
53.625 9.199709
53.630 9.155574
53.635 8.765326
53.640 8.829531
53.645 8.590389
53.650 8.86585
53.655 9.024364
53.660 9.209933
53.665 9.382061
53.670 9.547067
53.675 9.503929
53.680 9.397231
53.685 9.047271
53.690 8.85176
53.695 9.12245
53.700 9.28923
53.705 9.054406
53.710 9.188313
53.715 9.374967
53.720 9.96282
53.725 10.458008
53.730 9.782324
53.735 9.753825
53.740 10.135557
53.745 10.295275
53.750 10.305088
53.755 9.542945
53.760 9.685871
53.765 10.282565
53.770 10.107382
53.775 9.787273
53.780 9.5153
53.785 9.194961
53.790 9.384912
53.795 9.102478
53.800 8.951858
53.805 9.041768
53.810 9.32924
53.815 9.846959
53.820 10.162191
53.825 10.00186
53.830 9.92978
53.835 9.835994
53.840 10.031146
53.845 10.125731
53.850 9.741258
53.855 9.910489
53.860 10.045449
53.865 10.231667
53.870 10.37512
53.875 10.18654
53.880 10.212011
53.885 10.117883
53.890 10.057257
53.895 10.047029
53.900 9.99904
53.905 9.721105
53.910 9.294804
53.915 9.482418
53.920 9.544899
53.925 9.477706
53.930 9.119421
53.935 9.4521
53.940 9.669851
53.945 9.907058
53.950 10.037125
53.955 9.683949
53.960 9.698982
53.965 10.014909
53.970 9.815552
53.975 9.787484
53.980 9.433221
53.985 9.756662
53.990 10.310468
53.995 10.319604
54.000 10.172192
54.005 9.811436
54.010 9.59933
54.015 9.533259
54.020 9.523932
54.025 9.355827
54.030 9.76359
54.035 9.722683
54.040 10.001517
54.045 10.234122
54.050 9.83368
54.055 9.834553
54.060 9.996398
54.065 9.497387
54.070 9.910707
54.075 10.103428
54.080 10.479622
54.085 10.58413
54.090 10.226638
54.095 9.671696
54.100 9.709163
54.105 9.276387
54.110 9.148039
54.115 9.263283
54.120 9.228433
54.125 9.388154
54.130 9.580914
54.135 9.518736
54.140 9.458102
54.145 9.385905
54.150 9.115629
54.155 9.416921
54.160 9.880759
54.165 9.652454
54.170 9.680528
54.175 9.754349
54.180 9.397167
54.185 9.67177
54.190 9.558127
54.195 9.219987
54.200 10.176273
54.205 10.627822
54.210 10.654861
54.215 11.050909
54.220 11.222266
54.225 11.467284
54.230 11.452181
54.235 10.932759
54.240 10.72268
54.245 10.869046
54.250 10.492697
54.255 10.119482
54.260 10.208743
54.265 10.1738
54.270 10.382994
54.275 10.733367
54.280 10.886639
54.285 11.551093
54.290 12.164046
54.295 12.234287
54.300 11.828651
54.305 11.894135
54.310 11.626485
54.315 11.562003
54.320 11.300886
54.325 10.68434
54.330 10.374781
54.335 10.618504
54.340 10.552348
54.345 10.347991
54.350 9.873855
54.355 9.877648
54.360 10.265564
54.365 10.361654
54.370 9.19076
54.375 8.967806
54.380 9.201476
54.385 9.379756
54.390 8.918097
54.395 8.384279
54.400 8.931686
54.405 10.278269
54.410 10.41433
54.415 10.200687
54.420 9.771361
54.425 10.016118
54.430 10.136935
54.435 10.194684
54.440 9.946183
54.445 10.193131
54.450 10.638215
54.455 11.265642
54.460 11.365847
54.465 11.215953
54.470 11.097816
54.475 11.175147
54.480 11.155695
54.485 11.014755
54.490 11.461528
54.495 12.149307
54.500 12.67545
54.505 12.671987
54.510 12.547836
54.515 12.161088
54.520 12.226202
54.525 11.657564
54.530 11.177627
54.535 10.544256
54.540 10.347645
54.545 10.590396
54.550 10.830196
54.555 10.418932
54.560 10.497592
54.565 10.530669
54.570 10.974114
54.575 11.068165
54.580 11.285583
54.585 11.202902
54.590 11.147725
54.595 11.131075
54.600 11.245296
54.605 11.672453
54.610 11.79355
54.615 11.324425
54.620 11.57357
54.625 12.063539
54.630 11.978183
54.635 11.91452
54.640 11.381618
54.645 10.90553
54.650 10.91704
54.655 10.61438
54.660 10.107862
54.665 9.994788
54.670 9.66616
54.675 9.636073
54.680 10.193721
54.685 10.287164
54.690 10.316202
54.695 10.403223
54.700 10.758117
54.705 11.00047
54.710 10.699455
54.715 9.997948
54.720 9.562588
54.725 9.628276
54.730 9.525521
54.735 9.54355
54.740 9.559721
54.745 10.13468
54.750 10.531976
54.755 11.143657
54.760 11.625792
54.765 11.659108
54.770 11.45657
54.775 11.091813
54.780 10.876944
54.785 10.800863
54.790 10.976584
54.795 10.443991
54.800 10.19373
54.805 10.056959
54.810 10.446649
54.815 10.760639
54.820 10.591314
54.825 10.314988
54.830 10.484704
54.835 10.406879
54.840 10.475136
54.845 10.698882
54.850 11.037727
54.855 10.668074
54.860 10.365505
54.865 10.518829
54.870 11.142669
54.875 11.47811
54.880 11.397
54.885 11.50707
54.890 11.557615
54.895 12.018058
54.900 12.007845
54.905 11.544361
54.910 11.245851
54.915 11.278022
54.920 11.29508
54.925 11.816891
54.930 11.615727
54.935 12.193189
54.940 12.709538
54.945 12.969751
54.950 13.265227
54.955 12.976193
54.960 12.68554
54.965 12.1896
54.970 11.569501
54.975 11.430905
54.980 11.167829
54.985 10.846273
54.990 10.606415
54.995 10.326175
55.000 10.395841
55.005 10.288877
55.010 10.466323
55.015 10.306008
55.020 10.161894
55.025 10.672948
55.030 10.911009
55.035 11.178392
55.040 11.574924
55.045 11.353759
55.050 11.182844
55.055 11.648103
55.060 11.74563
55.065 11.797976
55.070 11.58323
55.075 11.223277
55.080 11.358397
55.085 11.54769
55.090 11.038953
55.095 10.925673
55.100 10.931647
55.105 10.952652
55.110 10.991724
55.115 10.943794
55.120 10.703476
55.125 10.681139
55.130 10.664946
55.135 10.967944
55.140 11.064276
55.145 10.938684
55.150 10.665956
55.155 11.056994
55.160 11.295159
55.165 11.369839
55.170 11.224932
55.175 11.173158
55.180 11.347449
55.185 11.387877
55.190 11.267621
55.195 11.238257
55.200 10.663038
55.205 10.938614
55.210 11.275583
55.215 11.377516
55.220 11.765495
55.225 11.555077
55.230 11.287244
55.235 11.569145
55.240 11.576423
55.245 11.29702
55.250 11.08661
55.255 10.493473
55.260 10.419284
55.265 10.368831
55.270 10.025755
55.275 9.796413
55.280 9.690619
55.285 9.908586
55.290 10.204199
55.295 11.066744
55.300 11.192093
55.305 11.784491
55.310 12.073676
55.315 12.262468
55.320 12.492354
55.325 12.259998
55.330 11.987269
55.335 12.791899
55.340 12.417918
55.345 12.263164
55.350 12.004984
55.355 12.28603
55.360 12.808727
55.365 12.766231
55.370 12.176002
55.375 11.649298
55.380 11.584888
55.385 11.534476
55.390 11.393911
55.395 11.30055
55.400 10.903214
55.405 11.099265
55.410 11.403612
55.415 11.704511
55.420 11.817222
55.425 11.23943
55.430 10.917793
55.435 11.382283
55.440 11.51176
55.445 11.324862
55.450 11.165848
55.455 11.2772
55.460 11.574961
55.465 11.934797
55.470 11.620968
55.475 11.67238
55.480 12.231055
55.485 12.402647
55.490 12.163985
55.495 12.397159
55.500 12.646917
55.505 12.606245
55.510 12.915236
55.515 12.080358
55.520 11.664927
55.525 11.493102
55.530 10.971799
55.535 11.072599
55.540 10.979832
55.545 10.544185
55.550 11.052427
55.555 11.587151
55.560 11.925268
55.565 11.505467
55.570 11.142134
55.575 11.537984
55.580 11.809468
55.585 11.722732
55.590 11.376946
55.595 11.637912
55.600 12.223083
55.605 12.121861
55.610 11.934961
55.615 11.865122
55.620 11.69961
55.625 11.860218
55.630 11.647885
55.635 11.828314
55.640 12.030311
55.645 12.054639
55.650 12.315126
55.655 12.376725
55.660 12.095025
55.665 11.87311
55.670 11.710778
55.675 11.749566
55.680 11.636734
55.685 11.244409
55.690 10.977184
55.695 10.784492
55.700 11.009504
55.705 10.929287
55.710 10.586523
55.715 10.403425
55.720 10.846581
55.725 11.600269
55.730 11.792552
55.735 11.005461
55.740 10.903355
55.745 11.147999
55.750 11.588411
55.755 11.088476
55.760 10.730652
55.765 11.151555
55.770 11.529145
55.775 11.544178
55.780 11.223022
55.785 11.115423
55.790 10.899807
55.795 10.975247
55.800 10.889111
55.805 10.432228
55.810 10.538198
55.815 10.881039
55.820 11.064814
55.825 11.401231
55.830 11.529691
55.835 12.297485
55.840 12.716036
55.845 12.938714
55.850 13.14418
55.855 13.330481
55.860 13.404416
55.865 13.541366
55.870 13.507373
55.875 13.364421
55.880 13.331126
55.885 13.079173
55.890 13.102226
55.895 13.335144
55.900 13.202262
55.905 13.070831
55.910 12.766954
55.915 12.512664
55.920 13.139402
55.925 13.19914
55.930 13.150488
55.935 12.950829
55.940 12.99366
55.945 13.55619
55.950 13.804815
55.955 12.875804
55.960 12.229697
55.965 11.895919
55.970 11.844105
55.975 11.856981
55.980 11.307669
55.985 11.051417
55.990 11.148788
55.995 11.123258
56.000 11.323236
56.005 11.881433
56.010 11.491811
56.015 11.56516
56.020 11.727778
56.025 12.08985
56.030 12.346063
56.035 11.889235
56.040 11.552701
56.045 11.871542
56.050 11.867799
56.055 11.695502
56.060 11.250697
56.065 11.030171
56.070 11.182753
56.075 11.349498
56.080 11.865287
56.085 12.174208
56.090 12.730024
56.095 13.12945
56.100 13.294944
56.105 13.459092
56.110 12.928975
56.115 12.94346
56.120 13.29585
56.125 13.267536
56.130 13.232691
56.135 13.228384
56.140 13.421591
56.145 13.678582
56.150 13.1106
56.155 12.712523
56.160 12.313907
56.165 12.252927
56.170 11.807833
56.175 11.606944
56.180 11.448659
56.185 11.441593
56.190 11.336214
56.195 11.809267
56.200 12.103003
56.205 12.316552
56.210 12.295541
56.215 12.805092
56.220 13.207856
56.225 13.162951
56.230 12.933883
56.235 13.034305
56.240 13.429535
56.245 13.387981
56.250 13.065752
56.255 12.996304
56.260 13.28697
56.265 13.334919
56.270 13.013965
56.275 12.590044
56.280 12.251674
56.285 12.215197
56.290 12.057325
56.295 11.972121
56.300 11.573376
56.305 11.922177
56.310 12.117805
56.315 12.189668
56.320 12.344873
56.325 12.55201
56.330 12.68128
56.335 12.218508
56.340 11.957613
56.345 12.438676
56.350 12.889585
56.355 12.811431
56.360 12.781606
56.365 13.04176
56.370 13.653288
56.375 13.284159
56.380 12.815298
56.385 12.108769
56.390 11.735777
56.395 11.554325
56.400 11.718452
56.405 12.098089
56.410 12.122067
56.415 12.670765
56.420 13.354496
56.425 13.710414
56.430 14.165004
56.435 14.056991
56.440 14.214875
56.445 14.194701
56.450 13.46867
56.455 13.126457
56.460 12.667987
56.465 12.502286
56.470 12.235786
56.475 12.032872
56.480 12.091452
56.485 12.483694
56.490 13.132444
56.495 13.566415
56.500 13.279704
56.505 13.569938
56.510 13.349293
56.515 13.8411
56.520 14.027804
56.525 13.829541
56.530 13.599476
56.535 13.5811
56.540 13.285254
56.545 13.133078
56.550 13.228851
56.555 13.290315
56.560 13.398462
56.565 13.461741
56.570 13.663274
56.575 13.959747
56.580 14.310377
56.585 13.651896
56.590 13.062238
56.595 13.091364
56.600 12.580357
56.605 12.004962
56.610 11.865587
56.615 11.787881
56.620 12.192916
56.625 12.246512
56.630 11.609441
56.635 11.639327
56.640 12.117043
56.645 11.850698
56.650 12.413894
56.655 12.716203
56.660 13.288323
56.665 14.227839
56.670 14.793688
56.675 14.60805
56.680 14.283592
56.685 13.626906
56.690 13.302188
56.695 12.937092
56.700 12.661021
56.705 12.964184
56.710 13.703646
56.715 14.255623
56.720 14.522891
56.725 14.551449
56.730 14.206965
56.735 14.291436
56.740 14.016961
56.745 13.324757
56.750 13.355503
56.755 13.472184
56.760 13.677267
56.765 13.562695
56.770 13.253016
56.775 13.529671
56.780 13.359688
56.785 12.841526
56.790 12.519835
56.795 12.434705
56.800 12.380012
56.805 12.637587
56.810 12.696123
56.815 13.130658
56.820 13.552966
56.825 13.504408
56.830 13.505792
56.835 13.410758
56.840 12.882441
56.845 12.453825
56.850 12.106318
56.855 11.788412
56.860 12.042033
56.865 12.150187
56.870 12.422494
56.875 12.925493
56.880 13.08856
56.885 13.499169
56.890 13.41134
56.895 13.067111
56.900 13.515927
56.905 13.867831
56.910 13.752496
56.915 13.529881
56.920 13.431982
56.925 13.792442
56.930 13.821347
56.935 13.517389
56.940 12.893722
56.945 13.074854
56.950 13.53217
56.955 13.572927
56.960 13.845035
56.965 14.188929
56.970 14.625414
56.975 14.681047
56.980 14.481034
56.985 14.50089
56.990 14.321579
56.995 13.759991
57.000 13.378767
57.005 12.862453
57.010 13.069779
57.015 12.70822
57.020 12.66529
57.025 12.277474
57.030 12.66161
57.035 12.944721
57.040 13.02422
57.045 13.143371
57.050 13.501701
57.055 13.866291
57.060 14.147585
57.065 13.619579
57.070 13.439273
57.075 13.259794
57.080 12.886072
57.085 12.725235
57.090 12.54705
57.095 13.153065
57.100 13.865147
57.105 14.412689
57.110 14.379309
57.115 14.759362
57.120 14.530902
57.125 14.231597
57.130 14.42548
57.135 14.277464
57.140 14.387235
57.145 15.224899
57.150 14.9434
57.155 15.520366
57.160 15.378964
57.165 14.525438
57.170 14.323504
57.175 13.906771
57.180 13.701241
57.185 13.577227
57.190 13.351414
57.195 13.840746
57.200 14.305019
57.205 14.041732
57.210 13.919554
57.215 13.63109
57.220 13.092155
57.225 13.190345
57.230 12.702891
57.235 12.549376
57.240 12.899888
57.245 12.772274
57.250 12.954706
57.255 13.352715
57.260 13.238597
57.265 13.138939
57.270 12.961976
57.275 13.096569
57.280 12.761164
57.285 12.463119
57.290 12.391737
57.295 12.523589
57.300 13.054173
57.305 13.18469
57.310 13.266481
57.315 13.69781
57.320 13.834446
57.325 14.129322
57.330 14.150517
57.335 14.454581
57.340 14.397028
57.345 14.460516
57.350 14.586138
57.355 14.770953
57.360 14.785796
57.365 14.547137
57.370 14.254599
57.375 14.259777
57.380 14.30111
57.385 14.351171
57.390 14.265389
57.395 14.54438
57.400 14.821199
57.405 14.901842
57.410 15.101305
57.415 14.952588
57.420 14.331787
57.425 13.951269
57.430 13.754022
57.435 13.387899
57.440 13.468099
57.445 13.212975
57.450 13.118388
57.455 13.219374
57.460 12.893908
57.465 12.508146
57.470 12.560443
57.475 12.545524
57.480 12.822878
57.485 12.980248
57.490 13.549439
57.495 14.106045
57.500 14.038027
57.505 14.002412
57.510 13.921141
57.515 13.494941
57.520 13.646927
57.525 13.636119
57.530 13.643829
57.535 14.257866
57.540 14.69549
57.545 14.667446
57.550 14.762616
57.555 14.917148
57.560 15.184179
57.565 15.451131
57.570 15.01309
57.575 14.666651
57.580 14.870858
57.585 15.042842
57.590 14.63416
57.595 14.51445
57.600 14.187873
57.605 13.899316
57.610 13.855937
57.615 13.743466
57.620 13.837429
57.625 14.16093
57.630 14.554026
57.635 14.325867
57.640 14.465168
57.645 14.555773
57.650 14.894346
57.655 14.701702
57.660 14.295891
57.665 14.116648
57.670 14.340825
57.675 14.158761
57.680 13.952258
57.685 13.944935
57.690 14.353097
57.695 14.222621
57.700 13.776433
57.705 13.412413
57.710 13.490275
57.715 13.523002
57.720 14.048654
57.725 13.851004
57.730 14.198277
57.735 14.954403
57.740 14.992798
57.745 14.962187
57.750 15.346872
57.755 14.940787
57.760 14.92058
57.765 14.821108
57.770 14.514091
57.775 15.037654
57.780 15.416727
57.785 14.938271
57.790 14.231184
57.795 14.283504
57.800 13.863345
57.805 14.132324
57.810 14.389347
57.815 14.09891
57.820 14.152275
57.825 14.435821
57.830 14.563158
57.835 14.572706
57.840 14.366535
57.845 14.143983
57.850 14.487258
57.855 14.731242
57.860 14.689508
57.865 14.850181
57.870 15.430133
57.875 15.582124
57.880 15.315955
57.885 14.691009
57.890 14.242348
57.895 14.200253
57.900 13.74545
57.905 13.427164
57.910 13.095744
57.915 13.027985
57.920 13.211955
57.925 13.172424
57.930 12.779148
57.935 13.449346
57.940 13.50566
57.945 13.76313
57.950 14.150125
57.955 14.445778
57.960 14.874038
57.965 14.843087
57.970 14.518362
57.975 14.976632
57.980 14.92512
57.985 14.86267
57.990 14.606214
57.995 14.706066
58.000 14.85921
58.005 14.419069
58.010 13.72889
58.015 13.87389
58.020 13.696596
58.025 14.01193
58.030 14.062782
58.035 14.084931
58.040 14.530105
58.045 14.726097
58.050 14.639241
58.055 15.100975
58.060 15.081114
58.065 15.591926
58.070 15.849223
58.075 15.889436
58.080 16.399088
58.085 16.131752
58.090 16.138779
58.095 16.072487
58.100 15.736147
58.105 16.077919
58.110 16.139864
58.115 15.925369
58.120 16.130924
58.125 15.634353
58.130 15.733366
58.135 15.725692
58.140 15.111184
58.145 14.945289
58.150 14.671435
58.155 14.824692
58.160 15.176242
58.165 15.233548
58.170 15.711993
58.175 15.828549
58.180 16.490488
58.185 16.509493
58.190 16.418987
58.195 16.717234
58.200 16.684839
58.205 16.834909
58.210 16.6502
58.215 16.11738
58.220 16.290752
58.225 16.191303
58.230 15.776924
58.235 15.862315
58.240 15.571735
58.245 15.106764
58.250 14.521232
58.255 14.107748
58.260 13.921661
58.265 13.966977
58.270 13.665492
58.275 13.647437
58.280 14.286741
58.285 14.680426
58.290 14.992209
58.295 15.168735
58.300 15.163406
58.305 15.707926
58.310 15.766472
58.315 15.665677
58.320 16.104141
58.325 16.24394
58.330 15.685134
58.335 15.842095
58.340 15.500991
58.345 15.726726
58.350 15.653121
58.355 15.391378
58.360 15.288703
58.365 15.826762
58.370 15.207781
58.375 15.165748
58.380 14.972446
58.385 15.117835
58.390 15.046879
58.395 15.249491
58.400 15.122559
58.405 15.224849
58.410 15.424933
58.415 15.630123
58.420 15.362605
58.425 15.31394
58.430 15.399355
58.435 16.042925
58.440 16.072495
58.445 15.943858
58.450 15.530285
58.455 16.237333
58.460 16.576836
58.465 16.404839
58.470 16.443991
58.475 16.695688
58.480 16.905184
58.485 17.005463
58.490 16.449717
58.495 16.323492
58.500 16.447733
58.505 16.600275
58.510 16.434856
58.515 16.667519
58.520 16.736027
58.525 16.647076
58.530 16.602753
58.535 16.668287
58.540 16.239689
58.545 16.319273
58.550 15.747084
58.555 15.820558
58.560 15.565943
58.565 15.28243
58.570 15.018351
58.575 15.290505
58.580 15.330031
58.585 16.014257
58.590 16.520933
58.595 17.066729
58.600 17.319201
58.605 17.224457
58.610 16.917645
58.615 16.368832
58.620 15.687934
58.625 15.841717
58.630 15.521323
58.635 15.547462
58.640 15.593742
58.645 15.623669
58.650 15.907847
58.655 15.844567
58.660 16.148142
58.665 16.201588
58.670 16.204142
58.675 15.904027
58.680 15.515092
58.685 15.85778
58.690 15.58535
58.695 15.218209
58.700 15.269102
58.705 15.401521
58.710 16.160664
58.715 16.635157
58.720 16.602068
58.725 16.34067
58.730 16.199982
58.735 16.504936
58.740 17.040882
58.745 17.460169
58.750 17.772974
58.755 18.276409
58.760 18.886736
58.765 19.182592
58.770 18.724615
58.775 17.859137
58.780 17.321556
58.785 16.400688
58.790 15.442503
58.795 14.984982
58.800 15.108064
58.805 15.354957
58.810 15.669806
58.815 15.767536
58.820 16.525543
58.825 17.513559
58.830 17.373343
58.835 16.736996
58.840 17.540192
58.845 17.173365
58.850 17.016888
58.855 17.026657
58.860 17.084305
58.865 17.507921
58.870 17.960083
58.875 17.506168
58.880 17.617249
58.885 17.722542
58.890 17.342321
58.895 17.383083
58.900 17.254288
58.905 16.972181
58.910 16.820444
58.915 17.091391
58.920 17.114252
58.925 17.576351
58.930 17.445585
58.935 17.175833
58.940 17.646959
58.945 18.188498
58.950 18.212879
58.955 17.709951
58.960 16.78624
58.965 16.951757
58.970 17.210821
58.975 16.904856
58.980 16.586332
58.985 16.213039
58.990 17.020123
58.995 17.605171
59.000 17.643637
59.005 17.778919
59.010 17.143408
59.015 16.726004
59.020 16.524134
59.025 16.105984
59.030 15.802678
59.035 15.51687
59.040 15.443803
59.045 15.906807
59.050 16.046013
59.055 16.895761
59.060 17.916508
59.065 18.117544
59.070 18.001699
59.075 18.075325
59.080 17.823664
59.085 17.708057
59.090 17.401892
59.095 16.521112
59.100 16.65064
59.105 16.839544
59.110 15.910079
59.115 15.918305
59.120 15.493365
59.125 15.085179
59.130 15.128969
59.135 15.148612
59.140 15.708006
59.145 16.51685
59.150 16.990866
59.155 17.672071
59.160 17.706829
59.165 17.092117
59.170 16.51935
59.175 16.202475
59.180 16.702322
59.185 17.104538
59.190 16.85536
59.195 16.979053
59.200 17.56971
59.205 18.096457
59.210 18.670664
59.215 18.50493
59.220 18.454363
59.225 18.467333
59.230 18.807354
59.235 18.534883
59.240 18.309671
59.245 18.205984
59.250 17.953445
59.255 17.882088
59.260 18.069664
59.265 18.197573
59.270 18.594057
59.275 18.657024
59.280 18.164782
59.285 17.846434
59.290 17.336678
59.295 17.282833
59.300 17.102289
59.305 17.088047
59.310 16.805676
59.315 16.857658
59.320 17.339989
59.325 18.389732
59.330 18.881662
59.335 19.147234
59.340 19.225573
59.345 19.700735
59.350 19.659761
59.355 19.216339
59.360 18.933891
59.365 18.576649
59.370 18.260805
59.375 18.434395
59.380 18.673285
59.385 19.058113
59.390 19.231504
59.395 18.779032
59.400 18.816338
59.405 19.687475
59.410 19.672928
59.415 18.623997
59.420 18.393574
59.425 18.635273
59.430 19.067387
59.435 18.839218
59.440 18.066351
59.445 17.992731
59.450 18.85993
59.455 18.815933
59.460 18.718479
59.465 18.667465
59.470 18.365578
59.475 18.988501
59.480 19.079182
59.485 19.019053
59.490 19.217611
59.495 18.949238
59.500 18.560087
59.505 19.008928
59.510 18.846212
59.515 18.623356
59.520 18.117874
59.525 18.198862
59.530 18.49745
59.535 18.840031
59.540 18.343538
59.545 17.777655
59.550 17.838877
59.555 17.94558
59.560 18.1609
59.565 18.44434
59.570 18.37653
59.575 19.142702
59.580 19.777975
59.585 19.91568
59.590 20.367514
59.595 20.234518
59.600 19.87796
59.605 19.698925
59.610 18.853737
59.615 18.530764
59.620 18.456619
59.625 18.427105
59.630 18.658237
59.635 19.279184
59.640 20.012217
59.645 20.522785
59.650 20.78149
59.655 20.524275
59.660 20.123329
59.665 19.883631
59.670 19.116367
59.675 18.579931
59.680 18.252396
59.685 18.352322
59.690 18.761391
59.695 19.206448
59.700 19.976587
59.705 20.392906
59.710 20.995945
59.715 21.110893
59.720 21.269529
59.725 21.414932
59.730 21.414167
59.735 21.373863
59.740 21.401148
59.745 21.765545
59.750 22.240469
59.755 22.03153
59.760 22.160767
59.765 22.148701
59.770 22.309908
59.775 23.358404
59.780 22.898146
59.785 22.53623
59.790 22.439899
59.795 22.297848
59.800 21.879734
59.805 20.982262
59.810 20.145172
59.815 20.881456
59.820 21.149611
59.825 21.377924
59.830 21.452957
59.835 21.891811
59.840 22.161911
59.845 21.933104
59.850 21.084763
59.855 20.876659
59.860 20.353739
59.865 20.81472
59.870 20.771194
59.875 20.312273
59.880 20.365465
59.885 20.916653
59.890 20.983967
59.895 21.462078
59.900 21.361593
59.905 21.363016
59.910 21.647453
59.915 22.031483
59.920 21.868361
59.925 21.969799
59.930 21.667068
59.935 21.323488
59.940 20.847233
59.945 20.216347
59.950 20.061539
59.955 20.554356
59.960 20.50448
59.965 20.880548
59.970 21.327118
59.975 21.683941
59.980 21.85158
59.985 21.847574
59.990 21.646456
59.995 21.732937
60.000 21.320412
60.005 21.167015
60.010 21.1369
60.015 21.755907
60.020 21.223772
60.025 20.577898
60.030 20.526348
60.035 20.20302
60.040 19.684397
60.045 19.379295
60.050 18.817484
60.055 19.096352
60.060 19.560949
60.065 19.622923
60.070 20.57177
60.075 20.93877
60.080 21.3848
60.085 21.947325
60.090 22.4224
60.095 22.48151
60.100 22.458052
60.105 22.455458
60.110 22.525164
60.115 22.352751
60.120 21.647858
60.125 21.16877
60.130 20.53231
60.135 20.338766
60.140 20.413431
60.145 20.684437
60.150 21.231386
60.155 21.627314
60.160 21.591331
60.165 21.704597
60.170 20.923763
60.175 20.244144
60.180 19.959091
60.185 19.284832
60.190 19.282677
60.195 19.02693
60.200 19.423582
60.205 20.422531
60.210 20.86989
60.215 20.708187
60.220 20.601397
60.225 20.203636
60.230 20.42881
60.235 21.076015
60.240 20.94487
60.245 20.32819
60.250 20.641783
60.255 20.455593
60.260 20.668539
60.265 20.256466
60.270 19.486872
60.275 19.791691
60.280 20.73452
60.285 20.711973
60.290 20.744661
60.295 20.284943
60.300 20.441721
60.305 20.43729
60.310 19.85467
60.315 19.774574
60.320 19.772829
60.325 19.694017
60.330 20.460344
60.335 21.529232
60.340 21.778221
60.345 22.096352
60.350 21.500986
60.355 21.701239
60.360 21.205536
60.365 20.225147
60.370 19.167286
60.375 18.969799
60.380 18.747196
60.385 18.505842
60.390 17.959911
60.395 18.653761
60.400 19.089367
60.405 18.895506
60.410 18.944721
60.415 19.040985
60.420 19.597969
60.425 19.636328
60.430 20.063362
60.435 20.087429
60.440 20.239193
60.445 20.116257
60.450 20.398508
60.455 20.772694
60.460 20.952112
60.465 20.568548
60.470 20.577791
60.475 20.574593
60.480 20.322279
60.485 19.50675
60.490 18.91054
60.495 19.111204
60.500 19.290493
60.505 19.476473
60.510 19.318933
60.515 19.386185
60.520 19.832151
60.525 20.189295
60.530 19.852987
60.535 19.761629
60.540 19.220814
60.545 19.499855
60.550 19.411091
60.555 18.824221
60.560 18.475121
60.565 18.3922
60.570 18.089695
60.575 18.648932
60.580 18.594728
60.585 18.431746
60.590 18.791103
60.595 18.820557
60.600 18.818188
60.605 18.565815
60.610 18.003832
60.615 17.820263
60.620 18.276413
60.625 18.167465
60.630 17.813953
60.635 17.4925
60.640 17.862368
60.645 18.471832
60.650 17.60128
60.655 16.87993
60.660 16.749069
60.665 16.760256
60.670 16.421391
60.675 16.030533
60.680 15.747688
60.685 16.337879
60.690 16.486591
60.695 16.324217
60.700 16.478395
60.705 17.60247
60.710 18.342529
60.715 17.6525
60.720 17.747093
60.725 17.244766
60.730 17.485033
60.735 17.835785
60.740 17.145302
60.745 16.76848
60.750 17.796207
60.755 18.039888
60.760 18.687174
60.765 18.849907
60.770 18.785431
60.775 18.626883
60.780 18.610336
60.785 18.529827
60.790 18.2847
60.795 18.246553
60.800 17.732342
60.805 17.406561
60.810 17.477745
60.815 17.183865
60.820 16.468594
60.825 16.596056
60.830 16.301413
60.835 16.741182
60.840 17.606529
60.845 18.272263
60.850 18.910397
60.855 18.883377
60.860 18.64538
60.865 19.00094
60.870 18.984261
60.875 18.496935
60.880 17.846134
60.885 17.25102
60.890 17.203758
60.895 16.992559
60.900 16.862926
60.905 16.722029
60.910 16.467632
60.915 16.516155
60.920 16.705784
60.925 17.213573
60.930 17.544643
60.935 17.123768
60.940 16.230513
60.945 16.151421
60.950 16.046669
60.955 15.938122
60.960 16.104658
60.965 16.085165
60.970 16.379257
60.975 16.797886
60.980 17.001652
60.985 16.96739
60.990 16.812496
60.995 16.774994
61.000 17.183477
61.005 16.765667
61.010 16.112614
61.015 15.585378
61.020 14.839999
61.025 14.692532
61.030 14.032938
61.035 13.82024
61.040 14.618445
61.045 15.363098
61.050 15.648403
61.055 16.560452
61.060 16.979362
61.065 17.528175
61.070 17.507299
61.075 17.53277
61.080 17.787704
61.085 17.732967
61.090 17.732725
61.095 17.923056
61.100 17.493824
61.105 17.158583
61.110 16.717873
61.115 16.52014
61.120 16.464108
61.125 16.117672
61.130 15.995686
61.135 16.410507
61.140 16.4079
61.145 16.800962
61.150 16.832788
61.155 17.521086
61.160 18.263783
61.165 18.473539
61.170 18.595312
61.175 18.87821
61.180 18.583145
61.185 18.709293
61.190 18.948195
61.195 18.794266
61.200 18.914398
61.205 19.361021
61.210 18.843779
61.215 18.499714
61.220 18.221859
61.225 18.075508
61.230 17.955782
61.235 17.038658
61.240 16.277624
61.245 17.01602
61.250 17.068483
61.255 17.008234
61.260 16.860487
61.265 16.806471
61.270 16.768023
61.275 16.349115
61.280 16.020189
61.285 16.263676
61.290 16.604132
61.295 16.223761
61.300 16.080248
61.305 16.42977
61.310 16.542559
61.315 16.518345
61.320 16.636612
61.325 16.147495
61.330 16.255465
61.335 16.225283
61.340 16.204632
61.345 16.057451
61.350 15.716966
61.355 15.666956
61.360 16.017118
61.365 15.849053
61.370 15.459682
61.375 15.615008
61.380 16.410116
61.385 17.268028
61.390 17.524408
61.395 17.42415
61.400 16.971886
61.405 17.385817
61.410 16.940956
61.415 16.753836
61.420 16.097252
61.425 16.299906
61.430 16.153994
61.435 16.314373
61.440 16.448483
61.445 17.058472
61.450 17.359289
61.455 17.650478
61.460 17.290932
61.465 17.887745
61.470 18.233593
61.475 18.439993
61.480 18.192776
61.485 17.844637
61.490 17.788973
61.495 17.697012
61.500 17.155754
61.505 16.354723
61.510 15.751897
61.515 15.910604
61.520 15.871753
61.525 15.544677
61.530 15.525503
61.535 15.440987
61.540 15.851986
61.545 15.893722
61.550 15.764902
61.555 15.708876
61.560 15.750732
61.565 15.762281
61.570 16.109556
61.575 15.947256
61.580 15.990691
61.585 15.852684
61.590 15.802767
61.595 15.512342
61.600 14.942092
61.605 14.84161
61.610 15.454987
61.615 15.892764
61.620 16.668985
61.625 17.033213
61.630 17.339542
61.635 17.572237
61.640 17.723351
61.645 17.568817
61.650 17.08639
61.655 15.989652
61.660 15.823313
61.665 16.11599
61.670 16.635674
61.675 16.437901
61.680 16.590405
61.685 16.647907
61.690 16.301762
61.695 16.240042
61.700 16.189716
61.705 15.993393
61.710 16.15382
61.715 16.3818
61.720 16.524879
61.725 17.755192
61.730 17.952236
61.735 17.733921
61.740 17.596022
61.745 17.462069
61.750 16.432938
61.755 16.520645
61.760 16.347616
61.765 16.504679
61.770 16.926344
61.775 17.097347
61.780 17.129372
61.785 17.097075
61.790 16.271223
61.795 15.956069
61.800 16.218481
61.805 16.552059
61.810 16.863113
61.815 17.315811
61.820 18.341866
61.825 18.772543
61.830 18.728142
61.835 18.246828
61.840 17.540199
61.845 17.213509
61.850 16.647253
61.855 16.298847
61.860 16.686623
61.865 16.819414
61.870 17.052389
61.875 16.898073
61.880 16.745123
61.885 16.793415
61.890 16.231243
61.895 15.905323
61.900 15.927663
61.905 15.624825
61.910 15.489762
61.915 15.903404
61.920 16.052608
61.925 16.53146
61.930 16.380976
61.935 16.123039
61.940 16.267927
61.945 16.852686
61.950 17.145864
61.955 16.937695
61.960 16.447805
61.965 16.517775
61.970 16.587103
61.975 16.995369
61.980 16.762634
61.985 16.64163
61.990 16.962278
61.995 16.733604
62.000 16.671488
62.005 16.490883
62.010 16.406237
62.015 16.228874
62.020 15.752837
62.025 16.049086
62.030 16.499121
62.035 16.248636
62.040 16.197823
62.045 16.259878
62.050 16.531961
62.055 16.331121
62.060 16.272711
62.065 16.760948
62.070 16.988447
62.075 17.109316
62.080 17.246677
62.085 17.233067
62.090 17.342354
62.095 16.557062
62.100 16.079178
62.105 16.294737
62.110 15.717517
62.115 15.238757
62.120 15.014186
62.125 15.339519
62.130 16.208725
62.135 16.764872
62.140 16.90782
62.145 16.933306
62.150 17.390736
62.155 18.127775
62.160 18.209486
62.165 17.871264
62.170 18.184072
62.175 18.598701
62.180 19.815409
62.185 19.814651
62.190 18.974827
62.195 18.969858
62.200 18.992161
62.205 18.112478
62.210 17.656147
62.215 17.337599
62.220 17.090071
62.225 17.240221
62.230 16.959
62.235 16.796124
62.240 16.900942
62.245 16.655949
62.250 16.526873
62.255 17.047117
62.260 16.757217
62.265 16.637239
62.270 16.67922
62.275 16.620005
62.280 16.10128
62.285 15.804791
62.290 15.224446
62.295 14.928471
62.300 14.991738
62.305 14.889539
62.310 14.687629
62.315 15.101273
62.320 15.252957
62.325 15.610063
62.330 16.307344
62.335 16.858965
62.340 17.262424
62.345 17.641703
62.350 17.696569
62.355 17.752211
62.360 17.473927
62.365 17.010229
62.370 17.060728
62.375 16.870041
62.380 16.895041
62.385 16.42028
62.390 15.755424
62.395 15.866834
62.400 16.381603
62.405 16.207651
62.410 16.439867
62.415 17.054888
62.420 17.265493
62.425 17.211369
62.430 16.844259
62.435 16.373306
62.440 15.994316
62.445 16.29895
62.450 16.135464
62.455 17.105497
62.460 18.036478
62.465 18.622503
62.470 18.29034
62.475 18.372972
62.480 18.398834
62.485 17.79524
62.490 17.193806
62.495 16.913961
62.500 16.494881
62.505 16.545815
62.510 16.563168
62.515 16.311262
62.520 16.622496
62.525 16.258785
62.530 16.066652
62.535 16.687582
62.540 16.912189
62.545 16.484074
62.550 16.512346
62.555 16.424675
62.560 17.151424
62.565 17.015537
62.570 16.50502
62.575 16.64711
62.580 17.539434
62.585 17.30842
62.590 17.205095
62.595 16.717562
62.600 16.792404
62.605 17.268723
62.610 17.441652
62.615 17.167475
62.620 17.681639
62.625 17.257061
62.630 17.488764
62.635 17.98604
62.640 17.828833
62.645 17.550129
62.650 17.39308
62.655 16.90753
62.660 17.175529
62.665 16.638075
62.670 16.274509
62.675 16.560871
62.680 16.744957
62.685 16.786228
62.690 17.117086
62.695 17.814053
62.700 17.918234
62.705 17.092337
62.710 17.322975
62.715 17.985416
62.720 18.356216
62.725 18.913158
62.730 18.704363
62.735 18.827074
62.740 19.715361
62.745 19.106131
62.750 18.821026
62.755 18.458879
62.760 17.78924
62.765 17.598083
62.770 17.140545
62.775 17.128414
62.780 17.257462
62.785 17.048018
62.790 16.977924
62.795 17.381014
62.800 17.502039
62.805 18.275099
62.810 18.326355
62.815 18.232801
62.820 18.255335
62.825 17.72776
62.830 17.072313
62.835 17.453543
62.840 17.329016
62.845 17.244795
62.850 17.257118
62.855 17.135807
62.860 17.546818
62.865 17.714272
62.870 17.201778
62.875 16.6938
62.880 16.460217
62.885 16.200743
62.890 16.288185
62.895 16.367556
62.900 16.488016
62.905 16.169855
62.910 16.733536
62.915 17.699444
62.920 17.824459
62.925 17.679205
62.930 17.508215
62.935 17.376593
62.940 17.617968
62.945 17.145046
62.950 16.231226
62.955 16.469809
62.960 16.539444
62.965 16.500309
62.970 17.12454
62.975 17.797653
62.980 18.096611
62.985 17.970045
62.990 17.751471
62.995 17.766356
63.000 18.178669
63.005 17.97945
63.010 17.505699
63.015 16.819363
63.020 16.669582
63.025 16.943125
63.030 16.591976
63.035 16.233431
63.040 16.240677
63.045 16.774412
63.050 16.976482
63.055 17.706192
63.060 17.704847
63.065 18.301672
63.070 18.345798
63.075 17.575296
63.080 17.098665
63.085 16.880905
63.090 16.492403
63.095 16.266636
63.100 15.846865
63.105 15.864403
63.110 16.043951
63.115 16.229031
63.120 16.854988
63.125 17.300814
63.130 17.227129
63.135 17.513784
63.140 17.535803
63.145 18.158916
63.150 18.739042
63.155 19.033773
63.160 19.09206
63.165 19.410938
63.170 19.00585
63.175 19.241764
63.180 19.026211
63.185 18.458241
63.190 17.960669
63.195 17.505632
63.200 17.137466
63.205 17.157207
63.210 17.465456
63.215 17.265114
63.220 17.119801
63.225 17.006773
63.230 17.339161
63.235 17.279654
63.240 16.854719
63.245 16.489548
63.250 17.075569
63.255 17.679079
63.260 17.556782
63.265 17.063944
63.270 17.325909
63.275 17.908117
63.280 17.958796
63.285 18.289469
63.290 18.545444
63.295 18.787798
63.300 19.480335
63.305 19.78108
63.310 19.962959
63.315 20.092665
63.320 19.461515
63.325 18.848333
63.330 18.83474
63.335 19.028214
63.340 19.166878
63.345 18.518282
63.350 18.581503
63.355 18.331945
63.360 18.371162
63.365 18.318354
63.370 17.905237
63.375 17.788099
63.380 17.798235
63.385 16.947403
63.390 16.724724
63.395 16.751711
63.400 16.466501
63.405 16.252266
63.410 16.102335
63.415 16.305891
63.420 17.091921
63.425 17.285002
63.430 17.563372
63.435 17.4032
63.440 17.07416
63.445 16.581766
63.450 16.586548
63.455 16.446754
63.460 16.844145
63.465 16.594334
63.470 16.543373
63.475 17.314653
63.480 17.475655
63.485 17.336111
63.490 17.762709
63.495 17.435175
63.500 17.50165
63.505 17.3682
63.510 16.81448
63.515 17.205776
63.520 17.064503
63.525 16.643972
63.530 16.487707
63.535 16.975388
63.540 17.137493
63.545 16.850653
63.550 16.341263
63.555 15.760262
63.560 15.931164
63.565 16.685411
63.570 16.920256
63.575 17.150206
63.580 17.941317
63.585 18.380444
63.590 18.492599
63.595 18.276674
63.600 17.747007
63.605 17.272053
63.610 17.090849
63.615 16.510469
63.620 16.392851
63.625 16.642506
63.630 16.789728
63.635 16.606627
63.640 16.491432
63.645 17.123611
63.650 17.61536
63.655 18.100075
63.660 18.20363
63.665 17.85187
63.670 17.934523
63.675 17.807369
63.680 17.104334
63.685 17.258345
63.690 17.46443
63.695 17.538465
63.700 17.182896
63.705 17.746132
63.710 18.737686
63.715 18.67491
63.720 18.234745
63.725 17.928095
63.730 18.123608
63.735 18.213093
63.740 18.013475
63.745 17.381069
63.750 17.55616
63.755 17.954573
63.760 18.015369
63.765 17.782789
63.770 17.455631
63.775 17.482817
63.780 18.13735
63.785 18.319305
63.790 18.096977
63.795 17.653072
63.800 17.580742
63.805 18.426594
63.810 18.664175
63.815 18.430141
63.820 18.500111
63.825 18.319757
63.830 18.848017
63.835 19.862293
63.840 19.875074
63.845 19.833427
63.850 19.9219
63.855 19.741495
63.860 19.663668
63.865 19.274712
63.870 18.536846
63.875 17.663666
63.880 17.320028
63.885 17.34251
63.890 17.549253
63.895 17.773148
63.900 17.949753
63.905 18.30855
63.910 18.747755
63.915 18.513994
63.920 18.28421
63.925 18.071716
63.930 18.447886
63.935 18.629812
63.940 18.083336
63.945 18.69223
63.950 19.361805
63.955 19.453115
63.960 19.517921
63.965 19.48679
63.970 19.400938
63.975 19.881994
63.980 19.552322
63.985 19.077993
63.990 19.504038
63.995 20.01947
64.000 20.087496
64.005 20.11101
64.010 20.275026
64.015 20.239586
64.020 20.610584
64.025 20.418629
64.030 20.047478
64.035 20.373672
64.040 20.267296
64.045 19.65756
64.050 19.125547
64.055 18.693897
64.060 18.63806
64.065 18.759029
64.070 18.700493
64.075 18.989756
64.080 18.989428
64.085 19.32181
64.090 19.046324
64.095 18.713919
64.100 18.705347
64.105 18.642248
64.110 18.042715
64.115 18.30961
64.120 19.173672
64.125 19.470304
64.130 19.84898
64.135 19.756886
64.140 19.593664
64.145 19.839024
64.150 19.322338
64.155 18.486679
64.160 18.372948
64.165 18.152065
64.170 18.418951
64.175 18.018436
64.180 18.315571
64.185 18.401384
64.190 18.402086
64.195 18.123529
64.200 18.036997
64.205 17.560543
64.210 17.686422
64.215 17.837339
64.220 18.551355
64.225 18.939117
64.230 19.574289
64.235 19.553949
64.240 19.9368
64.245 20.650915
64.250 20.290537
64.255 20.355492
64.260 19.898102
64.265 19.536877
64.270 19.53826
64.275 19.184614
64.280 18.97348
64.285 18.839912
64.290 18.481094
64.295 18.559376
64.300 18.984116
64.305 18.532906
64.310 18.598932
64.315 18.814924
64.320 19.345663
64.325 19.411531
64.330 19.607094
64.335 19.812866
64.340 20.425117
64.345 20.371357
64.350 20.157835
64.355 20.02709
64.360 19.997919
64.365 19.832441
64.370 19.354239
64.375 19.011169
64.380 19.257763
64.385 19.441746
64.390 19.738325
64.395 19.918999
64.400 20.80164
64.405 21.189047
64.410 21.455496
64.415 21.319447
64.420 21.271589
64.425 21.231102
64.430 20.998985
64.435 20.40028
64.440 20.846733
64.445 21.857887
64.450 22.191912
64.455 21.905455
64.460 21.874954
64.465 22.149286
64.470 22.009085
64.475 21.675539
64.480 20.631117
64.485 20.705608
64.490 20.957626
64.495 20.642555
64.500 20.334391
64.505 20.558161
64.510 20.388664
64.515 20.567869
64.520 20.236403
64.525 19.762718
64.530 19.847031
64.535 19.549486
64.540 18.881102
64.545 18.72789
64.550 18.596106
64.555 18.568338
64.560 19.134514
64.565 19.254799
64.570 19.222483
64.575 20.036369
64.580 20.098196
64.585 20.023811
64.590 19.737419
64.595 19.394459
64.600 20.160694
64.605 20.511663
64.610 20.167658
64.615 19.813375
64.620 19.929905
64.625 20.377428
64.630 20.295219
64.635 19.713495
64.640 19.653578
64.645 19.950361
64.650 20.540625
64.655 20.401031
64.660 20.436293
64.665 20.713972
64.670 21.319969
64.675 21.508028
64.680 21.136921
64.685 20.64934
64.690 20.518347
64.695 20.19335
64.700 20.372078
64.705 19.742559
64.710 19.663353
64.715 19.841042
64.720 19.936785
64.725 20.615311
64.730 20.808638
64.735 20.63241
64.740 20.968384
64.745 20.910185
64.750 21.509781
64.755 22.324867
64.760 21.922098
64.765 21.781345
64.770 21.125303
64.775 21.136957
64.780 20.967102
64.785 20.459375
64.790 19.738838
64.795 19.949017
64.800 20.250551
64.805 20.827814
64.810 20.945904
64.815 21.20755
64.820 21.165848
64.825 21.326004
64.830 21.164227
64.835 21.345966
64.840 21.416433
64.845 21.953344
64.850 22.363676
64.855 22.417517
64.860 22.102919
64.865 22.883545
64.870 22.864382
64.875 22.821917
64.880 22.002762
64.885 21.141687
64.890 21.018778
64.895 21.128967
64.900 20.005808
64.905 19.602758
64.910 19.592615
64.915 20.050833
64.920 20.729919
64.925 21.137033
64.930 21.497431
64.935 21.722851
64.940 21.915792
64.945 22.780333
64.950 23.466345
64.955 23.616846
64.960 23.594513
64.965 23.977179
64.970 24.236141
64.975 24.299286
64.980 23.471087
64.985 23.399384
64.990 23.323866
64.995 23.139742
65.000 23.08436
65.005 23.522709
65.010 24.281374
65.015 24.218525
65.020 24.280151
65.025 24.765955
65.030 24.975061
65.035 24.501629
65.040 24.453548
65.045 23.763702
65.050 23.834871
65.055 23.286676
65.060 23.026665
65.065 23.129553
65.070 23.787996
65.075 23.18544
65.080 23.331938
65.085 23.610573
65.090 24.106144
65.095 24.503
65.100 24.291092
65.105 24.309761
65.110 24.875565
65.115 24.830652
65.120 24.728432
65.125 23.986607
65.130 23.233305
65.135 22.611069
65.140 21.876963
65.145 21.67593
65.150 21.652494
65.155 21.198961
65.160 21.457401
65.165 22.640486
65.170 23.472628
65.175 23.992886
65.180 23.712774
65.185 23.478052
65.190 23.115051
65.195 22.791239
65.200 21.862976
65.205 21.343956
65.210 21.274279
65.215 21.461914
65.220 21.749596
65.225 22.153168
65.230 22.734402
65.235 22.673941
65.240 22.955402
65.245 23.501125
65.250 23.210274
65.255 23.438704
65.260 23.979307
65.265 23.910257
65.270 24.524229
65.275 24.5259
65.280 24.422033
65.285 25.064697
65.290 25.300756
65.295 25.1555
65.300 25.288435
65.305 25.05711
65.310 24.985224
65.315 25.271946
65.320 24.540495
65.325 23.885817
65.330 24.380537
65.335 24.308048
65.340 24.001881
65.345 24.106195
65.350 23.787743
65.355 23.591272
65.360 23.434677
65.365 22.889584
65.370 23.331684
65.375 23.668978
65.380 23.419367
65.385 23.439547
65.390 24.366287
65.395 25.297417
65.400 25.403845
65.405 24.736042
65.410 24.714491
65.415 24.814287
65.420 25.064907
65.425 24.42024
65.430 23.778294
65.435 23.960321
65.440 24.21682
65.445 24.252876
65.450 24.564939
65.455 24.512735
65.460 24.982889
65.465 25.086994
65.470 24.79479
65.475 25.539461
65.480 26.041847
65.485 26.358309
65.490 26.484955
65.495 26.848774
65.500 27.201416
65.505 27.157331
65.510 26.644079
65.515 26.622
65.520 26.676783
65.525 26.426188
65.530 26.748678
65.535 26.698715
65.540 26.820328
65.545 27.285557
65.550 27.306583
65.555 27.434214
65.560 27.383274
65.565 26.98551
65.570 27.454901
65.575 27.598669
65.580 28.220901
65.585 28.00124
65.590 27.657156
65.595 27.781954
65.600 27.889414
65.605 27.952391
65.610 28.487188
65.615 28.010126
65.620 28.109562
65.625 28.435265
65.630 28.273853
65.635 28.081722
65.640 28.054003
65.645 28.28977
65.650 28.807453
65.655 29.026005
65.660 29.839005
65.665 31.523577
65.670 32.291363
65.675 33.070671
65.680 32.496517
65.685 32.589535
65.690 32.872974
65.695 32.489227
65.700 32.231518
65.705 31.784618
65.710 31.263424
65.715 31.252781
65.720 31.056835
65.725 30.946686
65.730 31.281845
65.735 30.431402
65.740 30.572462
65.745 31.18708
65.750 31.977365
65.755 32.893349
65.760 33.291111
65.765 33.650024
65.770 34.037563
65.775 34.383293
65.780 34.634342
65.785 34.733955
65.790 34.679787
65.795 35.228302
65.800 35.876175
65.805 36.453144
65.810 36.370098
65.815 36.210945
65.820 36.763031
65.825 36.97509
65.830 36.797886
65.835 36.229019
65.840 36.311794
65.845 36.52459
65.850 36.506676
65.855 36.609772
65.860 36.288826
65.865 36.66663
65.870 37.290104
65.875 37.586658
65.880 37.628517
65.885 37.096519
65.890 36.948833
65.895 37.823215
65.900 37.668571
65.905 37.582203
65.910 37.934925
65.915 37.529926
65.920 37.965851
65.925 37.88763
65.930 36.878582
65.935 36.644371
65.940 35.654728
65.945 35.424885
65.950 36.095043
65.955 37.08548
65.960 37.725323
65.965 37.670998
65.970 38.372658
65.975 38.627506
65.980 39.054684
65.985 39.506638
65.990 38.578308
65.995 38.919685
66.000 39.449661
66.005 38.765839
66.010 38.774963
66.015 38.326702
66.020 37.845497
66.025 37.904629
66.030 37.628925
66.035 38.066704
66.040 38.67717
66.045 38.771606
66.050 39.12471
66.055 38.724937
66.060 38.760452
66.065 38.784084
66.070 38.581753
66.075 38.51651
66.080 38.495289
66.085 38.206745
66.090 38.732628
66.095 39.401039
66.100 38.886059
66.105 38.82893
66.110 39.546276
66.115 40.361885
66.120 41.254292
66.125 41.156559
66.130 41.156006
66.135 41.470882
66.140 41.697182
66.145 41.539238
66.150 40.791874
66.155 39.512371
66.160 38.658592
66.165 38.108463
66.170 37.743805
66.175 36.524532
66.180 35.887424
66.185 35.548126
66.190 35.501667
66.195 36.495529
66.200 37.019405
66.205 37.989902
66.210 38.656467
66.215 38.926792
66.220 39.490372
66.225 39.411591
66.230 39.102516
66.235 39.836441
66.240 39.477272
66.245 38.969425
66.250 39.051281
66.255 38.783825
66.260 38.938465
66.265 38.318817
66.270 37.287971
66.275 36.848694
66.280 36.176228
66.285 35.46434
66.290 35.849068
66.295 35.727512
66.300 35.59454
66.305 35.302471
66.310 35.761059
66.315 36.018318
66.320 36.471092
66.325 36.015743
66.330 35.814316
66.335 36.154251
66.340 35.837566
66.345 35.074821
66.350 34.61721
66.355 34.077553
66.360 33.69289
66.365 33.504879
66.370 32.638165
66.375 31.420523
66.380 31.180126
66.385 31.335581
66.390 31.009584
66.395 30.911886
66.400 31.310032
66.405 31.79488
66.410 32.06636
66.415 31.385508
66.420 31.582251
66.425 31.600403
66.430 31.150452
66.435 30.384623
66.440 30.060436
66.445 29.986004
66.450 29.874744
66.455 29.009384
66.460 28.701778
66.465 29.043856
66.470 29.09889
66.475 29.692188
66.480 30.70339
66.485 31.438374
66.490 31.952568
66.495 31.907223
66.500 31.421875
66.505 30.996729
66.510 30.522728
66.515 29.857725
66.520 29.807903
66.525 30.112686
66.530 30.233934
66.535 30.017204
66.540 29.341072
66.545 28.758175
66.550 28.154322
66.555 27.687441
66.560 27.031086
66.565 27.606949
66.570 27.986124
66.575 28.044605
66.580 28.072641
66.585 28.078653
66.590 27.699036
66.595 27.168354
66.600 26.128738
66.605 26.274647
66.610 26.402016
66.615 26.130716
66.620 26.027121
66.625 26.202316
66.630 26.075144
66.635 25.851725
66.640 24.984879
66.645 25.275639
66.650 25.223721
66.655 24.414715
66.660 24.573378
66.665 24.515339
66.670 24.524345
66.675 24.997431
66.680 24.40661
66.685 24.434326
66.690 24.434599
66.695 23.394079
66.700 23.372608
66.705 23.588106
66.710 23.490829
66.715 23.38022
66.720 22.943617
66.725 22.657093
66.730 22.959742
66.735 23.29052
66.740 22.731291
66.745 22.364325
66.750 22.312243
66.755 22.079491
66.760 22.712074
66.765 23.169436
66.770 22.833155
66.775 23.790499
66.780 23.91621
66.785 24.114222
66.790 24.29999
66.795 24.016739
66.800 23.385603
66.805 23.27759
66.810 22.598412
66.815 22.451662
66.820 22.306519
66.825 22.587605
66.830 22.181093
66.835 22.623421
66.840 22.664829
66.845 23.053232
66.850 23.291914
66.855 23.255526
66.860 23.212511
66.865 22.834297
66.870 22.41847
66.875 22.633982
66.880 21.913494
66.885 21.551102
66.890 21.46175
66.895 21.266756
66.900 21.655308
66.905 21.875429
66.910 21.176395
66.915 21.455648
66.920 21.721853
66.925 21.320179
66.930 21.876579
66.935 22.318041
66.940 22.41671
66.945 22.504805
66.950 22.796398
66.955 22.608419
66.960 22.566692
66.965 22.648174
66.970 22.187601
66.975 21.913355
66.980 21.960964
66.985 21.204929
66.990 21.796772
66.995 22.200998
67.000 21.835361
67.005 21.928667
67.010 21.999811
67.015 22.307623
67.020 23.214399
67.025 22.474834
67.030 22.61828
67.035 23.472063
67.040 23.481459
67.045 23.740921
67.050 23.793856
67.055 23.250097
67.060 23.665237
67.065 23.195871
67.070 22.434437
67.075 22.567892
67.080 22.842415
67.085 22.881865
67.090 23.141888
67.095 23.127043
67.100 22.960022
67.105 22.831055
67.110 22.790768
67.115 22.74357
67.120 22.691521
67.125 22.399834
67.130 22.588221
67.135 22.315002
67.140 21.807323
67.145 21.608152
67.150 21.53771
67.155 21.720556
67.160 21.854235
67.165 21.747631
67.170 21.363222
67.175 21.401819
67.180 20.897276
67.185 20.302301
67.190 19.85276
67.195 19.678148
67.200 19.893106
67.205 19.765034
67.210 20.159559
67.215 20.851473
67.220 21.53661
67.225 21.911505
67.230 21.460396
67.235 21.166048
67.240 22.341415
67.245 22.025208
67.250 21.689888
67.255 21.071621
67.260 21.098389
67.265 21.295294
67.270 21.148411
67.275 20.687798
67.280 21.136673
67.285 21.18573
67.290 21.148703
67.295 21.055552
67.300 21.531029
67.305 21.73505
67.310 21.145582
67.315 20.790335
67.320 20.835093
67.325 21.14257
67.330 21.187054
67.335 20.927975
67.340 20.609489
67.345 21.49782
67.350 21.611805
67.355 21.529491
67.360 21.396099
67.365 20.66254
67.370 20.652277
67.375 20.672314
67.380 20.217831
67.385 20.310629
67.390 20.227692
67.395 20.190651
67.400 20.627541
67.405 20.547279
67.410 20.286367
67.415 20.119242
67.420 20.343039
67.425 20.230232
67.430 19.999058
67.435 19.543156
67.440 19.680008
67.445 19.817667
67.450 19.630142
67.455 18.724522
67.460 18.369637
67.465 18.578451
67.470 18.841257
67.475 19.363831
67.480 19.911945
67.485 20.45219
67.490 21.275589
67.495 21.689945
67.500 22.029203
67.505 21.721586
67.510 21.497787
67.515 20.898756
67.520 20.257345
67.525 19.91622
67.530 19.876074
67.535 19.507946
67.540 19.98978
67.545 19.936768
67.550 20.071066
67.555 20.708326
67.560 20.872183
67.565 20.925159
67.570 21.403996
67.575 21.515917
67.580 21.769432
67.585 21.60346
67.590 21.298559
67.595 21.534489
67.600 21.874432
67.605 21.485678
67.610 21.197937
67.615 20.660349
67.620 20.933794
67.625 20.77277
67.630 21.282276
67.635 21.207775
67.640 20.819094
67.645 20.746807
67.650 20.753029
67.655 20.715351
67.660 20.713383
67.665 19.843166
67.670 19.31838
67.675 19.551142
67.680 19.882635
67.685 20.831133
67.690 20.667709
67.695 20.417444
67.700 20.901712
67.705 21.558325
67.710 21.802206
67.715 21.764168
67.720 21.227737
67.725 21.942722
67.730 22.496267
67.735 22.257433
67.740 22.194923
67.745 21.758936
67.750 21.390692
67.755 21.302858
67.760 20.538921
67.765 20.470907
67.770 20.530313
67.775 20.424171
67.780 20.301134
67.785 19.82535
67.790 19.903069
67.795 20.135109
67.800 19.937756
67.805 19.218466
67.810 18.654688
67.815 19.03937
67.820 19.42868
67.825 19.264414
67.830 18.849737
67.835 18.756966
67.840 19.427666
67.845 19.452553
67.850 19.355072
67.855 19.564148
67.860 19.638752
67.865 19.516802
67.870 19.732628
67.875 19.971863
67.880 19.820251
67.885 19.967815
67.890 20.044884
67.895 20.329523
67.900 20.939051
67.905 20.622931
67.910 20.837696
67.915 21.484449
67.920 20.889187
67.925 20.935833
67.930 21.410412
67.935 21.54986
67.940 21.876226
67.945 21.956669
67.950 22.023954
67.955 22.095661
67.960 22.521061
67.965 21.634243
67.970 21.482012
67.975 21.709372
67.980 21.159206
67.985 20.852276
67.990 20.477158
67.995 20.417656
68.000 21.042158
68.005 20.766283
68.010 20.697382
68.015 21.079752
68.020 21.28511
68.025 21.436846
68.030 20.938208
68.035 20.434654
68.040 20.640711
68.045 20.284307
68.050 20.422943
68.055 20.394377
68.060 20.347084
68.065 20.59177
68.070 20.933508
68.075 20.573013
68.080 20.235706
68.085 19.877941
68.090 19.999859
68.095 19.622639
68.100 19.179234
68.105 19.280657
68.110 19.285141
68.115 19.43021
68.120 19.225531
68.125 19.381731
68.130 19.565863
68.135 19.641413
68.140 18.747248
68.145 19.085497
68.150 19.930267
68.155 20.491606
68.160 20.544836
68.165 20.782063
68.170 20.745455
68.175 21.055908
68.180 21.048609
68.185 20.695173
68.190 21.134487
68.195 21.347874
68.200 21.686815
68.205 21.519609
68.210 22.009392
68.215 21.785204
68.220 21.913279
68.225 21.322214
68.230 21.180111
68.235 20.971443
68.240 21.120667
68.245 21.088947
68.250 21.105261
68.255 21.070339
68.260 21.244427
68.265 21.380417
68.270 21.509676
68.275 21.218576
68.280 21.602926
68.285 21.802988
68.290 21.629059
68.295 21.061781
68.300 20.300272
68.305 20.930937
68.310 21.224987
68.315 21.157333
68.320 21.01189
68.325 21.115589
68.330 21.386318
68.335 21.421713
68.340 20.848221
68.345 21.050962
68.350 20.853207
68.355 20.764679
68.360 21.163614
68.365 20.9704
68.370 21.486414
68.375 20.859446
68.380 20.50956
68.385 20.456705
68.390 20.645941
68.395 20.298071
68.400 20.025394
68.405 19.822464
68.410 20.439871
68.415 20.705124
68.420 21.178654
68.425 21.580564
68.430 21.504469
68.435 21.867981
68.440 22.525179
68.445 22.104368
68.450 22.250622
68.455 22.099682
68.460 21.958876
68.465 22.276379
68.470 22.342119
68.475 21.936108
68.480 21.816273
68.485 20.97905
68.490 21.012846
68.495 20.750134
68.500 20.739594
68.505 20.25053
68.510 20.603607
68.515 21.248899
68.520 21.455608
68.525 20.900194
68.530 21.069401
68.535 21.103245
68.540 21.41931
68.545 21.518248
68.550 21.495907
68.555 21.749147
68.560 22.307106
68.565 22.035162
68.570 22.132311
68.575 21.61466
68.580 21.01893
68.585 21.304367
68.590 21.370855
68.595 21.528925
68.600 21.273241
68.605 21.379101
68.610 21.750463
68.615 21.921406
68.620 21.780195
68.625 21.417215
68.630 20.817593
68.635 20.400164
68.640 20.009405
68.645 19.718245
68.650 19.633945
68.655 19.495577
68.660 19.514736
68.665 19.993715
68.670 21.425718
68.675 21.420322
68.680 21.262814
68.685 21.091293
68.690 21.491856
68.695 22.089403
68.700 21.679352
68.705 21.12081
68.710 21.533548
68.715 21.943027
68.720 22.422205
68.725 21.781889
68.730 21.716379
68.735 21.738886
68.740 21.439621
68.745 21.042612
68.750 21.347126
68.755 21.381659
68.760 21.885979
68.765 21.68034
68.770 22.344177
68.775 22.365623
68.780 22.697369
68.785 22.098354
68.790 21.676208
68.795 21.636637
68.800 21.633928
68.805 21.036356
68.810 20.846067
68.815 21.255825
68.820 21.944426
68.825 21.966742
68.830 22.408545
68.835 23.280432
68.840 24.199965
68.845 24.383503
68.850 23.934189
68.855 23.299578
68.860 23.242487
68.865 23.334242
68.870 22.620207
68.875 22.630398
68.880 22.343769
68.885 22.481411
68.890 22.809519
68.895 22.573858
68.900 21.86117
68.905 21.336267
68.910 21.139278
68.915 21.724648
68.920 21.853443
68.925 21.734581
68.930 21.411495
68.935 21.391239
68.940 21.824589
68.945 22.209322
68.950 21.904211
68.955 21.579826
68.960 21.596828
68.965 21.853802
68.970 22.275299
68.975 22.19169
68.980 22.097727
68.985 22.113062
68.990 22.444897
68.995 22.657236
69.000 22.515671
69.005 22.857275
69.010 23.077028
69.015 22.774342
69.020 23.335905
69.025 23.615288
69.030 24.054953
69.035 24.575453
69.040 24.66283
69.045 25.231092
69.050 25.673939
69.055 25.431089
69.060 25.596918
69.065 25.292849
69.070 25.294249
69.075 24.916491
69.080 24.367174
69.085 24.198214
69.090 23.895264
69.095 23.595654
69.100 24.133677
69.105 24.255995
69.110 24.83234
69.115 24.996315
69.120 25.278166
69.125 25.752413
69.130 26.149075
69.135 25.513575
69.140 25.168589
69.145 24.673326
69.150 24.285116
69.155 24.337902
69.160 24.176241
69.165 24.499269
69.170 25.27677
69.175 26.060654
69.180 26.688717
69.185 27.709238
69.190 27.66081
69.195 27.490643
69.200 27.16474
69.205 27.169989
69.210 27.439079
69.215 27.716211
69.220 27.206202
69.225 27.613417
69.230 27.897802
69.235 27.30677
69.240 26.993942
69.245 26.705305
69.250 26.472952
69.255 26.625666
69.260 26.462358
69.265 26.938845
69.270 27.455172
69.275 27.097166
69.280 26.705803
69.285 26.693623
69.290 26.726561
69.295 26.703808
69.300 26.70784
69.305 27.023052
69.310 28.257998
69.315 29.401659
69.320 30.247852
69.325 30.331852
69.330 30.199562
69.335 30.136198
69.340 30.033081
69.345 29.468599
69.350 28.926174
69.355 28.822657
69.360 29.543497
69.365 30.347923
69.370 30.839552
69.375 31.487928
69.380 31.369797
69.385 31.281612
69.390 31.72436
69.395 31.46162
69.400 30.69669
69.405 30.720295
69.410 30.468298
69.415 30.519487
69.420 30.127783
69.425 29.989542
69.430 30.438515
69.435 30.778458
69.440 30.804159
69.445 30.939695
69.450 31.573568
69.455 32.445221
69.460 31.769123
69.465 31.66889
69.470 31.531914
69.475 31.612179
69.480 32.448158
69.485 32.184448
69.490 31.460497
69.495 31.736717
69.500 31.595005
69.505 31.030922
69.510 30.909227
69.515 31.043247
69.520 31.525099
69.525 32.078899
69.530 31.927052
69.535 32.539169
69.540 33.506504
69.545 33.400982
69.550 32.879112
69.555 32.11132
69.560 31.741598
69.565 31.488466
69.570 31.500088
69.575 31.091547
69.580 30.92021
69.585 30.216434
69.590 30.927757
69.595 31.149782
69.600 30.684429
69.605 30.202263
69.610 30.264698
69.615 29.912531
69.620 29.92226
69.625 29.626757
69.630 29.508799
69.635 30.151939
69.640 30.653006
69.645 31.024519
69.650 31.237072
69.655 32.012054
69.660 31.764118
69.665 31.503361
69.670 31.542494
69.675 30.885601
69.680 30.385792
69.685 30.476896
69.690 30.228456
69.695 30.448835
69.700 30.721157
69.705 30.148895
69.710 30.220673
69.715 30.828789
69.720 31.21583
69.725 30.325277
69.730 30.015894
69.735 29.756472
69.740 29.940023
69.745 29.8239
69.750 28.800512
69.755 28.560101
69.760 28.777737
69.765 28.830538
69.770 28.598606
69.775 27.765085
69.780 27.859575
69.785 28.152451
69.790 27.794884
69.795 27.535152
69.800 27.85354
69.805 27.47876
69.810 27.378204
69.815 27.235048
69.820 27.132694
69.825 26.987041
69.830 27.243641
69.835 26.726049
69.840 26.863419
69.845 27.570036
69.850 26.917885
69.855 26.155127
69.860 25.373793
69.865 25.191004
69.870 25.495583
69.875 25.377254
69.880 24.80192
69.885 24.807802
69.890 25.159809
69.895 25.134659
69.900 24.320942
69.905 23.665909
69.910 23.102932
69.915 23.137436
69.920 22.917183
69.925 22.704748
69.930 23.009363
69.935 23.19194
69.940 23.444969
69.945 23.384481
69.950 22.800623
69.955 23.014915
69.960 22.929489
69.965 22.52051
69.970 23.269066
69.975 23.838276
69.980 24.568745
69.985 25.118084
69.990 24.849384
69.995 25.039827
70.000 24.947905
70.005 24.784063
70.010 24.118317
70.015 23.359854
70.020 23.328213
70.025 23.891567
70.030 23.681808
70.035 22.912159
70.040 21.634396
70.045 21.151966
70.050 20.563042
70.055 20.38501
70.060 19.198542
70.065 18.932121
70.070 18.941851
70.075 19.181011
70.080 19.327009
70.085 19.831284
70.090 19.506418
70.095 20.036745
70.100 20.339273
70.105 20.21586
70.110 20.807194
70.115 20.686949
70.120 20.253857
70.125 20.543314
70.130 21.277445
70.135 21.501881
70.140 21.264214
70.145 21.297009
70.150 21.624414
70.155 22.125242
70.160 21.814758
70.165 20.547874
70.170 20.929552
70.175 20.624437
70.180 20.015833
70.185 19.434509
70.190 18.890396
70.195 19.188669
70.200 19.453264
70.205 19.527248
70.210 20.473621
70.215 20.498257
70.220 20.642797
70.225 20.687742
70.230 20.269043
70.235 20.024225
70.240 19.756693
70.245 19.509853
70.250 19.797621
70.255 19.827885
70.260 19.66852
70.265 19.549126
70.270 19.438414
70.275 18.91889
70.280 19.173298
70.285 19.444244
70.290 19.253525
70.295 19.019819
70.300 19.045193
70.305 18.808304
70.310 18.974503
70.315 18.535078
70.320 18.714712
70.325 18.946041
70.330 19.069498
70.335 19.357712
70.340 19.676525
70.345 19.493114
70.350 19.182369
70.355 18.587122
70.360 18.775946
70.365 18.970512
70.370 19.216125
70.375 20.116461
70.380 20.128044
70.385 20.533718
70.390 21.296991
70.395 21.990604
70.400 21.952879
70.405 21.613697
70.410 20.381392
70.415 20.731346
70.420 20.392927
70.425 19.724384
70.430 19.560608
70.435 19.443239
70.440 19.133886
70.445 19.382458
70.450 20.064764
70.455 20.566923
70.460 20.691303
70.465 20.454662
70.470 20.526442
70.475 21.40473
70.480 21.476795
70.485 20.430866
70.490 19.983488
70.495 19.984377
70.500 20.663864
70.505 20.453602
70.510 20.064547
70.515 20.00815
70.520 20.0173
70.525 19.6493
70.530 18.99029
70.535 18.273491
70.540 18.220928
70.545 17.931154
70.550 17.303303
70.555 17.78698
70.560 18.044111
70.565 18.373915
70.570 18.754377
70.575 19.111483
70.580 19.204851
70.585 19.503664
70.590 19.709728
70.595 19.531519
70.600 18.74629
70.605 18.515062
70.610 18.617245
70.615 18.575628
70.620 18.407921
70.625 18.377661
70.630 18.409302
70.635 18.607183
70.640 18.436132
70.645 18.24902
70.650 18.423796
70.655 18.437132
70.660 17.927107
70.665 18.015715
70.670 18.105118
70.675 18.380541
70.680 18.738831
70.685 18.778408
70.690 19.189974
70.695 19.928556
70.700 20.459574
70.705 20.01442
70.710 19.258902
70.715 19.348619
70.720 20.272289
70.725 20.32572
70.730 19.847132
70.735 19.710445
70.740 20.165388
70.745 20.361237
70.750 20.236105
70.755 19.482653
70.760 18.991373
70.765 19.369179
70.770 19.513992
70.775 20.144606
70.780 19.941725
70.785 19.375595
70.790 19.409712
70.795 19.816315
70.800 19.642336
70.805 19.25095
70.810 19.357944
70.815 19.966084
70.820 20.340889
70.825 19.721033
70.830 19.887493
70.835 19.556561
70.840 19.392832
70.845 19.027159
70.850 18.111202
70.855 17.972832
70.860 18.17532
70.865 18.036964
70.870 17.59721
70.875 17.587973
70.880 17.57618
70.885 18.169762
70.890 18.364008
70.895 18.421101
70.900 18.95002
70.905 19.895378
70.910 20.519287
70.915 20.880344
70.920 20.75606
70.925 20.443098
70.930 20.635078
70.935 20.165064
70.940 19.675575
70.945 19.918636
70.950 19.831745
70.955 20.314198
70.960 20.518442
70.965 20.123354
70.970 20.593868
70.975 20.660542
70.980 20.558834
70.985 20.406
70.990 20.478884
70.995 20.557281
71.000 20.351175
71.005 19.930872
71.010 19.295649
71.015 18.462238
71.020 17.99514
71.025 17.188181
71.030 17.324032
71.035 17.757494
71.040 18.140249
71.045 18.340765
71.050 19.027706
71.055 19.772049
71.060 20.61203
71.065 20.647329
71.070 20.290678
71.075 19.76668
71.080 19.611614
71.085 18.874792
71.090 18.482273
71.095 17.861689
71.100 18.004604
71.105 18.592577
71.110 19.157978
71.115 19.050827
71.120 19.442652
71.125 19.468233
71.130 19.355621
71.135 19.123663
71.140 18.715666
71.145 18.737299
71.150 18.695784
71.155 18.803848
71.160 18.944027
71.165 18.918436
71.170 18.961397
71.175 18.677338
71.180 18.556238
71.185 18.88257
71.190 18.960253
71.195 18.063725
71.200 17.716389
71.205 17.562071
71.210 18.189417
71.215 17.522686
71.220 17.355059
71.225 17.616858
71.230 18.359385
71.235 18.531357
71.240 18.494688
71.245 19.02327
71.250 19.827349
71.255 19.922651
71.260 19.832317
71.265 20.218956
71.270 20.51478
71.275 19.974924
71.280 19.477406
71.285 18.903006
71.290 18.799795
71.295 18.990873
71.300 18.539871
71.305 18.714558
71.310 18.921997
71.315 19.197025
71.320 19.520351
71.325 19.49827
71.330 19.362623
71.335 19.081467
71.340 19.407583
71.345 19.56411
71.350 19.379734
71.355 19.725365
71.360 19.64271
71.365 19.431551
71.370 19.78903
71.375 19.869513
71.380 20.16433
71.385 19.72817
71.390 19.092701
71.395 18.92909
71.400 19.556538
71.405 19.555498
71.410 19.097292
71.415 18.949095
71.420 19.209103
71.425 19.517601
71.430 19.709717
71.435 19.087868
71.440 18.94796
71.445 18.953138
71.450 19.184151
71.455 19.446959
71.460 19.474731
71.465 19.312378
71.470 19.270819
71.475 18.587601
71.480 18.667513
71.485 18.857706
71.490 18.743259
71.495 18.199448
71.500 17.746576
71.505 17.792109
71.510 18.593025
71.515 18.566824
71.520 18.276451
71.525 17.904995
71.530 18.492596
71.535 18.661812
71.540 18.788401
71.545 18.592997
71.550 18.688446
71.555 18.36273
71.560 18.304035
71.565 18.336773
71.570 18.561813
71.575 17.989073
71.580 17.491541
71.585 17.542912
71.590 18.166971
71.595 18.764263
71.600 18.920158
71.605 19.061804
71.610 18.993305
71.615 18.9571
71.620 19.010101
71.625 18.564613
71.630 18.12962
71.635 18.326614
71.640 18.135586
71.645 18.455997
71.650 18.349916
71.655 18.128267
71.660 18.230724
71.665 18.75799
71.670 18.334248
71.675 18.183498
71.680 18.186764
71.685 18.084839
71.690 18.139063
71.695 18.125566
71.700 17.910376
71.705 18.099369
71.710 18.262438
71.715 18.935217
71.720 19.606184
71.725 19.508856
71.730 19.314499
71.735 19.153313
71.740 18.953606
71.745 18.440989
71.750 17.830204
71.755 17.571119
71.760 17.934372
71.765 18.558304
71.770 18.941944
71.775 19.423849
71.780 19.560837
71.785 19.490282
71.790 19.318323
71.795 18.639751
71.800 17.779985
71.805 17.834747
71.810 18.45207
71.815 18.376534
71.820 18.537596
71.825 19.061535
71.830 19.440983
71.835 19.644457
71.840 20.022758
71.845 20.488483
71.850 20.672537
71.855 19.840591
71.860 19.256262
71.865 19.055021
71.870 19.00309
71.875 18.837883
71.880 18.13327
71.885 18.201658
71.890 18.779255
71.895 18.773792
71.900 18.424925
71.905 18.80757
71.910 18.631212
71.915 18.495443
71.920 18.381243
71.925 18.244558
71.930 18.234142
71.935 18.041536
71.940 17.304539
71.945 17.697876
71.950 18.730396
71.955 18.767113
71.960 18.757906
71.965 18.55481
71.970 19.0889
71.975 19.087149
71.980 18.199347
71.985 17.984371
71.990 18.134779
71.995 18.34915
72.000 18.222097
72.005 17.825314
72.010 17.782896
72.015 17.920767
72.020 17.790918
72.025 18.090965
72.030 18.443371
72.035 18.669188
72.040 18.705982
72.045 18.445435
72.050 18.035526
72.055 17.639784
72.060 17.194
72.065 16.889874
72.070 16.566616
72.075 16.166548
72.080 16.652353
72.085 17.23538
72.090 17.256189
72.095 17.313248
72.100 17.950392
72.105 18.118458
72.110 18.4009
72.115 18.815945
72.120 18.693285
72.125 18.894762
72.130 19.343174
72.135 19.043928
72.140 19.313719
72.145 19.615984
72.150 18.807148
72.155 18.683128
72.160 18.729164
72.165 18.72592
72.170 19.049353
72.175 18.776533
72.180 18.241405
72.185 18.244389
72.190 18.411957
72.195 18.475035
72.200 18.576284
72.205 18.500433
72.210 19.307171
72.215 19.498001
72.220 19.023718
72.225 18.338961
72.230 18.487806
72.235 18.438911
72.240 18.623323
72.245 18.268232
72.250 18.537395
72.255 19.259695
72.260 19.336613
72.265 18.633867
72.270 18.76384
72.275 18.92622
72.280 19.089748
72.285 18.424646
72.290 18.512972
72.295 18.505823
72.300 18.722679
72.305 18.667934
72.310 18.475807
72.315 19.03578
72.320 19.447319
72.325 19.616707
72.330 19.792797
72.335 19.305761
72.340 18.980156
72.345 18.903475
72.350 18.95751
72.355 19.032061
72.360 18.550024
72.365 18.519421
72.370 18.607199
72.375 18.475752
72.380 18.863144
72.385 18.316462
72.390 18.131672
72.395 18.405432
72.400 18.308857
72.405 18.685892
72.410 18.524477
72.415 17.874317
72.420 17.61458
72.425 17.646786
72.430 17.27071
72.435 17.018976
72.440 17.379446
72.445 17.427647
72.450 17.669508
72.455 17.80159
72.460 17.927437
72.465 18.450672
72.470 18.33095
72.475 17.363726
72.480 17.176353
72.485 17.356445
72.490 17.16091
72.495 17.058615
72.500 17.082247
72.505 16.98951
72.510 16.688509
72.515 16.325085
72.520 16.419563
72.525 16.31019
72.530 16.851925
72.535 17.014044
72.540 17.512505
72.545 17.979448
72.550 18.315983
72.555 18.91094
72.560 19.500038
72.565 19.239645
72.570 19.15947
72.575 19.203051
72.580 19.69725
72.585 19.991034
72.590 19.640575
72.595 19.554874
72.600 19.67799
72.605 19.562407
72.610 19.226295
72.615 18.562862
72.620 17.980017
72.625 17.907497
72.630 17.437227
72.635 16.864292
72.640 17.251961
72.645 17.253904
72.650 17.056309
72.655 16.491554
72.660 15.994434
72.665 16.062206
72.670 15.925703
72.675 15.711864
72.680 15.643826
72.685 15.801588
72.690 16.558985
72.695 17.092934
72.700 17.521416
72.705 17.70505
72.710 17.69696
72.715 17.61994
72.720 17.687284
72.725 17.140232
72.730 17.012987
72.735 16.740681
72.740 16.267714
72.745 16.53927
72.750 16.404459
72.755 16.390411
72.760 15.897726
72.765 15.758847
72.770 16.201868
72.775 16.046673
72.780 15.855962
72.785 16.288765
72.790 17.000216
72.795 17.330719
72.800 17.324709
72.805 16.72802
72.810 17.027145
72.815 17.343361
72.820 17.377613
72.825 17.322365
72.830 17.369152
72.835 17.362986
72.840 17.940748
72.845 18.017368
72.850 17.505438
72.855 16.954411
72.860 16.728436
72.865 16.534401
72.870 16.723612
72.875 16.649076
72.880 16.842804
72.885 17.588179
72.890 17.796114
72.895 18.253813
72.900 18.19202
72.905 18.469145
72.910 18.542658
72.915 17.798773
72.920 17.547617
72.925 17.689365
72.930 17.46225
72.935 17.368109
72.940 17.024776
72.945 17.243359
72.950 17.365698
72.955 17.784817
72.960 17.976154
72.965 17.917336
72.970 17.486103
72.975 17.08107
72.980 16.708931
72.985 16.789169
72.990 16.245802
72.995 16.322964
73.000 16.750305
