!@!!GADDS PLOTSO FILE: Chi integration type
!@!!Title/SampleName: map-b7
!@!!Comment: ?
!@!!User: Bruker Instrument Administrator
!@!!Site: University of Illinois Chicago
!@!!Frame: map-b7_01_000.gfrm
!@!!Wavelengths    1.54184   1.54056   1.54439
!@!!Frame angles: 2Theta: 63.000 Omega: 50.000 Phi: 0.000 Chi: 90.000
!@!!Integration range: 2Theta: 53.000 to 73.000  Gamma: -105.000 to -75.000
!@!!Integration method: bin normalized
!@!N
!@!SS
!@!M
!@!L 0.0 0.0 0.0 0.0
!@!XDegrees
!@!YCounts
53.000 8.756872
53.005 8.524137
53.010 8.147945
53.015 7.787308
53.020 7.324547
53.025 7.137487
53.030 7.157455
53.035 7.427193
53.040 7.900145
53.045 7.874089
53.050 8.004046
53.055 7.694548
53.060 7.738355
53.065 7.775892
53.070 7.388458
53.075 7.118253
53.080 7.712714
53.085 7.964927
53.090 8.225657
53.095 8.589702
53.100 9.141737
53.105 9.42198
53.110 9.241838
53.115 8.7173
53.120 8.402245
53.125 8.290069
53.130 8.129618
53.135 7.602611
53.140 7.421764
53.145 7.739439
53.150 7.935073
53.155 7.837301
53.160 7.82355
53.165 8.347801
53.170 8.712928
53.175 8.5981
53.180 8.327723
53.185 8.637797
53.190 8.945292
53.195 8.885402
53.200 8.512489
53.205 8.795288
53.210 9.244323
53.215 9.274409
53.220 9.048116
53.225 8.757164
53.230 8.771516
53.235 9.13045
53.240 8.791264
53.245 8.683099
53.250 8.567886
53.255 8.788604
53.260 8.629476
53.265 8.392418
53.270 8.302052
53.275 8.474399
53.280 8.391021
53.285 8.509568
53.290 9.087503
53.295 9.505591
53.300 9.036095
53.305 8.839389
53.310 8.608226
53.315 8.605061
53.320 8.436399
53.325 8.06385
53.330 8.133654
53.335 8.197059
53.340 8.261555
53.345 8.323454
53.350 8.427892
53.355 8.495078
53.360 8.496304
53.365 8.312431
53.370 8.201522
53.375 8.097429
53.380 8.129634
53.385 8.029479
53.390 7.841817
53.395 7.67249
53.400 7.682559
53.405 7.694094
53.410 7.940642
53.415 8.148411
53.420 7.969622
53.425 8.170323
53.430 8.202965
53.435 8.728964
53.440 8.52733
53.445 8.447363
53.450 8.221231
53.455 8.512672
53.460 8.542713
53.465 8.365406
53.470 8.268796
53.475 8.273565
53.480 8.131263
53.485 7.956256
53.490 7.60607
53.495 7.634945
53.500 7.789388
53.505 7.860426
53.510 8.022196
53.515 8.394831
53.520 8.892459
53.525 9.040371
53.530 9.393751
53.535 9.839386
53.540 10.177493
53.545 10.266223
53.550 10.115595
53.555 10.485586
53.560 10.419602
53.565 9.829551
53.570 9.687095
53.575 9.551029
53.580 9.132058
53.585 9.00306
53.590 8.737547
53.595 8.756606
53.600 9.050817
53.605 8.906675
53.610 9.06073
53.615 9.072958
53.620 9.060172
53.625 8.957091
53.630 8.936119
53.635 8.70331
53.640 8.179002
53.645 8.289162
53.650 7.926982
53.655 7.678905
53.660 7.889769
53.665 8.164928
53.670 8.163651
53.675 8.443126
53.680 8.647202
53.685 9.073484
53.690 8.861564
53.695 8.729123
53.700 9.070875
53.705 9.087131
53.710 8.974622
53.715 8.804411
53.720 8.812671
53.725 8.974486
53.730 8.917948
53.735 8.655094
53.740 8.792043
53.745 8.725568
53.750 8.90661
53.755 9.052457
53.760 9.268012
53.765 8.930611
53.770 8.486582
53.775 8.311631
53.780 8.359413
53.785 8.784287
53.790 9.019865
53.795 8.781493
53.800 9.268983
53.805 9.471513
53.810 9.421095
53.815 9.198112
53.820 8.920043
53.825 9.268311
53.830 9.457627
53.835 9.260068
53.840 9.944834
53.845 10.599937
53.850 10.188011
53.855 10.000477
53.860 9.661098
53.865 9.543079
53.870 9.429863
53.875 9.051414
53.880 9.249496
53.885 9.596341
53.890 9.130773
53.895 8.965231
53.900 9.069089
53.905 9.28032
53.910 8.674273
53.915 8.399218
53.920 8.34831
53.925 8.627748
53.930 8.798024
53.935 8.631445
53.940 8.802854
53.945 8.793875
53.950 8.624792
53.955 8.867687
53.960 8.777961
53.965 8.512618
53.970 8.119663
53.975 7.813131
53.980 7.629169
53.985 7.382762
53.990 7.091691
53.995 7.23839
54.000 7.876728
54.005 8.055593
54.010 8.449947
54.015 9.050232
54.020 9.228593
54.025 9.220949
54.030 9.121016
54.035 9.368484
54.040 9.690744
54.045 9.583413
54.050 9.625516
54.055 9.937684
54.060 10.116913
54.065 9.602637
54.070 9.188653
54.075 9.000182
54.080 8.841737
54.085 8.734715
54.090 8.547548
54.095 8.572907
54.100 8.817666
54.105 8.945024
54.110 8.991523
54.115 8.795583
54.120 8.590401
54.125 8.621124
54.130 8.682825
54.135 8.785372
54.140 8.650563
54.145 8.70085
54.150 8.748038
54.155 8.857071
54.160 9.409742
54.165 9.944506
54.170 10.452743
54.175 10.507065
54.180 10.664763
54.185 10.729124
54.190 10.438265
54.195 10.234729
54.200 9.867756
54.205 9.54714
54.210 9.690786
54.215 9.877326
54.220 10.31399
54.225 10.691503
54.230 10.730951
54.235 11.061613
54.240 11.42788
54.245 11.348617
54.250 11.445315
54.255 10.91791
54.260 10.493825
54.265 9.985321
54.270 9.674452
54.275 9.327818
54.280 9.250146
54.285 8.842799
54.290 9.112297
54.295 9.68092
54.300 10.077524
54.305 9.93705
54.310 10.020406
54.315 9.868441
54.320 10.164839
54.325 10.50654
54.330 10.259013
54.335 9.730847
54.340 10.245859
54.345 10.338054
54.350 10.49088
54.355 10.699945
54.360 10.52234
54.365 10.800061
54.370 11.159547
54.375 11.388082
54.380 11.497351
54.385 11.659039
54.390 10.994606
54.395 10.816698
54.400 10.659542
54.405 10.024002
54.410 9.430778
54.415 9.513738
54.420 9.724077
54.425 10.473661
54.430 10.41236
54.435 9.981945
54.440 10.220922
54.445 10.493511
54.450 10.565909
54.455 10.149544
54.460 9.381212
54.465 9.08877
54.470 9.366131
54.475 9.429238
54.480 9.407597
54.485 9.273889
54.490 9.74507
54.495 10.120062
54.500 10.35963
54.505 9.982916
54.510 9.644935
54.515 9.455861
54.520 9.104644
54.525 8.596296
54.530 8.651891
54.535 8.779448
54.540 9.006995
54.545 9.133107
54.550 9.229359
54.555 9.407822
54.560 9.622579
54.565 9.467158
54.570 9.899408
54.575 10.20696
54.580 10.495558
54.585 10.544574
54.590 10.623129
54.595 10.647284
54.600 10.75295
54.605 10.037045
54.610 10.066517
54.615 10.074426
54.620 10.303243
54.625 10.240783
54.630 10.152141
54.635 9.872466
54.640 10.028897
54.645 9.91402
54.650 9.320999
54.655 9.212511
54.660 9.673844
54.665 9.529343
54.670 9.840068
54.675 9.964218
54.680 10.130556
54.685 10.457834
54.690 10.389036
54.695 10.163415
54.700 10.483716
54.705 10.506912
54.710 10.292534
54.715 9.973121
54.720 9.735164
54.725 9.633005
54.730 9.350162
54.735 9.027328
54.740 9.220831
54.745 9.169687
54.750 9.411079
54.755 9.598287
54.760 9.662515
54.765 9.736028
54.770 9.648477
54.775 9.620467
54.780 9.719748
54.785 9.816916
54.790 9.880922
54.795 9.969225
54.800 10.723892
54.805 11.402078
54.810 11.405972
54.815 11.657729
54.820 11.55266
54.825 11.585954
54.830 11.526737
54.835 11.067076
54.840 10.748675
54.845 10.655258
54.850 10.462605
54.855 10.51406
54.860 10.544065
54.865 10.415517
54.870 10.068122
54.875 10.144312
54.880 10.46352
54.885 10.196457
54.890 9.861115
54.895 9.790495
54.900 9.959619
54.905 10.130747
54.910 9.893563
54.915 9.597277
54.920 9.961853
54.925 10.268599
54.930 10.283412
54.935 10.142503
54.940 10.470478
54.945 10.862628
54.950 11.265815
54.955 10.983473
54.960 10.924134
54.965 11.258893
54.970 10.918376
54.975 10.238959
54.980 10.033556
54.985 9.74883
54.990 9.621509
54.995 9.438662
55.000 9.240004
55.005 9.538863
55.010 9.696331
55.015 9.379543
55.020 9.978006
55.025 10.115806
55.030 10.260077
55.035 10.071572
55.040 10.141556
55.045 10.173832
55.050 10.366803
55.055 10.68154
55.060 10.961988
55.065 10.698557
55.070 10.60257
55.075 10.408569
55.080 10.251752
55.085 9.808922
55.090 8.948966
55.095 8.689262
55.100 9.060733
55.105 9.751357
55.110 10.063695
55.115 10.405519
55.120 10.750881
55.125 11.255723
55.130 11.589543
55.135 11.638859
55.140 11.539102
55.145 11.530602
55.150 11.156212
55.155 10.747166
55.160 10.42752
55.165 10.204538
55.170 9.517473
55.175 9.445755
55.180 9.458897
55.185 9.399433
55.190 9.784576
55.195 9.794543
55.200 9.96441
55.205 10.425064
55.210 10.638597
55.215 11.355977
55.220 11.714261
55.225 11.770933
55.230 11.539639
55.235 11.264715
55.240 11.136754
55.245 10.961622
55.250 10.884764
55.255 11.123275
55.260 10.922066
55.265 10.890117
55.270 10.702714
55.275 10.382826
55.280 9.656952
55.285 8.890324
55.290 8.497838
55.295 8.361836
55.300 8.496489
55.305 8.647182
55.310 8.938084
55.315 9.549343
55.320 10.386605
55.325 10.666587
55.330 10.843817
55.335 11.449961
55.340 11.758174
55.345 11.370346
55.350 10.719608
55.355 10.38919
55.360 10.722052
55.365 10.668526
55.370 10.276443
55.375 10.366651
55.380 10.758083
55.385 10.792147
55.390 10.573792
55.395 10.320748
55.400 10.549505
55.405 10.587228
55.410 10.422466
55.415 10.351324
55.420 10.273524
55.425 10.037617
55.430 10.059291
55.435 10.011421
55.440 10.167495
55.445 10.081229
55.450 10.410936
55.455 10.783059
55.460 11.312168
55.465 11.145748
55.470 10.681888
55.475 10.832042
55.480 10.88356
55.485 10.443665
55.490 10.161918
55.495 10.301389
55.500 10.907679
55.505 11.30769
55.510 10.84877
55.515 10.871374
55.520 11.103639
55.525 10.851527
55.530 10.361758
55.535 10.289687
55.540 10.496055
55.545 11.212364
55.550 11.537572
55.555 11.880197
55.560 12.375296
55.565 12.483297
55.570 12.124394
55.575 11.508984
55.580 11.18708
55.585 10.588017
55.590 9.855391
55.595 9.522711
55.600 8.853387
55.605 8.91115
55.610 8.760128
55.615 8.754371
55.620 9.277178
55.625 9.61797
55.630 9.768554
55.635 10.135838
55.640 10.500356
55.645 11.021351
55.650 10.854353
55.655 10.966898
55.660 11.040558
55.665 11.023986
55.670 11.122366
55.675 11.042103
55.680 10.544091
55.685 10.710617
55.690 10.608698
55.695 11.026566
55.700 11.430234
55.705 11.347886
55.710 11.200191
55.715 11.566518
55.720 11.184156
55.725 10.791127
55.730 10.341767
55.735 10.848276
55.740 10.845183
55.745 10.991243
55.750 10.70219
55.755 10.727946
55.760 11.348574
55.765 11.299316
55.770 10.74829
55.775 11.037493
55.780 11.068037
55.785 11.311783
55.790 11.257444
55.795 10.450038
55.800 10.714455
55.805 10.497139
55.810 10.230237
55.815 10.50185
55.820 10.434331
55.825 10.669453
55.830 11.34321
55.835 11.459962
55.840 12.474024
55.845 12.506485
55.850 12.238744
55.855 12.37747
55.860 12.485651
55.865 11.971798
55.870 11.386112
55.875 10.635186
55.880 10.497785
55.885 10.710788
55.890 10.655854
55.895 10.573582
55.900 10.716374
55.905 10.889217
55.910 11.077229
55.915 11.113205
55.920 10.897795
55.925 10.614172
55.930 10.91343
55.935 11.391151
55.940 11.715686
55.945 12.098343
55.950 12.896272
55.955 13.260607
55.960 13.229786
55.965 12.889978
55.970 12.487256
55.975 12.653304
55.980 11.803252
55.985 10.948191
55.990 10.935842
55.995 11.252852
56.000 11.28583
56.005 11.075466
56.010 10.263143
56.015 10.44114
56.020 10.911992
56.025 10.866698
56.030 10.592392
56.035 10.381323
56.040 10.332468
56.045 10.535975
56.050 10.072463
56.055 9.372585
56.060 9.270902
56.065 9.49718
56.070 9.641994
56.075 9.656658
56.080 9.862717
56.085 10.376343
56.090 10.857264
56.095 10.83702
56.100 10.94095
56.105 11.454868
56.110 11.422076
56.115 11.41555
56.120 11.284678
56.125 10.92648
56.130 10.983223
56.135 10.844368
56.140 10.561319
56.145 10.59323
56.150 11.200603
56.155 11.113719
56.160 11.24241
56.165 11.243268
56.170 11.112952
56.175 11.173321
56.180 10.740486
56.185 10.084977
56.190 10.305922
56.195 10.840945
56.200 11.382083
56.205 11.701005
56.210 11.882323
56.215 12.436181
56.220 13.003772
56.225 13.024735
56.230 12.97916
56.235 12.957773
56.240 12.796852
56.245 12.825629
56.250 12.522875
56.255 12.193865
56.260 12.089694
56.265 11.989429
56.270 11.591433
56.275 11.217426
56.280 11.346152
56.285 11.580962
56.290 11.566988
56.295 11.360743
56.300 10.937028
56.305 11.284683
56.310 11.944115
56.315 12.410036
56.320 12.489531
56.325 12.895829
56.330 13.322015
56.335 13.204676
56.340 12.964185
56.345 12.537642
56.350 12.320413
56.355 12.495492
56.360 12.510445
56.365 12.859744
56.370 13.188755
56.375 13.017418
56.380 12.942431
56.385 12.722581
56.390 12.535233
56.395 12.373247
56.400 12.297123
56.405 12.699022
56.410 12.788105
56.415 12.630197
56.420 12.27294
56.425 11.576914
56.430 10.949203
56.435 10.258707
56.440 9.957226
56.445 10.142035
56.450 10.260024
56.455 10.082305
56.460 10.517658
56.465 11.191679
56.470 11.626062
56.475 11.350403
56.480 11.120338
56.485 10.923725
56.490 11.602283
56.495 12.11833
56.500 11.636597
56.505 11.161692
56.510 11.626667
56.515 12.010415
56.520 12.303827
56.525 11.814669
56.530 11.177946
56.535 11.37075
56.540 11.557343
56.545 11.158628
56.550 11.157029
56.555 11.20981
56.560 11.890325
56.565 12.768154
56.570 13.456377
56.575 13.435472
56.580 13.400448
56.585 13.516135
56.590 13.29146
56.595 12.832446
56.600 12.293012
56.605 11.914677
56.610 12.205119
56.615 12.670082
56.620 12.72908
56.625 12.686949
56.630 12.672089
56.635 12.494834
56.640 12.334632
56.645 12.081513
56.650 11.57855
56.655 11.194956
56.660 11.677559
56.665 11.832787
56.670 12.226892
56.675 12.162453
56.680 12.205366
56.685 12.422566
56.690 12.990531
56.695 12.879963
56.700 12.907509
56.705 12.849474
56.710 12.769814
56.715 12.797747
56.720 12.922155
56.725 12.54326
56.730 11.992077
56.735 12.051342
56.740 12.160931
56.745 12.09462
56.750 12.264643
56.755 12.032779
56.760 12.206441
56.765 12.639162
56.770 12.777056
56.775 12.973
56.780 13.01624
56.785 13.020689
56.790 12.787162
56.795 12.461976
56.800 12.423946
56.805 12.006784
56.810 11.544304
56.815 11.689353
56.820 11.832125
56.825 11.943956
56.830 12.241162
56.835 12.216715
56.840 12.255141
56.845 12.754935
56.850 12.239684
56.855 12.029647
56.860 12.206759
56.865 12.008611
56.870 11.866446
56.875 11.732844
56.880 11.648533
56.885 12.233306
56.890 12.297774
56.895 12.620083
56.900 12.594463
56.905 12.500532
56.910 12.406461
56.915 12.666616
56.920 12.651546
56.925 12.232436
56.930 11.680202
56.935 11.845799
56.940 11.966571
56.945 11.976797
56.950 11.887812
56.955 12.207552
56.960 12.530458
56.965 12.627915
56.970 12.822966
56.975 13.25923
56.980 13.362544
56.985 12.848932
56.990 12.793018
56.995 12.827891
57.000 13.30511
57.005 13.636579
57.010 13.777495
57.015 14.013731
57.020 14.153933
57.025 14.048316
57.030 13.544668
57.035 13.75177
57.040 13.429044
57.045 13.178742
57.050 13.289671
57.055 13.528936
57.060 13.771328
57.065 14.246996
57.070 13.953691
57.075 13.842708
57.080 13.519527
57.085 13.213784
57.090 12.899707
57.095 12.535284
57.100 12.384638
57.105 12.007153
57.110 11.913258
57.115 12.002521
57.120 12.001942
57.125 12.11708
57.130 12.426041
57.135 12.360758
57.140 12.893881
57.145 12.768911
57.150 12.616466
57.155 12.559587
57.160 12.471985
57.165 12.445099
57.170 12.426796
57.175 12.752157
57.180 13.549746
57.185 13.536109
57.190 13.53898
57.195 13.515558
57.200 13.617919
57.205 13.807173
57.210 13.558495
57.215 13.087991
57.220 12.970675
57.225 12.907247
57.230 13.048661
57.235 12.86767
57.240 12.490651
57.245 12.80611
57.250 13.3198
57.255 13.294584
57.260 13.171497
57.265 13.00163
57.270 12.847144
57.275 12.663817
57.280 12.386381
57.285 12.34343
57.290 12.697925
57.295 13.211869
57.300 13.245374
57.305 13.915311
57.310 14.281165
57.315 14.0702
57.320 14.04418
57.325 13.769962
57.330 13.656413
57.335 13.914927
57.340 13.509133
57.345 13.093342
57.350 12.791694
57.355 12.513956
57.360 12.579947
57.365 12.605264
57.370 12.425162
57.375 12.620853
57.380 12.546731
57.385 12.414804
57.390 12.91065
57.395 13.109668
57.400 12.79672
57.405 12.356161
57.410 12.349401
57.415 13.124166
57.420 13.561378
57.425 13.35887
57.430 13.06795
57.435 13.403881
57.440 13.821714
57.445 13.598414
57.450 12.856983
57.455 12.588935
57.460 12.441793
57.465 12.439331
57.470 12.583118
57.475 12.838017
57.480 12.876692
57.485 13.465855
57.490 13.467721
57.495 13.214906
57.500 13.49935
57.505 13.29587
57.510 13.041979
57.515 12.970658
57.520 12.644543
57.525 13.231948
57.530 13.252771
57.535 12.794328
57.540 12.513003
57.545 12.739595
57.550 12.776236
57.555 13.209503
57.560 13.209494
57.565 13.916142
57.570 14.373238
57.575 14.460159
57.580 14.337882
57.585 14.412242
57.590 14.205431
57.595 14.199165
57.600 13.689885
57.605 13.490622
57.610 13.425585
57.615 13.641742
57.620 13.610995
57.625 13.625174
57.630 13.82972
57.635 13.574852
57.640 13.691484
57.645 13.714534
57.650 13.971525
57.655 13.961585
57.660 13.950531
57.665 13.853967
57.670 14.187621
57.675 14.498415
57.680 14.462787
57.685 14.311986
57.690 14.753394
57.695 14.577705
57.700 14.421136
57.705 14.12008
57.710 13.599986
57.715 13.880867
57.720 13.334238
57.725 12.84884
57.730 12.74299
57.735 12.527573
57.740 13.191646
57.745 13.572406
57.750 14.038818
57.755 14.597218
57.760 14.679214
57.765 15.15657
57.770 15.675597
57.775 15.397329
57.780 15.334389
57.785 15.201861
57.790 15.219244
57.795 14.924909
57.800 14.973887
57.805 15.253793
57.810 15.589889
57.815 15.51851
57.820 15.041091
57.825 14.839402
57.830 15.66348
57.835 16.311028
57.840 16.184065
57.845 15.588497
57.850 15.700522
57.855 15.832164
57.860 16.076302
57.865 15.535816
57.870 14.987392
57.875 15.163524
57.880 15.328179
57.885 14.725732
57.890 14.526394
57.895 14.591244
57.900 15.000218
57.905 14.686179
57.910 14.981931
57.915 15.672009
57.920 16.483866
57.925 17.056684
57.930 16.434021
57.935 16.043102
57.940 16.441053
57.945 15.986685
57.950 15.505902
57.955 14.91418
57.960 14.196203
57.965 14.750715
57.970 14.260724
57.975 13.993332
57.980 14.000509
57.985 14.351302
57.990 14.809126
57.995 14.952512
58.000 14.38748
58.005 14.890612
58.010 14.980345
58.015 15.102595
58.020 15.178783
58.025 15.121445
58.030 15.289835
58.035 15.988838
58.040 15.90002
58.045 15.997292
58.050 16.575304
58.055 16.837763
58.060 16.594923
58.065 16.653488
58.070 16.618742
58.075 17.09351
58.080 17.204296
58.085 16.596222
58.090 16.157337
58.095 16.032858
58.100 16.101265
58.105 16.067846
58.110 15.703155
58.115 15.326342
58.120 14.780025
58.125 14.797669
58.130 15.08325
58.135 15.341013
58.140 15.206717
58.145 14.964677
58.150 14.988172
58.155 15.472721
58.160 15.693777
58.165 15.867181
58.170 15.410306
58.175 15.477445
58.180 15.635883
58.185 15.661289
58.190 15.843549
58.195 16.291721
58.200 16.155148
58.205 17.300112
58.210 17.506935
58.215 17.40626
58.220 17.651175
58.225 17.426678
58.230 17.105583
58.235 17.023771
58.240 16.298759
58.245 16.108257
58.250 16.424442
58.255 16.751225
58.260 16.98411
58.265 17.275909
58.270 17.380699
58.275 17.26796
58.280 17.641624
58.285 17.464096
58.290 17.408073
58.295 17.392231
58.300 17.401731
58.305 18.218576
58.310 19.304296
58.315 19.49304
58.320 19.745075
58.325 19.757551
58.330 20.002071
58.335 20.287918
58.340 19.996586
58.345 19.555012
58.350 19.812845
58.355 20.608982
58.360 20.930353
58.365 21.203812
58.370 20.885159
58.375 20.627007
58.380 20.583544
58.385 20.753294
58.390 20.29698
58.395 20.184589
58.400 20.291931
58.405 20.630693
58.410 20.606892
58.415 21.47183
58.420 22.182913
58.425 22.654055
58.430 23.395647
58.435 23.15406
58.440 23.484066
58.445 24.327002
58.450 24.316811
58.455 24.944599
58.460 25.443602
58.465 25.181957
58.470 26.395727
58.475 27.063635
58.480 27.410931
58.485 27.850773
58.490 27.74543
58.495 27.931665
58.500 28.189451
58.505 27.446821
58.510 26.83111
58.515 26.65819
58.520 26.523975
58.525 27.164255
58.530 27.42008
58.535 27.848633
58.540 28.416239
58.545 29.102245
58.550 29.479589
58.555 29.63718
58.560 29.590845
58.565 30.227901
58.570 31.03614
58.575 31.471405
58.580 31.279129
58.585 31.24243
58.590 31.806513
58.595 32.411514
58.600 32.513985
58.605 32.292416
58.610 32.298573
58.615 32.607689
58.620 32.79105
58.625 33.424797
58.630 34.113758
58.635 34.603897
58.640 34.869564
58.645 35.006119
58.650 34.956902
58.655 34.93047
58.660 33.6478
58.665 31.69688
58.670 30.36742
58.675 29.392853
58.680 29.525331
58.685 30.044937
58.690 30.724457
58.695 31.618626
58.700 32.50164
58.705 33.174515
58.710 33.342083
58.715 33.267796
58.720 32.308113
58.725 31.614798
58.730 30.764894
58.735 30.069069
58.740 29.576685
58.745 30.035509
58.750 29.389526
58.755 28.99876
58.760 27.787811
58.765 26.440523
58.770 25.962049
58.775 25.646429
58.780 25.229223
58.785 24.768206
58.790 23.898903
58.795 24.212524
58.800 24.17045
58.805 24.052006
58.810 23.32943
58.815 22.358788
58.820 22.142605
58.825 22.71661
58.830 22.376648
58.835 21.633141
58.840 21.854361
58.845 21.954046
58.850 22.2159
58.855 22.215788
58.860 21.460295
58.865 21.572596
58.870 22.791721
58.875 22.287271
58.880 22.157476
58.885 21.914291
58.890 22.155506
58.895 22.184469
58.900 21.640131
58.905 20.579136
58.910 20.517712
58.915 20.215828
58.920 19.998318
58.925 19.464815
58.930 19.567888
58.935 20.45549
58.940 20.493984
58.945 20.132221
58.950 19.918495
58.955 19.667479
58.960 19.881927
58.965 19.597818
58.970 18.723688
58.975 18.421543
58.980 18.960779
58.985 18.464251
58.990 18.296824
58.995 18.223837
59.000 18.137756
59.005 18.076494
59.010 18.005507
59.015 17.283566
59.020 17.369724
59.025 16.945621
59.030 16.380339
59.035 15.913704
59.040 16.152224
59.045 16.286304
59.050 16.313932
59.055 16.029036
59.060 16.26844
59.065 16.745525
59.070 17.130051
59.075 16.530355
59.080 16.26442
59.085 16.746166
59.090 16.931625
59.095 17.364847
59.100 17.132061
59.105 16.975149
59.110 16.645775
59.115 16.406448
59.120 16.309874
59.125 16.856491
59.130 16.659653
59.135 16.636629
59.140 16.437799
59.145 16.554596
59.150 16.928791
59.155 16.706112
59.160 16.3004
59.165 16.114025
59.170 16.328442
59.175 16.627382
59.180 16.918396
59.185 16.134251
59.190 15.896214
59.195 15.548461
59.200 15.396642
59.205 15.249996
59.210 15.465543
59.215 15.393327
59.220 15.682171
59.225 15.567405
59.230 15.494171
59.235 15.416127
59.240 15.133643
59.245 14.703508
59.250 14.408037
59.255 14.975555
59.260 15.057311
59.265 14.933947
59.270 14.77951
59.275 14.922827
59.280 15.226891
59.285 15.240814
59.290 15.395595
59.295 16.07753
59.300 16.736984
59.305 17.065802
59.310 16.911247
59.315 16.454245
59.320 16.19982
59.325 15.577659
59.330 15.429254
59.335 14.96356
59.340 14.946334
59.345 14.87064
59.350 14.859914
59.355 15.131017
59.360 15.265251
59.365 15.038875
59.370 15.234674
59.375 15.528356
59.380 15.762782
59.385 16.271008
59.390 16.442869
59.395 16.501577
59.400 16.847853
59.405 16.705976
59.410 16.361103
59.415 16.299328
59.420 15.930239
59.425 15.322053
59.430 14.976449
59.435 14.605959
59.440 14.737147
59.445 14.571223
59.450 14.381128
59.455 14.184882
59.460 13.904193
59.465 13.715962
59.470 13.92278
59.475 13.498905
59.480 13.482525
59.485 13.449409
59.490 13.081656
59.495 13.31568
59.500 13.149674
59.505 13.236047
59.510 13.496856
59.515 13.652574
59.520 14.307841
59.525 14.74045
59.530 14.756913
59.535 14.901658
59.540 14.780801
59.545 14.946615
59.550 14.819485
59.555 14.613082
59.560 14.033996
59.565 13.805748
59.570 13.827121
59.575 14.079851
59.580 14.385843
59.585 14.687898
59.590 14.455801
59.595 15.146019
59.600 16.118805
59.605 16.474764
59.610 15.995564
59.615 16.129322
59.620 16.080448
59.625 16.254438
59.630 16.408449
59.635 16.178043
59.640 15.969934
59.645 15.869679
59.650 15.619534
59.655 15.28326
59.660 15.131474
59.665 15.205385
59.670 15.048832
59.675 15.122227
59.680 14.917694
59.685 15.055122
59.690 15.754795
59.695 15.912653
59.700 15.781857
59.705 15.320372
59.710 15.388035
59.715 15.357873
59.720 14.606692
59.725 14.221286
59.730 14.200455
59.735 13.829627
59.740 14.068291
59.745 14.181175
59.750 15.085682
59.755 15.374753
59.760 15.741175
59.765 16.111866
59.770 16.508873
59.775 16.47683
59.780 15.806108
59.785 15.080044
59.790 14.878591
59.795 14.59512
59.800 13.809619
59.805 13.22215
59.810 13.573135
59.815 13.559701
59.820 13.235567
59.825 13.260293
59.830 13.201088
59.835 13.493155
59.840 13.596979
59.845 13.361148
59.850 13.173229
59.855 13.324373
59.860 13.297099
59.865 12.657209
59.870 12.319649
59.875 12.879465
59.880 13.035342
59.885 13.552567
59.890 14.036913
59.895 14.044356
59.900 14.582033
59.905 14.214808
59.910 13.198649
59.915 12.787864
59.920 12.176944
59.925 12.08259
59.930 12.178638
59.935 12.176329
59.940 12.625662
59.945 13.333576
59.950 14.103763
59.955 14.641794
59.960 14.66361
59.965 14.776985
59.970 15.16496
59.975 15.306295
59.980 15.469083
59.985 15.268032
59.990 15.269848
59.995 16.185946
60.000 15.97613
60.005 15.832476
60.010 15.831962
60.015 15.397181
60.020 15.342713
60.025 14.849608
60.030 14.121945
60.035 14.154156
60.040 14.259141
60.045 14.269081
60.050 14.3676
60.055 14.234704
60.060 14.270694
60.065 14.189245
60.070 14.202487
60.075 13.799921
60.080 13.77546
60.085 13.807648
60.090 14.022738
60.095 14.419768
60.100 14.255267
60.105 14.780852
60.110 14.799729
60.115 14.319528
60.120 14.730252
60.125 14.834188
60.130 15.049526
60.135 15.619677
60.140 15.393808
60.145 15.707076
60.150 16.033501
60.155 16.153236
60.160 16.020782
60.165 15.887033
60.170 15.455114
60.175 15.263407
60.180 15.436443
60.185 15.555647
60.190 15.452202
60.195 15.020183
60.200 14.482647
60.205 14.513814
60.210 14.844378
60.215 15.052087
60.220 14.860608
60.225 14.969143
60.230 15.324451
60.235 15.8346
60.240 15.718511
60.245 15.187712
60.250 14.948971
60.255 14.928796
60.260 14.437327
60.265 14.032573
60.270 13.800736
60.275 13.349766
60.280 13.328741
60.285 13.471278
60.290 13.986515
60.295 14.21917
60.300 14.052107
60.305 14.163815
60.310 14.799889
60.315 14.620589
60.320 14.454089
60.325 14.334498
60.330 14.794795
60.335 14.824804
60.340 14.83105
60.345 14.747598
60.350 15.029775
60.355 15.307414
60.360 15.089759
60.365 14.640735
60.370 14.727653
60.375 14.624942
60.380 14.915793
60.385 14.891956
60.390 14.247634
60.395 14.413909
60.400 14.714615
60.405 15.264929
60.410 15.263851
60.415 15.020554
60.420 15.185174
60.425 15.562803
60.430 15.365513
60.435 15.186261
60.440 15.070548
60.445 15.545359
60.450 15.643657
60.455 15.533988
60.460 15.498423
60.465 15.472957
60.470 15.195128
60.475 15.028749
60.480 14.78642
60.485 14.840545
60.490 14.293973
60.495 13.927557
60.500 13.85504
60.505 14.314059
60.510 14.315661
60.515 14.090669
60.520 13.763218
60.525 14.203144
60.530 14.394348
60.535 14.415282
60.540 14.325076
60.545 15.148767
60.550 15.81743
60.555 16.617064
60.560 16.891256
60.565 17.056101
60.570 17.083319
60.575 16.622324
60.580 15.644753
60.585 15.281452
60.590 15.187756
60.595 15.246499
60.600 15.440306
60.605 16.186535
60.610 16.474379
60.615 16.849316
60.620 16.955276
60.625 16.842218
60.630 16.199253
60.635 15.745697
60.640 15.419185
60.645 15.972681
60.650 15.708218
60.655 15.633179
60.660 15.424108
60.665 15.013098
60.670 14.651772
60.675 14.096707
60.680 13.855641
60.685 13.90047
60.690 13.548863
60.695 13.678849
60.700 14.480763
60.705 14.840744
60.710 15.212765
60.715 15.056017
60.720 15.040624
60.725 15.321935
60.730 15.000009
60.735 14.523218
60.740 14.424312
60.745 14.292199
60.750 14.477371
60.755 14.349735
60.760 14.613639
60.765 15.365622
60.770 15.811896
60.775 16.130655
60.780 15.937
60.785 16.151886
60.790 16.083351
60.795 15.42823
60.800 15.362545
60.805 15.603057
60.810 15.887165
60.815 16.485903
60.820 16.526503
60.825 16.807116
60.830 17.342981
60.835 16.952583
60.840 16.532288
60.845 16.435114
60.850 16.421299
60.855 16.36047
60.860 16.619501
60.865 16.542614
60.870 16.986713
60.875 17.110491
60.880 16.973778
60.885 16.93022
60.890 16.379911
60.895 16.289232
60.900 16.242704
60.905 16.036167
60.910 15.941271
60.915 15.498131
60.920 14.857663
60.925 15.284063
60.930 15.291786
60.935 15.041187
60.940 14.609239
60.945 14.68063
60.950 14.703512
60.955 15.160986
60.960 15.281944
60.965 15.339424
60.970 15.510777
60.975 15.845218
60.980 15.934404
60.985 15.761805
60.990 15.31318
60.995 14.978127
61.000 14.75621
61.005 14.887527
61.010 14.85521
61.015 14.992582
61.020 15.137332
61.025 15.213738
61.030 15.227572
61.035 15.544391
61.040 15.509754
61.045 15.69163
61.050 15.626478
61.055 16.254911
61.060 15.662358
61.065 15.399568
61.070 15.370439
61.075 15.440881
61.080 15.19745
61.085 15.129008
61.090 15.159684
61.095 15.332899
61.100 15.178586
61.105 14.859282
61.110 14.591232
61.115 14.737469
61.120 14.494488
61.125 13.586011
61.130 14.013201
61.135 13.673786
61.140 13.414194
61.145 13.740524
61.150 13.615088
61.155 13.647036
61.160 13.996202
61.165 14.152257
61.170 14.801212
61.175 15.465018
61.180 14.959315
61.185 15.01788
61.190 15.341829
61.195 15.945742
61.200 16.097425
61.205 16.113741
61.210 15.624527
61.215 15.787169
61.220 15.406319
61.225 15.914722
61.230 16.18051
61.235 15.874225
61.240 15.706116
61.245 15.670453
61.250 15.697755
61.255 16.077663
61.260 15.450001
61.265 15.351903
61.270 15.607763
61.275 15.803965
61.280 16.024092
61.285 16.44668
61.290 16.848423
61.295 16.766506
61.300 16.331446
61.305 16.407969
61.310 16.255974
61.315 16.140907
61.320 15.692343
61.325 15.333947
61.330 15.12406
61.335 15.293494
61.340 15.061203
61.345 15.225794
61.350 15.243533
61.355 15.443676
61.360 15.214147
61.365 15.715481
61.370 15.719604
61.375 16.006472
61.380 15.867034
61.385 15.714048
61.390 15.327821
61.395 15.362411
61.400 14.811685
61.405 14.34721
61.410 14.308894
61.415 14.839696
61.420 15.772335
61.425 16.143423
61.430 16.088234
61.435 16.205784
61.440 16.144985
61.445 15.775105
61.450 14.983518
61.455 13.61663
61.460 13.130694
61.465 13.524839
61.470 13.572773
61.475 14.150143
61.480 14.490291
61.485 14.999145
61.490 15.534563
61.495 16.008512
61.500 15.770658
61.505 15.491218
61.510 15.44907
61.515 15.334043
61.520 14.806276
61.525 15.213123
61.530 15.389259
61.535 15.987338
61.540 16.638533
61.545 17.240379
61.550 17.571566
61.555 17.844868
61.560 17.693497
61.565 17.509844
61.570 16.886446
61.575 17.070087
61.580 16.485653
61.585 15.918199
61.590 15.593466
61.595 15.264065
61.600 15.635126
61.605 16.017012
61.610 16.039518
61.615 15.945043
61.620 16.359623
61.625 17.109974
61.630 17.442661
61.635 17.041817
61.640 16.927664
61.645 16.575878
61.650 16.765232
61.655 16.660883
61.660 16.399292
61.665 16.265631
61.670 16.061203
61.675 16.183237
61.680 16.90065
61.685 16.892597
61.690 17.086288
61.695 16.757349
61.700 16.776634
61.705 16.757107
61.710 16.47616
61.715 15.285879
61.720 14.955712
61.725 15.052324
61.730 15.544163
61.735 16.062695
61.740 16.320606
61.745 16.264053
61.750 16.369331
61.755 16.033575
61.760 15.364395
61.765 15.122015
61.770 15.198341
61.775 15.029052
61.780 15.093719
61.785 15.433843
61.790 16.174038
61.795 16.620825
61.800 16.588648
61.805 16.372976
61.810 16.845308
61.815 17.342281
61.820 17.328762
61.825 17.230911
61.830 17.419626
61.835 17.072025
61.840 16.68178
61.845 16.072924
61.850 15.78548
61.855 15.849984
61.860 16.134069
61.865 16.108814
61.870 16.283104
61.875 16.030203
61.880 15.95902
61.885 15.787288
61.890 15.44639
61.895 15.194807
61.900 15.368684
61.905 15.091822
61.910 15.207758
61.915 15.214705
61.920 15.106616
61.925 14.819315
61.930 14.85346
61.935 14.866362
61.940 15.724366
61.945 16.124269
61.950 16.427303
61.955 16.877775
61.960 17.031498
61.965 16.949286
61.970 16.629044
61.975 16.086119
61.980 16.30258
61.985 15.944071
61.990 15.751763
61.995 15.717847
62.000 15.732064
62.005 15.91112
62.010 15.68692
62.015 15.387859
62.020 15.683515
62.025 15.873117
62.030 15.894958
62.035 15.52367
62.040 15.468759
62.045 15.434649
62.050 15.444772
62.055 15.718565
62.060 16.127478
62.065 16.718126
62.070 17.120913
62.075 17.408407
62.080 17.920162
62.085 17.699028
62.090 17.208809
62.095 16.273813
62.100 16.23031
62.105 16.569828
62.110 16.41712
62.115 16.466011
62.120 16.34227
62.125 16.446894
62.130 17.091661
62.135 16.618242
62.140 16.166864
62.145 16.050898
62.150 15.761516
62.155 15.975017
62.160 15.945966
62.165 15.62466
62.170 15.908898
62.175 15.840909
62.180 15.84084
62.185 15.977919
62.190 16.272442
62.195 16.168882
62.200 16.232388
62.205 15.946226
62.210 16.364859
62.215 16.770727
62.220 16.788836
62.225 16.540604
62.230 16.33853
62.235 16.567171
62.240 17.001295
62.245 16.625172
62.250 15.885145
62.255 15.967459
62.260 16.005251
62.265 16.122881
62.270 15.413756
62.275 14.920136
62.280 15.255642
62.285 15.563798
62.290 15.441627
62.295 15.959785
62.300 15.755995
62.305 16.008282
62.310 15.377971
62.315 14.553766
62.320 14.614693
62.325 15.025467
62.330 14.972355
62.335 15.527666
62.340 15.633039
62.345 15.542415
62.350 15.769817
62.355 15.462781
62.360 15.147952
62.365 15.105687
62.370 15.386239
62.375 15.743794
62.380 16.373951
62.385 16.479395
62.390 16.734436
62.395 16.784817
62.400 16.746126
62.405 16.53627
62.410 16.432728
62.415 16.8591
62.420 16.928785
62.425 17.13084
62.430 17.261299
62.435 17.366861
62.440 17.309969
62.445 17.095888
62.450 16.975241
62.455 16.334621
62.460 15.63505
62.465 15.517879
62.470 14.899356
62.475 15.494412
62.480 16.419859
62.485 16.625536
62.490 17.125566
62.495 17.37558
62.500 16.913666
62.505 16.927822
62.510 16.404299
62.515 15.47174
62.520 15.262921
62.525 15.679508
62.530 15.626557
62.535 15.817019
62.540 16.065844
62.545 15.703795
62.550 15.913837
62.555 15.935525
62.560 15.867158
62.565 16.315222
62.570 16.931517
62.575 17.276007
62.580 17.070072
62.585 16.295872
62.590 15.747996
62.595 15.57764
62.600 15.459475
62.605 15.408848
62.610 15.074435
62.615 15.609729
62.620 16.251551
62.625 16.967512
62.630 17.134253
62.635 16.872269
62.640 16.705872
62.645 16.722639
62.650 16.421715
62.655 16.405506
62.660 16.286291
62.665 16.177649
62.670 15.912435
62.675 15.479864
62.680 16.06443
62.685 16.137474
62.690 15.938331
62.695 15.609958
62.700 15.916302
62.705 16.895693
62.710 17.210003
62.715 17.002705
62.720 17.736553
62.725 17.372086
62.730 18.109779
62.735 18.026083
62.740 16.872669
62.745 16.824541
62.750 16.742434
62.755 16.21801
62.760 16.699638
62.765 16.610638
62.770 16.282078
62.775 16.724932
62.780 17.165951
62.785 17.067022
62.790 17.282938
62.795 17.106424
62.800 17.017164
62.805 17.607107
62.810 17.396158
62.815 16.916952
62.820 16.684851
62.825 16.175974
62.830 16.026926
62.835 15.253739
62.840 14.865321
62.845 14.767015
62.850 14.718859
62.855 15.189034
62.860 15.366787
62.865 15.63102
62.870 15.90005
62.875 16.508276
62.880 16.999725
62.885 16.797352
62.890 16.239292
62.895 16.438917
62.900 16.859261
62.905 16.706247
62.910 16.517744
62.915 16.766542
62.920 17.282637
62.925 17.523779
62.930 17.481819
62.935 17.542601
62.940 17.709288
62.945 17.48225
62.950 17.509001
62.955 17.472837
62.960 17.278067
62.965 17.075155
62.970 17.432489
62.975 17.662594
62.980 17.584433
62.985 17.232826
62.990 17.73241
62.995 17.759649
63.000 17.667433
63.005 17.127811
63.010 17.119846
63.015 17.104959
63.020 17.054808
63.025 16.58499
63.030 16.252682
63.035 16.440144
63.040 16.431589
63.045 16.472029
63.050 16.918541
63.055 17.251755
63.060 17.29291
63.065 17.676981
63.070 17.420557
63.075 16.821299
63.080 16.771154
63.085 16.620283
63.090 16.206766
63.095 16.288687
63.100 16.081223
63.105 16.385136
63.110 16.981314
63.115 17.084328
63.120 16.991415
63.125 17.494953
63.130 17.897007
63.135 18.309557
63.140 18.369089
63.145 18.280136
63.150 18.285404
63.155 18.018734
63.160 17.110374
63.165 16.338434
63.170 16.304443
63.175 16.593655
63.180 16.175909
63.185 15.814949
63.190 15.653028
63.195 15.837802
63.200 16.616953
63.205 16.358225
63.210 15.844231
63.215 16.068092
63.220 15.951711
63.225 16.309858
63.230 17.310179
63.235 17.288057
63.240 17.103754
63.245 17.267485
63.250 16.974716
63.255 17.271738
63.260 17.129597
63.265 15.889556
63.270 15.430588
63.275 16.023052
63.280 16.207882
63.285 16.108805
63.290 16.269371
63.295 16.786974
63.300 17.141569
63.305 16.73955
63.310 16.678146
63.315 17.005579
63.320 17.11965
63.325 16.565182
63.330 16.3573
63.335 16.649817
63.340 17.087034
63.345 17.124865
63.350 16.597513
63.355 17.067308
63.360 17.591106
63.365 17.893663
63.370 18.308321
63.375 18.438215
63.380 18.058825
63.385 18.602432
63.390 18.811449
63.395 18.484825
63.400 17.959351
63.405 17.376854
63.410 17.382504
63.415 17.216223
63.420 16.533394
63.425 15.748871
63.430 16.11034
63.435 16.468372
63.440 16.321594
63.445 16.05294
63.450 16.616871
63.455 17.052689
63.460 17.771925
63.465 18.006268
63.470 18.184881
63.475 18.087101
63.480 17.93202
63.485 17.327557
63.490 17.761263
63.495 17.479336
63.500 17.193541
63.505 17.393906
63.510 18.034689
63.515 18.543663
63.520 19.195599
63.525 18.694815
63.530 18.786705
63.535 18.761305
63.540 18.190361
63.545 17.613417
63.550 17.05612
63.555 16.690781
63.560 16.68536
63.565 16.778042
63.570 16.52508
63.575 16.658895
63.580 16.923935
63.585 16.880932
63.590 16.517122
63.595 16.151451
63.600 15.550977
63.605 15.461798
63.610 15.504806
63.615 15.779924
63.620 16.511627
63.625 16.754313
63.630 16.834599
63.635 17.309065
63.640 17.632196
63.645 17.50355
63.650 17.309423
63.655 17.237238
63.660 17.551435
63.665 17.334648
63.670 17.865618
63.675 18.678598
63.680 18.90008
63.685 19.364244
63.690 19.296812
63.695 18.766481
63.700 18.748142
63.705 18.044653
63.710 17.713953
63.715 18.370687
63.720 18.43255
63.725 18.798092
63.730 19.241089
63.735 19.933556
63.740 20.538214
63.745 20.248638
63.750 19.655754
63.755 18.958918
63.760 18.385956
63.765 18.006441
63.770 16.923616
63.775 16.178736
63.780 16.915623
63.785 17.06706
63.790 16.770027
63.795 17.339634
63.800 17.802961
63.805 18.699657
63.810 19.001997
63.815 17.495087
63.820 17.19166
63.825 17.778778
63.830 17.672012
63.835 18.072529
63.840 18.096399
63.845 18.021551
63.850 18.540205
63.855 18.694773
63.860 18.964006
63.865 19.406076
63.870 19.562845
63.875 20.046192
63.880 20.350897
63.885 20.623478
63.890 20.944094
63.895 20.782125
63.900 20.230762
63.905 19.464205
63.910 19.704304
63.915 19.688488
63.920 19.440388
63.925 19.367281
63.930 20.095955
63.935 20.755875
63.940 20.973991
63.945 20.246113
63.950 20.586063
63.955 21.520624
63.960 21.951717
63.965 22.304663
63.970 22.731937
63.975 23.370359
63.980 24.131563
63.985 24.281532
63.990 23.845373
63.995 23.794901
64.000 23.556131
64.005 23.381229
64.010 24.396193
64.015 25.084679
64.020 25.735565
64.025 26.881573
64.030 26.863775
64.035 26.82044
64.040 26.583118
64.045 26.383972
64.050 26.86758
64.055 26.120178
64.060 26.068352
64.065 26.82814
64.070 26.90143
64.075 27.424393
64.080 27.532396
64.085 28.182556
64.090 28.819052
64.095 28.136187
64.100 27.507406
64.105 27.714678
64.110 27.519756
64.115 27.481228
64.120 28.026253
64.125 29.520052
64.130 30.94895
64.135 32.449135
64.140 33.4632
64.145 34.590187
64.150 35.126511
64.155 34.7342
64.160 34.226059
64.165 34.283508
64.170 34.365875
64.175 34.706165
64.180 34.806618
64.185 35.153042
64.190 35.470085
64.195 36.542873
64.200 36.667286
64.205 36.682266
64.210 36.549076
64.215 36.966202
64.220 37.562485
64.225 38.508297
64.230 38.708069
64.235 38.664471
64.240 40.000546
64.245 41.114342
64.250 41.710934
64.255 42.726959
64.260 43.00819
64.265 42.857918
64.270 43.075539
64.275 42.382496
64.280 41.947628
64.285 42.27393
64.290 41.53392
64.295 40.855904
64.300 41.210812
64.305 41.996944
64.310 42.353611
64.315 42.653244
64.320 42.523533
64.325 42.429134
64.330 42.403622
64.335 41.889965
64.340 42.461494
64.345 42.518074
64.350 42.138012
64.355 42.423592
64.360 43.816418
64.365 44.03447
64.370 44.064423
64.375 43.577419
64.380 43.694233
64.385 43.660755
64.390 42.874268
64.395 42.367794
64.400 42.55312
64.405 42.172733
64.410 41.819065
64.415 41.600327
64.420 41.246468
64.425 40.675415
64.430 38.743904
64.435 38.029949
64.440 37.947964
64.445 37.957203
64.450 37.112434
64.455 37.129566
64.460 37.396957
64.465 38.435436
64.470 38.813423
64.475 38.97382
64.480 38.739826
64.485 38.852543
64.490 38.651016
64.495 38.171482
64.500 36.722755
64.505 35.468849
64.510 34.878036
64.515 33.549278
64.520 33.162357
64.525 32.61668
64.530 32.525375
64.535 32.787971
64.540 32.31176
64.545 31.655001
64.550 32.171177
64.555 31.605072
64.560 31.089273
64.565 30.717052
64.570 29.807735
64.575 29.756466
64.580 29.376478
64.585 28.806538
64.590 28.43862
64.595 28.500851
64.600 28.011288
64.605 28.189131
64.610 27.800507
64.615 27.318325
64.620 26.68749
64.625 26.348257
64.630 26.113533
64.635 26.114204
64.640 25.417786
64.645 24.812727
64.650 24.93782
64.655 25.099979
64.660 25.202923
64.665 24.930096
64.670 24.487129
64.675 24.325974
64.680 24.111158
64.685 24.012356
64.690 23.83613
64.695 23.385799
64.700 22.930773
64.705 22.87184
64.710 23.358154
64.715 24.107786
64.720 24.351278
64.725 23.922501
64.730 23.74156
64.735 23.720341
64.740 23.452793
64.745 22.398588
64.750 20.908113
64.755 20.254866
64.760 20.77573
64.765 20.970869
64.770 20.931198
64.775 21.357319
64.780 21.483797
64.785 21.965405
64.790 22.126318
64.795 21.510477
64.800 21.753178
64.805 21.801466
64.810 22.41576
64.815 22.468277
64.820 22.561968
64.825 22.215727
64.830 22.274786
64.835 21.603827
64.840 21.307915
64.845 20.441002
64.850 20.381271
64.855 20.096966
64.860 20.158117
64.865 19.8172
64.870 20.264481
64.875 20.971216
64.880 21.329754
64.885 21.752033
64.890 22.390528
64.895 22.468557
64.900 22.832691
64.905 22.37582
64.910 21.534245
64.915 20.710455
64.920 20.284164
64.925 19.732121
64.930 19.637314
64.935 19.555616
64.940 20.027092
64.945 20.516766
64.950 21.054764
64.955 20.780424
64.960 20.719177
64.965 20.378839
64.970 19.879059
64.975 19.558935
64.980 19.423185
64.985 19.111088
64.990 19.57822
64.995 20.15332
65.000 20.184309
65.005 20.873087
65.010 21.362499
65.015 21.563889
65.020 22.22715
65.025 22.427317
65.030 22.00416
65.035 22.722612
65.040 22.452642
65.045 21.55654
65.050 21.686453
65.055 21.549505
65.060 21.586298
65.065 21.744368
65.070 21.23373
65.075 21.542353
65.080 22.10146
65.085 22.173082
65.090 22.604691
65.095 22.987057
65.100 22.933235
65.105 23.56992
65.110 23.479372
65.115 23.31366
65.120 23.26848
65.125 22.799135
65.130 22.917013
65.135 23.15699
65.140 23.454603
65.145 23.996321
65.150 24.099527
65.155 23.945881
65.160 23.692699
65.165 23.758436
65.170 24.186855
65.175 23.57762
65.180 23.523523
65.185 23.602869
65.190 23.830252
65.195 23.935564
65.200 24.228758
65.205 24.954287
65.210 25.63847
65.215 26.537056
65.220 27.202612
65.225 27.02742
65.230 27.31863
65.235 27.292194
65.240 26.95602
65.245 26.401411
65.250 25.840897
65.255 25.891573
65.260 26.509359
65.265 26.546253
65.270 26.19775
65.275 25.953279
65.280 26.478987
65.285 26.503614
65.290 25.847164
65.295 25.263411
65.300 25.469227
65.305 25.437511
65.310 25.602654
65.315 25.601973
65.320 25.984444
65.325 27.086342
65.330 27.989782
65.335 27.780823
65.340 27.924957
65.345 28.278103
65.350 28.128908
65.355 28.735933
65.360 28.532034
65.365 28.609133
65.370 29.16749
65.375 29.684422
65.380 30.280561
65.385 30.761156
65.390 30.090267
65.395 30.358505
65.400 31.087988
65.405 31.300217
65.410 31.354502
65.415 31.173306
65.420 31.296352
65.425 32.455818
65.430 32.207214
65.435 31.683365
65.440 32.297382
65.445 32.569118
65.450 33.377003
65.455 32.891224
65.460 32.021305
65.465 32.585335
65.470 32.916553
65.475 33.145805
65.480 33.136951
65.485 33.162739
65.490 34.006203
65.495 34.669399
65.500 34.700699
65.505 34.955643
65.510 35.306095
65.515 35.266136
65.520 35.758411
65.525 35.607082
65.530 35.924381
65.535 36.416519
65.540 36.854015
65.545 37.731331
65.550 38.311752
65.555 37.846069
65.560 37.692432
65.565 37.625721
65.570 37.425793
65.575 37.908211
65.580 38.214821
65.585 38.559147
65.590 38.837914
65.595 39.504669
65.600 40.642963
65.605 41.513756
65.610 41.552746
65.615 41.430408
65.620 41.392559
65.625 42.018475
65.630 42.040874
65.635 40.449848
65.640 40.369312
65.645 40.216961
65.650 39.913372
65.655 39.952431
65.660 39.415703
65.665 39.41888
65.670 39.996994
65.675 40.004837
65.680 40.148758
65.685 40.157803
65.690 41.313831
65.695 42.52232
65.700 43.067932
65.705 43.822025
65.710 43.288113
65.715 42.654182
65.720 42.038025
65.725 41.239296
65.730 41.048424
65.735 40.177357
65.740 39.651028
65.745 39.815304
65.750 40.044193
65.755 40.492477
65.760 40.155819
65.765 39.667538
65.770 39.785908
65.775 39.208481
65.780 38.905991
65.785 38.994869
65.790 39.540573
65.795 39.480804
65.800 39.178112
65.805 39.049232
65.810 39.266899
65.815 38.594345
65.820 37.872715
65.825 37.148621
65.830 36.951553
65.835 36.290394
65.840 35.872421
65.845 36.391273
65.850 37.003654
65.855 37.081192
65.860 36.80397
65.865 36.056244
65.870 35.902798
65.875 36.391987
65.880 35.914722
65.885 35.349548
65.890 34.948963
65.895 34.993652
65.900 34.668896
65.905 34.738857
65.910 34.397003
65.915 34.673626
65.920 35.036755
65.925 34.325722
65.930 34.642662
65.935 35.265221
65.940 34.849724
65.945 34.205776
65.950 33.378208
65.955 32.786797
65.960 32.767544
65.965 32.281681
65.970 32.126434
65.975 32.248821
65.980 32.106335
65.985 32.001186
65.990 31.449821
65.995 31.341385
66.000 30.879456
66.005 29.960764
66.010 29.774147
66.015 29.518747
66.020 29.2216
66.025 29.105686
66.030 28.257326
66.035 27.841871
66.040 27.474901
66.045 26.919624
66.050 26.961573
66.055 26.690588
66.060 25.791424
66.065 26.244646
66.070 26.249773
66.075 26.696915
66.080 26.361597
66.085 26.070623
66.090 26.193316
66.095 26.161333
66.100 24.957771
66.105 23.580313
66.110 23.032848
66.115 22.955217
66.120 23.137863
66.125 22.928305
66.130 22.405439
66.135 22.783175
66.140 23.030243
66.145 22.879925
66.150 23.345127
66.155 22.59396
66.160 22.357851
66.165 22.887648
66.170 22.663408
66.175 22.52009
66.180 22.763699
66.185 22.185047
66.190 21.590914
66.195 21.490593
66.200 20.822929
66.205 20.4667
66.210 20.242252
66.215 19.950306
66.220 19.780212
66.225 19.944227
66.230 19.446869
66.235 19.685839
66.240 20.287939
66.245 20.68013
66.250 20.933321
66.255 21.367012
66.260 21.976616
66.265 22.477949
66.270 22.372675
66.275 21.467688
66.280 21.307507
66.285 21.070564
66.290 20.995728
66.295 20.589733
66.300 20.588873
66.305 20.466391
66.310 20.452929
66.315 19.982901
66.320 20.075798
66.325 20.255312
66.330 20.548395
66.335 20.3295
66.340 19.857517
66.345 19.822306
66.350 20.018089
66.355 19.453669
66.360 19.111092
66.365 18.939684
66.370 18.865595
66.375 18.750135
66.380 19.191351
66.385 18.937578
66.390 18.944475
66.395 18.794226
66.400 19.053259
66.405 19.480783
66.410 19.362265
66.415 18.956593
66.420 18.235508
66.425 17.967751
66.430 17.846821
66.435 17.107321
66.440 16.799818
66.445 17.359001
66.450 17.678722
66.455 18.30105
66.460 18.078081
66.465 18.595797
66.470 19.212912
66.475 19.322523
66.480 19.188864
66.485 19.021177
66.490 18.906515
66.495 19.137255
66.500 18.974222
66.505 18.727331
66.510 18.744038
66.515 18.029976
66.520 18.130184
66.525 18.367659
66.530 18.346518
66.535 18.453674
66.540 18.776287
66.545 19.151625
66.550 19.863909
66.555 19.668058
66.560 19.577717
66.565 19.620491
66.570 19.457798
66.575 18.846189
66.580 18.448009
66.585 18.115648
66.590 18.388052
66.595 18.834373
66.600 18.884525
66.605 19.003807
66.610 19.526983
66.615 19.169662
66.620 19.02529
66.625 19.084932
66.630 18.44408
66.635 18.484636
66.640 18.936745
66.645 18.345936
66.650 18.382912
66.655 18.557274
66.660 18.312586
66.665 18.66559
66.670 18.480783
66.675 17.683353
66.680 17.83152
66.685 18.292492
66.690 18.027988
66.695 17.859991
66.700 17.688431
66.705 18.033964
66.710 18.510712
66.715 18.410872
66.720 18.434937
66.725 18.63493
66.730 19.109734
66.735 18.992517
66.740 18.879457
66.745 18.654015
66.750 19.131805
66.755 19.270987
66.760 18.985746
66.765 19.003611
66.770 19.171719
66.775 18.954828
66.780 19.0152
66.785 18.531361
66.790 18.573221
66.795 19.330746
66.800 19.013746
66.805 19.15662
66.810 19.648916
66.815 19.709291
66.820 19.762316
66.825 19.649744
66.830 19.182777
66.835 18.783981
66.840 18.704948
66.845 18.825956
66.850 18.628706
66.855 18.812166
66.860 18.842354
66.865 18.874628
66.870 18.827856
66.875 18.561817
66.880 18.593185
66.885 18.765478
66.890 18.337475
66.895 18.349245
66.900 18.281708
66.905 18.310789
66.910 17.699543
66.915 17.189301
66.920 17.543207
66.925 17.970938
66.930 18.009163
66.935 17.947771
66.940 18.336897
66.945 18.888481
66.950 18.936619
66.955 18.731747
66.960 18.502682
66.965 17.873381
66.970 17.721169
66.975 17.415077
66.980 17.203762
66.985 17.710585
66.990 17.664782
66.995 17.804098
67.000 18.359333
67.005 18.519615
67.010 18.910904
67.015 18.776524
67.020 18.606932
67.025 18.523748
67.030 18.487915
67.035 18.109833
67.040 18.197584
67.045 18.0959
67.050 18.452499
67.055 18.482481
67.060 18.446396
67.065 18.643755
67.070 19.379368
67.075 19.312977
67.080 18.935745
67.085 18.471531
67.090 17.890591
67.095 17.874493
67.100 17.313215
67.105 17.224657
67.110 17.44981
67.115 17.876001
67.120 18.765697
67.125 19.459742
67.130 19.33882
67.135 19.104202
67.140 18.745472
67.145 18.83326
67.150 18.847433
67.155 18.0844
67.160 18.004072
67.165 18.41679
67.170 18.569469
67.175 18.780661
67.180 18.568989
67.185 18.190355
67.190 17.751978
67.195 17.213356
67.200 17.406399
67.205 17.302795
67.210 17.389614
67.215 17.850994
67.220 17.709347
67.225 17.816387
67.230 17.832792
67.235 17.053141
67.240 16.885231
67.245 16.723166
67.250 16.19025
67.255 16.378057
67.260 16.177767
67.265 16.549616
67.270 16.795332
67.275 17.301588
67.280 17.352924
67.285 17.319393
67.290 18.038198
67.295 18.562122
67.300 18.43462
67.305 18.644802
67.310 18.548468
67.315 18.825832
67.320 18.540836
67.325 17.987755
67.330 17.829445
67.335 17.741854
67.340 18.00227
67.345 18.154228
67.350 17.708263
67.355 17.894363
67.360 18.403805
67.365 18.736614
67.370 18.88658
67.375 18.829428
67.380 18.332857
67.385 19.088415
67.390 19.095144
67.395 18.508076
67.400 18.058323
67.405 18.079647
67.410 17.78368
67.415 17.476828
67.420 17.285742
67.425 17.31002
67.430 17.385056
67.435 17.493961
67.440 17.139002
67.445 17.505302
67.450 17.906176
67.455 17.453581
67.460 17.523542
67.465 17.349709
67.470 17.005142
67.475 16.814411
67.480 16.787596
67.485 16.701046
67.490 17.189236
67.495 17.681643
67.500 17.944988
67.505 18.185617
67.510 18.216579
67.515 17.905081
67.520 18.687141
67.525 18.711044
67.530 18.73262
67.535 18.171349
67.540 17.943054
67.545 17.80497
67.550 17.806263
67.555 17.402735
67.560 16.806837
67.565 16.349945
67.570 16.859713
67.575 17.052059
67.580 17.577324
67.585 17.973074
67.590 17.618324
67.595 17.640411
67.600 17.644983
67.605 17.477755
67.610 18.222851
67.615 18.427023
67.620 17.923527
67.625 18.341633
67.630 19.156752
67.635 19.866758
67.640 20.58856
67.645 20.06502
67.650 19.597416
67.655 19.989973
67.660 19.887518
67.665 19.363867
67.670 19.199207
67.675 19.08881
67.680 19.802811
67.685 20.170155
67.690 19.822399
67.695 19.383421
67.700 19.126684
67.705 19.091036
67.710 19.104338
67.715 18.710342
67.720 18.664701
67.725 18.642391
67.730 19.20236
67.735 18.941957
67.740 18.613581
67.745 18.14629
67.750 18.140358
67.755 17.8501
67.760 18.276661
67.765 18.181015
67.770 18.176918
67.775 17.919029
67.780 18.205093
67.785 18.049795
67.790 18.179188
67.795 17.35051
67.800 17.270027
67.805 17.557276
67.810 17.327324
67.815 17.13518
67.820 17.231567
67.825 17.323656
67.830 18.162428
67.835 17.766048
67.840 17.699051
67.845 18.690596
67.850 19.185095
67.855 19.404209
67.860 19.34145
67.865 18.686674
67.870 19.07136
67.875 18.481739
67.880 17.492804
67.885 17.049971
67.890 16.8386
67.895 17.022715
67.900 17.232302
67.905 17.828846
67.910 18.783688
67.915 19.375149
67.920 19.187256
67.925 19.212154
67.930 19.365925
67.935 19.801203
67.940 19.321693
67.945 19.278568
67.950 19.231291
67.955 19.541912
67.960 19.681091
67.965 19.484383
67.970 19.352655
67.975 20.376957
67.980 20.583942
67.985 20.254374
67.990 19.747511
67.995 19.308542
68.000 18.788019
68.005 18.398962
68.010 17.655914
68.015 17.040009
68.020 17.119268
68.025 17.22356
68.030 17.638479
68.035 17.917418
68.040 17.678352
68.045 17.770264
68.050 17.851822
68.055 17.697872
68.060 17.485155
68.065 17.157106
68.070 17.005749
68.075 17.003126
68.080 16.968004
68.085 16.839338
68.090 17.15443
68.095 17.911629
68.100 18.316563
68.105 19.104933
68.110 19.075449
68.115 19.682522
68.120 20.389122
68.125 20.185556
68.130 19.80064
68.135 19.804102
68.140 19.738577
68.145 20.01059
68.150 19.976791
68.155 19.617929
68.160 19.620344
68.165 19.449137
68.170 19.223658
68.175 19.240061
68.180 18.54554
68.185 17.430233
68.190 17.666796
68.195 17.862274
68.200 18.297815
68.205 18.830975
68.210 18.387966
68.215 18.844643
68.220 19.775686
68.225 19.825129
68.230 19.575274
68.235 19.048485
68.240 18.442593
68.245 18.979906
68.250 18.098398
68.255 17.560041
68.260 17.533775
68.265 17.729393
68.270 17.533375
68.275 18.23357
68.280 18.402979
68.285 19.296265
68.290 19.987202
68.295 20.201441
68.300 20.432138
68.305 20.392216
68.310 20.410971
68.315 20.7083
68.320 20.93363
68.325 20.548418
68.330 21.178053
68.335 21.91794
68.340 22.469845
68.345 22.050175
68.350 22.087078
68.355 21.845011
68.360 21.619635
68.365 20.784933
68.370 20.201935
68.375 20.44009
68.380 21.431843
68.385 21.736748
68.390 22.23937
68.395 22.73686
68.400 22.816715
68.405 23.214813
68.410 22.812542
68.415 21.79567
68.420 21.454803
68.425 21.159576
68.430 21.390869
68.435 21.884769
68.440 21.408777
68.445 21.791538
68.450 21.927023
68.455 22.383593
68.460 23.131308
68.465 22.637491
68.470 22.84621
68.475 23.404211
68.480 23.08209
68.485 22.916296
68.490 22.797092
68.495 22.412907
68.500 22.579741
68.505 22.376766
68.510 22.230124
68.515 22.838449
68.520 22.795315
68.525 22.626698
68.530 22.542147
68.535 22.555641
68.540 22.345818
68.545 22.61108
68.550 23.233076
68.555 23.883421
68.560 24.421272
68.565 24.685989
68.570 24.437653
68.575 24.248087
68.580 24.443319
68.585 24.301586
68.590 24.588575
68.595 25.147274
68.600 25.983835
68.605 27.364311
68.610 28.148363
68.615 28.025974
68.620 28.304768
68.625 28.248466
68.630 27.225262
68.635 27.086187
68.640 26.570406
68.645 26.747601
68.650 26.52998
68.655 26.623247
68.660 27.036179
68.665 27.306414
68.670 27.756565
68.675 28.245731
68.680 28.389311
68.685 29.131254
68.690 29.794832
68.695 30.152813
68.700 30.702362
68.705 30.714729
68.710 30.577057
68.715 30.961008
68.720 31.231981
68.725 31.055696
68.730 31.961945
68.735 31.976761
68.740 31.961994
68.745 32.244083
68.750 32.029346
68.755 31.412199
68.760 30.940798
68.765 30.656755
68.770 31.188242
68.775 32.331684
68.780 33.287464
68.785 34.449615
68.790 35.547424
68.795 35.822124
68.800 36.755199
68.805 36.591572
68.810 35.47015
68.815 34.57262
68.820 33.841724
68.825 33.938725
68.830 34.548321
68.835 34.016983
68.840 34.148315
68.845 34.409008
68.850 35.104275
68.855 35.785881
68.860 36.204247
68.865 36.117367
68.870 36.216877
68.875 36.113491
68.880 36.556293
68.885 35.713276
68.890 35.494759
68.895 36.217251
68.900 37.053398
68.905 36.918762
68.910 37.172398
68.915 36.976742
68.920 37.56596
68.925 37.548168
68.930 37.045948
68.935 36.232391
68.940 36.896759
68.945 36.22271
68.950 36.669563
68.955 36.772091
68.960 36.169178
68.965 36.723614
68.970 37.231163
68.975 38.009712
68.980 38.151043
68.985 38.142487
68.990 37.978027
68.995 38.094715
69.000 37.406223
69.005 36.824825
69.010 36.073189
69.015 36.186344
69.020 35.583378
69.025 36.028553
69.030 35.676647
69.035 35.0243
69.040 35.008842
69.045 34.586475
69.050 33.623138
69.055 33.609108
69.060 32.871166
69.065 32.881466
69.070 33.154205
69.075 33.155521
69.080 33.773067
69.085 34.909325
69.090 34.734005
69.095 34.629604
69.100 34.438255
69.105 33.830944
69.110 33.651966
69.115 32.88895
69.120 31.784672
69.125 31.447302
69.130 31.948709
69.135 32.20858
69.140 32.086761
69.145 31.824722
69.150 32.657349
69.155 33.005253
69.160 32.696846
69.165 31.355299
69.170 30.38452
69.175 29.915909
69.180 29.502005
69.185 28.823303
69.190 28.668934
69.195 28.717789
69.200 28.791765
69.205 28.853649
69.210 29.263313
69.215 28.395145
69.220 27.637886
69.225 27.284649
69.230 26.793926
69.235 26.724564
69.240 27.152102
69.245 26.749371
69.250 26.863953
69.255 26.406467
69.260 26.207336
69.265 26.129503
69.270 26.018282
69.275 24.529499
69.280 23.943253
69.285 23.71851
69.290 23.520662
69.295 23.749414
69.300 24.210001
69.305 24.390455
69.310 24.853455
69.315 24.722544
69.320 24.976122
69.325 25.352768
69.330 24.655636
69.335 23.750969
69.340 23.364202
69.345 23.631819
69.350 23.664648
69.355 23.249506
69.360 23.074596
69.365 23.302286
69.370 23.820116
69.375 23.487358
69.380 22.306564
69.385 21.768011
69.390 21.687281
69.395 21.510094
69.400 21.022827
69.405 20.721838
69.410 20.847397
69.415 22.088644
69.420 22.934315
69.425 23.20636
69.430 23.549374
69.435 24.204077
69.440 25.331293
69.445 25.816029
69.450 25.022453
69.455 24.203665
69.460 23.795303
69.465 23.303459
69.470 22.645479
69.475 22.114609
69.480 22.02079
69.485 22.288414
69.490 22.633804
69.495 22.687918
69.500 22.874893
69.505 22.368708
69.510 21.812365
69.515 21.428936
69.520 20.57287
69.525 20.180706
69.530 19.979755
69.535 19.548252
69.540 19.537649
69.545 19.550119
69.550 19.773943
69.555 20.17214
69.560 20.276388
69.565 20.522928
69.570 21.557552
69.575 21.551096
69.580 21.170485
69.585 21.288181
69.590 21.365313
69.595 21.366804
69.600 21.282417
69.605 21.09017
69.610 21.397388
69.615 21.408829
69.620 20.829073
69.625 20.324886
69.630 20.77828
69.635 19.805479
69.640 18.985708
69.645 18.7132
69.650 18.33099
69.655 18.039097
69.660 17.736404
69.665 17.38442
69.670 17.645643
69.675 17.53055
69.680 17.207815
69.685 16.683281
69.690 16.272766
69.695 16.398928
69.700 16.418898
69.705 16.951923
69.710 17.252779
69.715 17.549402
69.720 18.38764
69.725 19.457739
69.730 19.447311
69.735 19.899284
69.740 19.516735
69.745 19.776897
69.750 19.806021
69.755 19.393854
69.760 19.172972
69.765 18.862154
69.770 18.432306
69.775 18.512407
69.780 18.210081
69.785 18.188072
69.790 17.742058
69.795 16.825855
69.800 16.696714
69.805 17.340536
69.810 17.244005
69.815 17.507523
69.820 17.845549
69.825 18.73694
69.830 19.221823
69.835 19.374529
69.840 18.935921
69.845 18.691294
69.850 19.115446
69.855 18.89072
69.860 18.782406
69.865 18.925917
69.870 18.768764
69.875 18.755123
69.880 18.964371
69.885 18.522453
69.890 18.458439
69.895 19.025871
69.900 18.899736
69.905 19.144201
69.910 18.970247
69.915 18.904312
69.920 19.202776
69.925 19.032112
69.930 19.123348
69.935 19.26841
69.940 18.89542
69.945 18.9149
69.950 18.603764
69.955 18.353767
69.960 18.404335
69.965 18.519466
69.970 18.619696
69.975 18.401783
69.980 18.31395
69.985 18.601383
69.990 18.701254
69.995 18.421482
70.000 17.40204
70.005 17.455984
70.010 17.339193
70.015 16.841
70.020 16.654997
70.025 16.783342
70.030 17.322376
70.035 18.681059
70.040 18.77334
70.045 19.09189
70.050 19.796358
70.055 19.706121
70.060 19.306723
70.065 18.826708
70.070 18.290237
70.075 18.157793
70.080 17.788567
70.085 17.41226
70.090 17.670866
70.095 17.567327
70.100 17.380064
70.105 17.227085
70.110 17.631937
70.115 17.970085
70.120 18.137463
70.125 18.469112
70.130 18.510216
70.135 18.727051
70.140 18.630787
70.145 18.282862
70.150 18.907791
70.155 18.826406
70.160 17.956743
70.165 17.975666
70.170 17.975977
70.175 17.814476
70.180 17.582804
70.185 17.179827
70.190 17.238136
70.195 17.159338
70.200 16.581825
70.205 15.964359
70.210 16.090178
70.215 16.301611
70.220 15.995204
70.225 15.893202
70.230 15.945345
70.235 16.546459
70.240 17.349106
70.245 17.008602
70.250 16.318378
70.255 16.918022
70.260 17.487686
70.265 17.305176
70.270 17.335188
70.275 16.898199
70.280 17.26757
70.285 17.549461
70.290 16.891987
70.295 17.202095
70.300 17.529551
70.305 17.694086
70.310 18.389511
70.315 18.878025
70.320 19.24859
70.325 19.085884
70.330 18.626514
70.335 18.264969
70.340 18.19944
70.345 17.586552
70.350 17.273062
70.355 17.284472
70.360 17.811077
70.365 18.476885
70.370 18.829344
70.375 19.032402
70.380 19.221289
70.385 19.172344
70.390 18.98967
70.395 18.678289
70.400 18.487551
70.405 18.570576
70.410 18.330034
70.415 18.68232
70.420 18.882486
70.425 19.017511
70.430 18.899975
70.435 19.063614
70.440 18.944946
70.445 18.214687
70.450 17.791471
70.455 17.411097
70.460 17.409889
70.465 17.43936
70.470 17.044304
70.475 17.603931
70.480 18.420055
70.485 18.215654
70.490 17.890306
70.495 17.656878
70.500 17.791637
70.505 17.61269
70.510 17.011471
70.515 16.700075
70.520 17.485163
70.525 17.868721
70.530 18.318991
70.535 18.363934
70.540 18.945654
70.545 18.803482
70.550 18.612741
70.555 18.470533
70.560 18.337824
70.565 18.146954
70.570 17.977661
70.575 18.03441
70.580 18.284906
70.585 18.739374
70.590 18.634756
70.595 18.388542
70.600 18.30044
70.605 18.262291
70.610 18.137318
70.615 17.953083
70.620 17.745907
70.625 18.614378
70.630 18.716558
70.635 18.60675
70.640 18.422022
70.645 18.374575
70.650 17.946608
70.655 17.15897
70.660 16.955381
70.665 16.693964
70.670 16.969044
70.675 17.506397
70.680 17.763969
70.685 18.844891
70.690 19.66465
70.695 19.642801
70.700 19.888622
70.705 19.085188
70.710 18.644165
70.715 18.079115
70.720 16.764898
70.725 16.5641
70.730 17.106592
70.735 17.432449
70.740 17.873148
70.745 18.283644
70.750 18.82848
70.755 19.693077
70.760 19.941349
70.765 18.910801
70.770 18.934792
70.775 18.766315
70.780 18.283094
70.785 17.496979
70.790 16.894539
70.795 16.13945
70.800 16.603661
70.805 16.708023
70.810 16.612289
70.815 16.965984
70.820 18.103344
70.825 18.59902
70.830 18.434256
70.835 17.928677
70.840 17.595875
70.845 17.662184
70.850 17.655327
70.855 17.085361
70.860 16.959764
70.865 17.411198
70.870 17.457886
70.875 17.183306
70.880 17.550306
70.885 18.249599
70.890 19.111561
70.895 19.160427
70.900 19.156506
70.905 19.225164
70.910 19.710844
70.915 19.302271
70.920 18.639204
70.925 17.997463
70.930 17.897993
70.935 17.833651
70.940 17.721067
70.945 17.332319
70.950 17.176346
70.955 16.934042
70.960 17.042397
70.965 17.173517
70.970 17.472387
70.975 17.784027
70.980 17.964396
70.985 18.272541
70.990 18.633287
70.995 18.640394
71.000 18.795845
71.005 18.831736
71.010 18.896059
71.015 18.650175
71.020 18.913572
71.025 18.254131
71.030 18.180132
71.035 18.088537
71.040 18.096333
71.045 18.017881
71.050 18.179562
71.055 17.793747
71.060 18.275564
71.065 18.150637
71.070 18.022816
71.075 17.762888
71.080 17.394133
71.085 17.699808
71.090 18.152203
71.095 17.832165
71.100 17.947338
71.105 18.158573
71.110 18.413891
71.115 18.546103
71.120 18.046478
71.125 18.409668
71.130 18.522985
71.135 18.204741
71.140 17.81498
71.145 17.214987
71.150 17.317827
71.155 17.371286
71.160 17.357557
71.165 18.051121
71.170 18.457109
71.175 19.090504
71.180 19.292194
71.185 19.126677
71.190 18.407619
71.195 18.413549
71.200 17.74547
71.205 17.891558
71.210 18.01882
71.215 17.858767
71.220 18.187828
71.225 18.628788
71.230 18.267595
71.235 18.42979
71.240 18.200819
71.245 18.391947
71.250 19.23966
71.255 19.077234
71.260 18.941181
71.265 19.267338
71.270 19.357084
71.275 18.866659
71.280 18.814726
71.285 18.640707
71.290 18.795738
71.295 18.070412
71.300 17.938484
71.305 18.215876
71.310 18.02318
71.315 17.110609
71.320 16.474321
71.325 16.459127
71.330 16.74835
71.335 16.283567
71.340 16.095654
71.345 16.405109
71.350 16.863113
71.355 17.449858
71.360 18.053822
71.365 17.959425
71.370 18.355665
71.375 18.86841
71.380 18.868301
71.385 18.530647
71.390 17.902777
71.395 17.091555
71.400 16.96035
71.405 16.948574
71.410 16.507656
71.415 16.898373
71.420 16.687916
71.425 16.995701
71.430 17.447037
71.435 17.877504
71.440 18.075256
71.445 17.981291
71.450 17.988512
71.455 18.360052
71.460 18.561392
71.465 18.967316
71.470 18.495735
71.475 18.903042
71.480 18.798532
71.485 18.84565
71.490 18.605194
71.495 18.453108
71.500 18.360928
71.505 18.965445
71.510 18.341396
71.515 18.446848
71.520 18.851452
71.525 19.52018
71.530 19.443811
71.535 19.765366
71.540 19.306175
71.545 19.280193
71.550 19.52183
71.555 19.255144
71.560 19.115566
71.565 18.731844
71.570 18.058973
71.575 18.098595
71.580 18.184057
71.585 18.005865
71.590 17.860435
71.595 17.785908
71.600 18.066402
71.605 18.674091
71.610 19.059889
71.615 18.842741
71.620 18.778549
71.625 18.439878
71.630 18.401796
71.635 18.661188
71.640 17.904016
71.645 17.74176
71.650 17.838484
71.655 17.72822
71.660 18.095577
71.665 18.309837
71.670 17.733536
71.675 18.073875
71.680 17.915667
71.685 18.380009
71.690 18.829472
71.695 19.025465
71.700 19.108818
71.705 18.771782
71.710 18.6852
71.715 18.988729
71.720 19.217579
71.725 18.90443
71.730 18.680359
71.735 18.509119
71.740 19.198164
71.745 19.103277
71.750 18.813147
71.755 18.550798
71.760 19.049065
71.765 18.906404
71.770 18.699778
71.775 18.224937
71.780 17.993769
71.785 18.081165
71.790 17.781937
71.795 17.366194
71.800 17.475914
71.805 17.656483
71.810 17.680784
71.815 18.096991
71.820 18.015888
71.825 17.528208
71.830 17.705454
71.835 17.478085
71.840 17.487848
71.845 17.793943
71.850 17.71645
71.855 17.222065
71.860 17.383121
71.865 17.52652
71.870 17.480375
71.875 17.29879
71.880 16.82202
71.885 16.252966
71.890 16.458841
71.895 16.320911
71.900 16.366072
71.905 16.352842
71.910 16.211777
71.915 16.095871
71.920 16.897833
71.925 17.229837
71.930 17.309214
71.935 17.162256
71.940 17.176493
71.945 17.427706
71.950 17.188471
71.955 16.748096
71.960 16.130392
71.965 15.927447
71.970 16.139687
71.975 15.995258
71.980 16.074482
71.985 16.634279
71.990 17.05739
71.995 17.66202
72.000 18.086777
72.005 18.448395
72.010 18.823833
72.015 19.227358
72.020 19.270523
72.025 19.208815
72.030 18.282675
72.035 17.384941
72.040 16.754051
72.045 16.572886
72.050 15.974568
72.055 14.862855
72.060 15.20811
72.065 15.717502
72.070 15.983208
72.075 16.012985
72.080 15.611296
72.085 15.776525
72.090 16.790222
72.095 16.453979
72.100 16.639717
72.105 16.761223
72.110 16.4615
72.115 16.492611
72.120 16.610001
72.125 16.564234
72.130 17.114342
72.135 16.811451
72.140 16.830465
72.145 17.969372
72.150 18.517244
72.155 18.804188
72.160 18.302904
72.165 18.504744
72.170 18.887676
72.175 18.499258
72.180 17.599453
72.185 17.258942
72.190 17.055134
72.195 17.304352
72.200 16.755859
72.205 16.556034
72.210 16.725168
72.215 17.12855
72.220 16.80291
72.225 16.913885
72.230 16.823755
72.235 16.902731
72.240 16.985077
72.245 17.089128
72.250 17.071373
72.255 17.460157
72.260 16.964828
72.265 17.329044
72.270 17.538933
72.275 17.994907
72.280 18.109159
72.285 17.839813
72.290 18.045538
72.295 18.21007
72.300 18.299536
72.305 18.034582
72.310 17.595556
72.315 18.070997
72.320 18.704384
72.325 18.843571
72.330 18.495178
72.335 18.041607
72.340 17.888803
72.345 18.089682
72.350 17.976757
72.355 17.147957
72.360 16.85227
72.365 16.911276
72.370 17.379713
72.375 17.914679
72.380 18.222727
72.385 17.580812
72.390 17.494688
72.395 17.592812
72.400 17.771618
72.405 17.523556
72.410 17.031801
72.415 17.078726
72.420 17.500313
72.425 17.763269
72.430 17.440199
72.435 17.05253
72.440 17.065836
72.445 17.369707
72.450 16.970385
72.455 16.096205
72.460 15.744319
72.465 15.864718
72.470 15.899528
72.475 15.566548
72.480 14.998569
72.485 15.295382
72.490 16.006859
72.495 16.405872
72.500 17.088455
72.505 17.347639
72.510 17.498446
72.515 18.411167
72.520 18.940762
72.525 19.453768
72.530 19.492411
72.535 19.143869
72.540 18.910805
72.545 19.356812
72.550 19.356672
72.555 18.786175
72.560 18.093973
72.565 18.105986
72.570 18.115545
72.575 18.005114
72.580 17.152554
72.585 16.854759
72.590 16.925697
72.595 16.642838
72.600 16.691626
72.605 16.584387
72.610 16.627794
72.615 17.110859
72.620 17.297909
72.625 17.705496
72.630 17.724014
72.635 17.302326
72.640 17.903557
72.645 17.954096
72.650 17.8025
72.655 17.578098
72.660 17.985367
72.665 18.017883
72.670 17.964022
72.675 17.610329
72.680 17.011251
72.685 16.678867
72.690 16.622442
72.695 16.455017
72.700 16.276524
72.705 15.992176
72.710 16.407774
72.715 16.872744
72.720 16.905825
72.725 16.632418
72.730 16.598598
72.735 16.803442
72.740 16.85849
72.745 16.195215
72.750 15.653148
72.755 15.622723
72.760 15.692813
72.765 16.15177
72.770 15.510954
72.775 15.482511
72.780 16.447895
72.785 17.034922
72.790 16.674162
72.795 17.096041
72.800 17.606735
72.805 17.897219
72.810 18.238676
72.815 17.900858
72.820 17.382956
72.825 17.331215
72.830 16.711262
72.835 16.915592
72.840 16.814169
72.845 16.107681
72.850 15.984319
72.855 16.090652
72.860 15.97862
72.865 15.463466
72.870 14.999407
72.875 14.871738
72.880 15.317822
72.885 15.498331
72.890 15.852635
72.895 15.973782
72.900 15.912569
72.905 16.53368
72.910 16.961967
72.915 16.354942
72.920 16.246977
72.925 16.240196
72.930 16.42944
72.935 16.910587
72.940 16.205605
72.945 16.516428
72.950 17.239407
72.955 16.977257
72.960 16.779978
72.965 16.579548
72.970 15.807557
72.975 15.897699
72.980 15.58949
72.985 15.799446
72.990 15.844893
72.995 16.130236
73.000 16.478771
