!@!!GADDS PLOTSO FILE: Chi integration type
!@!!Title/SampleName: map-11c
!@!!Comment: ?
!@!!User: Bruker Instrument Administrator
!@!!Site: University of Illinois Chicago
!@!!Frame: map-11c_01_000.gfrm
!@!!Wavelengths    1.54184   1.54056   1.54439
!@!!Frame angles: 2Theta: 63.000 Omega: 50.000 Phi: 0.000 Chi: 90.000
!@!!Integration range: 2Theta: 53.000 to 73.000  Gamma: -105.000 to -75.000
!@!!Integration method: bin normalized
!@!N
!@!SS
!@!M
!@!L 0.0 0.0 0.0 0.0
!@!XDegrees
!@!YCounts
53.000 7.558602
53.005 7.698253
53.010 7.822071
53.015 7.615643
53.020 7.598248
53.025 7.680765
53.030 7.834877
53.035 8.093015
53.040 7.928945
53.045 7.695507
53.050 7.54916
53.055 7.069976
53.060 7.082024
53.065 7.249859
53.070 7.074086
53.075 7.291499
53.080 7.467476
53.085 7.667716
53.090 7.858375
53.095 7.483742
53.100 7.300456
53.105 7.491531
53.110 7.550885
53.115 7.425081
53.120 7.226601
53.125 7.781645
53.130 8.130082
53.135 8.130168
53.140 8.053091
53.145 8.072452
53.150 7.880069
53.155 8.344019
53.160 8.30029
53.165 8.120478
53.170 8.438559
53.175 8.661976
53.180 8.820312
53.185 9.054777
53.190 8.616405
53.195 8.370832
53.200 8.644485
53.205 8.50192
53.210 8.077024
53.215 7.793612
53.220 7.575869
53.225 7.939554
53.230 7.67578
53.235 7.256103
53.240 7.066874
53.245 7.050808
53.250 7.467124
53.255 7.427588
53.260 7.135387
53.265 7.649817
53.270 7.680919
53.275 7.646161
53.280 7.435438
53.285 7.055203
53.290 7.133469
53.295 7.238708
53.300 7.179555
53.305 7.418973
53.310 7.565083
53.315 7.489164
53.320 7.630165
53.325 7.699354
53.330 7.96521
53.335 8.09335
53.340 7.893517
53.345 8.120378
53.350 8.307212
53.355 8.083961
53.360 7.714323
53.365 7.390171
53.370 7.385696
53.375 7.540689
53.380 7.559669
53.385 7.990648
53.390 8.267367
53.395 8.677773
53.400 8.617891
53.405 8.635108
53.410 8.689732
53.415 8.72197
53.420 8.841239
53.425 9.157537
53.430 8.679578
53.435 8.559859
53.440 8.741015
53.445 8.41408
53.450 8.448137
53.455 8.291049
53.460 8.009319
53.465 8.10095
53.470 7.923002
53.475 7.868617
53.480 7.913951
53.485 7.544153
53.490 7.199604
53.495 7.448255
53.500 7.781573
53.505 8.045119
53.510 8.140708
53.515 8.481983
53.520 8.88856
53.525 8.83869
53.530 8.575078
53.535 8.552914
53.540 8.323109
53.545 8.176625
53.550 8.293688
53.555 8.428772
53.560 8.615602
53.565 8.964979
53.570 9.344315
53.575 9.543112
53.580 9.435173
53.585 8.972887
53.590 8.49361
53.595 8.137885
53.600 7.912485
53.605 7.545965
53.610 7.196963
53.615 7.386824
53.620 7.635231
53.625 8.283452
53.630 8.63895
53.635 8.36813
53.640 8.28751
53.645 8.304939
53.650 8.44215
53.655 8.322374
53.660 7.948215
53.665 7.988644
53.670 8.192888
53.675 8.403038
53.680 8.214884
53.685 7.926984
53.690 8.012211
53.695 8.030525
53.700 7.57421
53.705 7.552031
53.710 7.771895
53.715 8.247834
53.720 8.248768
53.725 8.210855
53.730 8.419222
53.735 8.690338
53.740 8.559869
53.745 8.597138
53.750 8.425494
53.755 8.372877
53.760 8.432725
53.765 8.142588
53.770 8.165522
53.775 8.064896
53.780 7.4652
53.785 7.455106
53.790 7.725863
53.795 7.587109
53.800 7.443303
53.805 7.88776
53.810 8.489987
53.815 8.673615
53.820 8.596093
53.825 8.687243
53.830 8.697591
53.835 8.811822
53.840 8.355826
53.845 8.360453
53.850 8.432101
53.855 8.47051
53.860 8.591063
53.865 8.973868
53.870 9.168134
53.875 9.367184
53.880 9.337193
53.885 9.19275
53.890 8.751755
53.895 8.208051
53.900 7.974362
53.905 8.011819
53.910 8.017075
53.915 8.240313
53.920 8.498181
53.925 8.967115
53.930 9.043192
53.935 8.703064
53.940 8.952045
53.945 8.895826
53.950 9.091136
53.955 9.302048
53.960 9.366379
53.965 9.547276
53.970 9.467726
53.975 9.38464
53.980 9.263225
53.985 9.000052
53.990 8.725002
53.995 9.052576
54.000 9.10517
54.005 8.966709
54.010 8.708426
54.015 8.673537
54.020 8.934941
54.025 8.867391
54.030 8.646082
54.035 9.001997
54.040 9.095918
54.045 9.034042
54.050 9.001388
54.055 8.946026
54.060 8.806128
54.065 8.589142
54.070 8.266196
54.075 8.299855
54.080 8.561341
54.085 8.542511
54.090 8.286383
54.095 8.127337
54.100 7.866131
54.105 8.342218
54.110 8.286152
54.115 7.735533
54.120 7.903533
54.125 8.059739
54.130 8.241425
54.135 8.595253
54.140 8.453511
54.145 8.797659
54.150 9.038658
54.155 9.12043
54.160 9.365302
54.165 9.409335
54.170 9.258704
54.175 8.905682
54.180 9.086174
54.185 9.087764
54.190 9.264507
54.195 9.282783
54.200 9.45252
54.205 9.995932
54.210 10.242859
54.215 10.077406
54.220 9.851776
54.225 9.670519
54.230 9.854995
54.235 9.675693
54.240 9.235025
54.245 9.185627
54.250 9.110349
54.255 8.926701
54.260 8.881907
54.265 8.790651
54.270 8.893952
54.275 9.013823
54.280 9.282165
54.285 9.165558
54.290 9.778378
54.295 9.929273
54.300 9.317505
54.305 9.180538
54.310 8.849518
54.315 8.561731
54.320 8.736684
54.325 8.389307
54.330 8.681858
54.335 9.1395
54.340 9.387661
54.345 9.769904
54.350 9.821815
54.355 9.821371
54.360 9.830235
54.365 9.378524
54.370 9.256777
54.375 9.392326
54.380 9.179354
54.385 9.092653
54.390 9.003171
54.395 8.751767
54.400 8.801134
54.405 8.711661
54.410 8.797715
54.415 8.934458
54.420 9.231588
54.425 9.136932
54.430 9.08654
54.435 9.137962
54.440 8.678003
54.445 8.341015
54.450 8.303994
54.455 8.155615
54.460 8.327801
54.465 8.687094
54.470 8.682529
54.475 8.648984
54.480 8.684003
54.485 8.600568
54.490 8.707308
54.495 8.466857
54.500 8.162909
54.505 8.419099
54.510 8.865472
54.515 9.13564
54.520 8.830248
54.525 8.593932
54.530 8.545761
54.535 8.782523
54.540 9.204788
54.545 9.072221
54.550 8.951588
54.555 9.069477
54.560 9.449378
54.565 9.996131
54.570 9.984439
54.575 9.844555
54.580 9.54318
54.585 9.692106
54.590 9.762831
54.595 9.673341
54.600 9.403907
54.605 9.312535
54.610 9.77739
54.615 10.069888
54.620 10.170369
54.625 10.192837
54.630 10.275552
54.635 10.408759
54.640 9.872925
54.645 9.727308
54.650 10.167827
54.655 10.06289
54.660 10.113153
54.665 10.211133
54.670 10.017649
54.675 9.530957
54.680 9.156102
54.685 8.843119
54.690 9.205584
54.695 9.215482
54.700 8.758227
54.705 8.737446
54.710 8.495417
54.715 8.249858
54.720 8.198771
54.725 7.91192
54.730 7.691308
54.735 7.933305
54.740 8.353563
54.745 9.03579
54.750 9.16968
54.755 8.61445
54.760 8.828718
54.765 9.206712
54.770 9.184793
54.775 9.09034
54.780 8.760939
54.785 9.151448
54.790 9.924365
54.795 10.051691
54.800 10.314524
54.805 10.583526
54.810 10.758272
54.815 10.841289
54.820 10.938528
54.825 10.675268
54.830 10.448632
54.835 10.359314
54.840 10.2702
54.845 10.534679
54.850 10.493931
54.855 10.525639
54.860 10.797979
54.865 10.691652
54.870 10.32778
54.875 10.555479
54.880 10.482927
54.885 10.43978
54.890 10.060981
54.895 9.714905
54.900 9.7435
54.905 9.965563
54.910 9.913187
54.915 10.148871
54.920 10.048119
54.925 9.918802
54.930 9.986949
54.935 10.19755
54.940 10.550156
54.945 10.882378
54.950 10.756712
54.955 10.892633
54.960 11.080647
54.965 10.897932
54.970 10.48163
54.975 10.061424
54.980 9.970863
54.985 10.186092
54.990 9.757462
54.995 9.427834
55.000 9.393628
55.005 9.131038
55.010 9.187979
55.015 9.005933
55.020 9.07323
55.025 9.766837
55.030 10.25378
55.035 10.528481
55.040 10.765683
55.045 10.84582
55.050 10.607062
55.055 10.236422
55.060 9.729032
55.065 9.556328
55.070 9.60353
55.075 9.035461
55.080 9.043465
55.085 9.270559
55.090 9.444416
55.095 9.573675
55.100 9.257107
55.105 9.470337
55.110 9.948568
55.115 10.216514
55.120 9.906536
55.125 9.80094
55.130 9.62956
55.135 9.631866
55.140 9.30512
55.145 9.128248
55.150 8.992708
55.155 9.258915
55.160 9.318302
55.165 9.582903
55.170 9.937724
55.175 10.211596
55.180 10.098085
55.185 10.093184
55.190 9.876963
55.195 10.019284
55.200 10.033822
55.205 9.943232
55.210 9.95207
55.215 10.16595
55.220 9.989505
55.225 9.946748
55.230 9.98631
55.235 10.038423
55.240 10.038372
55.245 9.882496
55.250 9.843113
55.255 9.97242
55.260 10.194532
55.265 10.448254
55.270 10.407802
55.275 10.621752
55.280 10.352317
55.285 9.980625
55.290 9.582186
55.295 9.340139
55.300 9.162819
55.305 9.78552
55.310 9.934727
55.315 10.190849
55.320 10.554353
55.325 10.980117
55.330 11.272913
55.335 11.275071
55.340 10.827846
55.345 10.347884
55.350 9.774601
55.355 9.7353
55.360 9.426074
55.365 9.286353
55.370 9.435556
55.375 9.38711
55.380 9.699154
55.385 9.803608
55.390 9.87805
55.395 9.660571
55.400 9.46319
55.405 9.446536
55.410 9.640463
55.415 9.790959
55.420 10.225842
55.425 10.779641
55.430 11.388149
55.435 11.214009
55.440 10.514794
55.445 10.18003
55.450 10.127835
55.455 9.776571
55.460 9.193661
55.465 8.625342
55.470 8.71055
55.475 8.860662
55.480 8.539021
55.485 8.507754
55.490 8.766845
55.495 9.167512
55.500 9.463916
55.505 9.632926
55.510 10.227786
55.515 10.835969
55.520 10.85268
55.525 10.574555
55.530 10.045086
55.535 10.730412
55.540 11.076545
55.545 11.180831
55.550 11.461084
55.555 11.395374
55.560 11.576898
55.565 11.676526
55.570 11.280536
55.575 10.979717
55.580 10.759093
55.585 10.754059
55.590 10.648275
55.595 10.510632
55.600 10.91389
55.605 10.861428
55.610 11.229464
55.615 11.045023
55.620 11.007842
55.625 11.306411
55.630 11.68174
55.635 11.46491
55.640 11.025607
55.645 11.247909
55.650 11.227605
55.655 11.112294
55.660 10.9264
55.665 10.614944
55.670 10.263451
55.675 10.500285
55.680 10.013179
55.685 10.373908
55.690 10.454934
55.695 10.262216
55.700 9.864515
55.705 9.938969
55.710 9.944868
55.715 10.178117
55.720 9.836847
55.725 9.838263
55.730 9.929229
55.735 10.799923
55.740 11.161297
55.745 10.913256
55.750 10.874334
55.755 10.554916
55.760 10.530287
55.765 10.769712
55.770 11.090775
55.775 10.666039
55.780 10.677941
55.785 10.37332
55.790 10.58471
55.795 10.197423
55.800 9.826515
55.805 8.888939
55.810 8.834235
55.815 8.945783
55.820 9.18859
55.825 9.340591
55.830 10.13219
55.835 10.404233
55.840 11.02862
55.845 11.154605
55.850 10.933506
55.855 10.734347
55.860 10.471459
55.865 10.119458
55.870 10.024923
55.875 9.898684
55.880 10.05752
55.885 10.362184
55.890 10.291965
55.895 10.023561
55.900 9.72814
55.905 9.731044
55.910 9.624229
55.915 9.672721
55.920 9.769491
55.925 9.801905
55.930 10.380157
55.935 10.629786
55.940 10.670194
55.945 11.117918
55.950 11.010182
55.955 10.838078
55.960 10.867324
55.965 10.457963
55.970 10.833072
55.975 10.106649
55.980 9.633624
55.985 9.882143
55.990 9.907872
55.995 10.222232
56.000 10.196004
56.005 9.996628
56.010 10.397958
56.015 10.586325
56.020 10.450518
56.025 10.588036
56.030 10.378074
56.035 10.496163
56.040 10.529486
56.045 11.160794
56.050 11.28629
56.055 11.278489
56.060 11.488975
56.065 11.759495
56.070 11.807251
56.075 11.721264
56.080 11.230497
56.085 11.634316
56.090 11.912
56.095 11.33636
56.100 11.135027
56.105 11.14472
56.110 10.956775
56.115 10.768733
56.120 10.34174
56.125 9.951479
56.130 10.180712
56.135 10.092404
56.140 9.885123
56.145 10.212919
56.150 10.345308
56.155 10.581537
56.160 11.306985
56.165 11.898266
56.170 12.466887
56.175 12.767952
56.180 12.997694
56.185 12.673005
56.190 12.69937
56.195 12.162202
56.200 11.737568
56.205 11.503421
56.210 11.565833
56.215 11.237736
56.220 11.549074
56.225 11.590932
56.230 11.49695
56.235 11.599999
56.240 11.442218
56.245 11.28346
56.250 11.064736
56.255 11.100513
56.260 11.218266
56.265 10.912831
56.270 10.662779
56.275 10.431945
56.280 10.211305
56.285 10.157849
56.290 9.531833
56.295 9.200912
56.300 9.63228
56.305 9.890733
56.310 10.242875
56.315 10.549662
56.320 10.58711
56.325 11.330446
56.330 11.454341
56.335 11.646164
56.340 11.634695
56.345 11.568537
56.350 11.548043
56.355 11.414858
56.360 11.406316
56.365 11.693493
56.370 11.009543
56.375 10.719271
56.380 10.525521
56.385 10.766905
56.390 10.874694
56.395 10.276231
56.400 9.967078
56.405 9.893915
56.410 9.86709
56.415 10.056829
56.420 9.972546
56.425 9.89041
56.430 10.00604
56.435 10.031515
56.440 10.413623
56.445 10.539165
56.450 10.883904
56.455 11.680613
56.460 11.988195
56.465 11.519865
56.470 11.388445
56.475 11.590131
56.480 11.795061
56.485 11.452929
56.490 10.806519
56.495 10.821072
56.500 11.232344
56.505 11.014997
56.510 10.693472
56.515 10.918432
56.520 10.860599
56.525 11.242542
56.530 11.285823
56.535 11.529988
56.540 12.105004
56.545 12.360508
56.550 11.98149
56.555 11.686988
56.560 10.969522
56.565 10.957464
56.570 10.947426
56.575 10.525471
56.580 10.518524
56.585 10.900798
56.590 11.087915
56.595 11.220074
56.600 10.665469
56.605 10.735469
56.610 11.180074
56.615 10.933929
56.620 11.002433
56.625 11.215449
56.630 11.741055
56.635 12.546756
56.640 12.502054
56.645 12.145595
56.650 12.332556
56.655 11.815019
56.660 11.402005
56.665 10.870264
56.670 10.319663
56.675 10.637603
56.680 10.908554
56.685 10.725911
56.690 11.111894
56.695 11.335672
56.700 11.24486
56.705 11.314544
56.710 11.04897
56.715 10.851431
56.720 10.697519
56.725 10.933142
56.730 11.546235
56.735 12.034657
56.740 12.492223
56.745 12.56069
56.750 12.905829
56.755 12.788181
56.760 12.242455
56.765 12.369791
56.770 12.134593
56.775 11.29534
56.780 11.389315
56.785 11.05897
56.790 11.234466
56.795 11.280205
56.800 10.980371
56.805 11.124955
56.810 11.521704
56.815 11.451286
56.820 11.636764
56.825 11.881233
56.830 11.651592
56.835 11.729897
56.840 12.224005
56.845 12.213458
56.850 12.377494
56.855 12.223767
56.860 12.260842
56.865 12.521048
56.870 12.771629
56.875 12.551435
56.880 13.011761
56.885 12.855786
56.890 12.681492
56.895 12.847758
56.900 12.840174
56.905 12.018493
56.910 11.973522
56.915 11.7394
56.920 11.924902
56.925 12.115036
56.930 11.820161
56.935 12.328624
56.940 12.551784
56.945 12.318926
56.950 12.051996
56.955 12.182504
56.960 11.942972
56.965 11.654408
56.970 11.179266
56.975 12.250031
56.980 12.371845
56.985 12.468648
56.990 12.461979
56.995 12.958054
57.000 13.3248
57.005 13.380635
57.010 12.694661
57.015 12.712382
57.020 12.608638
57.025 12.296845
57.030 12.152453
57.035 12.037479
57.040 11.479145
57.045 11.073526
57.050 11.324235
57.055 11.552159
57.060 11.585431
57.065 11.53099
57.070 11.803251
57.075 12.556189
57.080 12.497717
57.085 12.393826
57.090 12.222413
57.095 11.997149
57.100 11.748544
57.105 12.14814
57.110 12.003033
57.115 12.19121
57.120 12.03249
57.125 12.258317
57.130 12.311682
57.135 12.027411
57.140 11.518086
57.145 11.691942
57.150 11.78951
57.155 11.678471
57.160 11.669225
57.165 11.801911
57.170 11.765931
57.175 11.565589
57.180 11.198004
57.185 11.059746
57.190 10.556298
57.195 10.701436
57.200 10.786628
57.205 10.818305
57.210 11.313791
57.215 11.235366
57.220 11.426702
57.225 11.722178
57.230 11.6257
57.235 12.071603
57.240 12.250279
57.245 12.167383
57.250 12.702762
57.255 12.928242
57.260 13.156605
57.265 13.397686
57.270 12.8148
57.275 12.568078
57.280 12.085635
57.285 11.720669
57.290 11.579215
57.295 11.643029
57.300 12.069952
57.305 12.221476
57.310 12.050844
57.315 12.613268
57.320 13.117122
57.325 13.334736
57.330 13.331846
57.335 12.760504
57.340 12.804364
57.345 13.266086
57.350 12.73877
57.355 12.197814
57.360 11.980282
57.365 11.818192
57.370 11.786716
57.375 12.118984
57.380 11.785565
57.385 11.800262
57.390 11.785912
57.395 12.070434
57.400 12.594854
57.405 12.509943
57.410 12.271736
57.415 12.218616
57.420 12.100249
57.425 12.198469
57.430 12.055934
57.435 11.78363
57.440 11.485497
57.445 11.363122
57.450 11.632631
57.455 11.886586
57.460 12.243113
57.465 11.83232
57.470 11.263412
57.475 11.476778
57.480 11.426258
57.485 11.425369
57.490 11.451373
57.495 10.970131
57.500 11.496947
57.505 12.365089
57.510 12.27702
57.515 11.902191
57.520 11.993254
57.525 12.366241
57.530 12.615728
57.535 12.370308
57.540 11.953621
57.545 12.454808
57.550 13.049841
57.555 13.024381
57.560 12.790374
57.565 13.034066
57.570 13.354927
57.575 13.33984
57.580 13.10236
57.585 13.376357
57.590 13.227669
57.595 13.019639
57.600 12.778358
57.605 12.539857
57.610 12.318046
57.615 12.183727
57.620 11.853921
57.625 11.705877
57.630 11.368652
57.635 11.06353
57.640 11.146568
57.645 11.483352
57.650 11.587273
57.655 11.439649
57.660 11.613191
57.665 11.794279
57.670 12.300098
57.675 12.420708
57.680 12.53591
57.685 12.814577
57.690 12.889426
57.695 12.872185
57.700 13.092594
57.705 12.41821
57.710 12.435752
57.715 12.069709
57.720 11.930604
57.725 12.073263
57.730 11.969707
57.735 12.076167
57.740 12.671102
57.745 12.608301
57.750 12.366612
57.755 12.569361
57.760 12.421633
57.765 12.6114
57.770 12.746122
57.775 12.337454
57.780 12.391898
57.785 12.673458
57.790 12.595017
57.795 12.406493
57.800 11.915715
57.805 11.778866
57.810 12.184433
57.815 12.589655
57.820 12.592763
57.825 12.82624
57.830 12.951567
57.835 13.210279
57.840 13.335265
57.845 13.28116
57.850 12.833154
57.855 13.189483
57.860 13.34031
57.865 13.708141
57.870 13.557918
57.875 13.364666
57.880 13.46524
57.885 13.293368
57.890 12.774637
57.895 12.148581
57.900 11.783262
57.905 11.932238
57.910 12.34669
57.915 12.775694
57.920 13.330747
57.925 13.353818
57.930 13.45266
57.935 13.335216
57.940 13.299668
57.945 12.714574
57.950 12.568089
57.955 12.420714
57.960 12.575329
57.965 12.369738
57.970 12.452532
57.975 12.356833
57.980 12.55141
57.985 12.418836
57.990 12.2984
57.995 12.28171
58.000 12.545805
58.005 12.488193
58.010 12.389547
58.015 12.345557
58.020 12.645711
58.025 13.174116
58.030 13.554398
58.035 13.889854
58.040 14.560693
58.045 14.527995
58.050 14.54757
58.055 14.281625
58.060 14.024827
58.065 13.811275
58.070 13.340834
58.075 13.566791
58.080 13.935111
58.085 13.755492
58.090 13.556141
58.095 13.767344
58.100 14.470769
58.105 15.106822
58.110 14.950981
58.115 15.639348
58.120 16.157492
58.125 16.512482
58.130 16.537981
58.135 16.24452
58.140 16.748663
58.145 16.967997
58.150 16.497677
58.155 16.671503
58.160 16.072145
58.165 15.76972
58.170 15.621653
58.175 14.862446
58.180 14.719895
58.185 14.752019
58.190 14.3139
58.195 14.507355
58.200 14.906122
58.205 14.857604
58.210 15.064762
58.215 15.157124
58.220 15.714174
58.225 16.15135
58.230 16.717728
58.235 17.129347
58.240 17.114397
58.245 17.446831
58.250 17.724709
58.255 17.567152
58.260 17.133068
58.265 16.714607
58.270 16.657814
58.275 17.218136
58.280 17.03826
58.285 16.451265
58.290 16.854076
58.295 17.583666
58.300 17.601578
58.305 17.925299
58.310 17.82708
58.315 18.207054
58.320 18.623512
58.325 18.742321
58.330 18.650059
58.335 18.98468
58.340 19.396955
58.345 19.939974
58.350 20.084429
58.355 20.412874
58.360 20.111137
58.365 20.45203
58.370 20.853933
58.375 20.641256
58.380 19.671005
58.385 19.760206
58.390 20.321058
58.395 20.853703
58.400 20.884624
58.405 20.141907
58.410 20.503384
58.415 21.757439
58.420 22.088356
58.425 21.822165
58.430 21.486399
58.435 21.54274
58.440 21.937838
58.445 21.63707
58.450 20.755892
58.455 20.365669
58.460 20.211117
58.465 20.119488
58.470 19.669804
58.475 19.224012
58.480 18.665424
58.485 19.123325
58.490 19.997778
58.495 20.08604
58.500 20.871881
58.505 21.513313
58.510 22.372049
58.515 23.088043
58.520 22.653929
58.525 21.877214
58.530 21.60483
58.535 21.054056
58.540 21.134115
58.545 21.066099
58.550 21.296213
58.555 21.616772
58.560 22.200621
58.565 22.220655
58.570 22.011349
58.575 21.892925
58.580 21.645803
58.585 21.181431
58.590 20.648432
58.595 20.125145
58.600 20.238316
58.605 20.52179
58.610 20.608814
58.615 20.222778
58.620 20.102245
58.625 20.296833
58.630 20.680071
58.635 20.555174
58.640 20.314228
58.645 20.315485
58.650 20.227282
58.655 20.081339
58.660 20.103954
58.665 19.720697
58.670 19.653936
58.675 18.804232
58.680 18.238184
58.685 18.150421
58.690 18.434982
58.695 17.647081
58.700 17.040602
58.705 17.352171
58.710 17.659822
58.715 17.348473
58.720 17.0431
58.725 16.75304
58.730 17.087465
58.735 17.122255
58.740 16.665689
58.745 16.83042
58.750 17.300385
58.755 17.849621
58.760 17.886515
58.765 17.340914
58.770 16.965755
58.775 16.989075
58.780 17.133196
58.785 16.835392
58.790 16.556248
58.795 16.441572
58.800 16.733654
58.805 16.866795
58.810 16.842596
58.815 16.536718
58.820 15.999329
58.825 15.830009
58.830 15.548507
58.835 15.06346
58.840 15.038584
58.845 14.195944
58.850 13.811994
58.855 13.911802
58.860 13.9048
58.865 13.927773
58.870 14.388885
58.875 14.474642
58.880 14.754996
58.885 14.641956
58.890 14.587468
58.895 14.438445
58.900 14.400747
58.905 14.06057
58.910 14.069554
58.915 14.479688
58.920 14.853253
58.925 14.433688
58.930 14.582719
58.935 14.583262
58.940 15.189964
58.945 15.910414
58.950 15.466031
58.955 15.501253
58.960 15.969713
58.965 16.028391
58.970 16.449171
58.975 16.595163
58.980 16.771118
58.985 17.14308
58.990 16.562733
58.995 16.039331
59.000 16.203833
59.005 15.521756
59.010 15.194742
59.015 14.625563
59.020 14.530127
59.025 14.663148
59.030 14.85755
59.035 14.840092
59.040 15.399186
59.045 15.095284
59.050 14.815417
59.055 14.798446
59.060 15.19311
59.065 15.140831
59.070 14.791028
59.075 14.442547
59.080 14.256429
59.085 14.37809
59.090 14.038545
59.095 13.458634
59.100 13.495304
59.105 13.489733
59.110 13.098013
59.115 12.486237
59.120 12.086253
59.125 12.018323
59.130 12.315827
59.135 12.591029
59.140 12.999667
59.145 13.14793
59.150 13.36283
59.155 13.637353
59.160 14.414324
59.165 14.550021
59.170 14.23795
59.175 14.17669
59.180 13.885868
59.185 13.66847
59.190 13.432437
59.195 12.926659
59.200 12.738185
59.205 12.417841
59.210 12.596068
59.215 12.528405
59.220 12.441577
59.225 12.430782
59.230 12.241311
59.235 12.403518
59.240 12.373605
59.245 12.242927
59.250 12.971497
59.255 13.265076
59.260 13.57418
59.265 13.901274
59.270 13.621216
59.275 13.328105
59.280 13.358384
59.285 13.357593
59.290 13.263387
59.295 13.112208
59.300 12.961357
59.305 13.30144
59.310 13.55469
59.315 13.56307
59.320 13.143489
59.325 12.783337
59.330 12.199648
59.335 12.301057
59.340 12.726871
59.345 12.822021
59.350 12.692316
59.355 13.113298
59.360 13.888039
59.365 14.362835
59.370 14.314248
59.375 14.646753
59.380 14.512745
59.385 14.715971
59.390 14.721973
59.395 14.507177
59.400 14.301966
59.405 14.265141
59.410 13.673211
59.415 13.874534
59.420 14.129039
59.425 13.768668
59.430 13.372973
59.435 13.123106
59.440 13.197886
59.445 13.383862
59.450 12.858706
59.455 12.351167
59.460 13.073469
59.465 13.567163
59.470 14.125526
59.475 13.49977
59.480 13.265753
59.485 13.349012
59.490 13.467796
59.495 12.8758
59.500 12.676495
59.505 12.331995
59.510 12.129697
59.515 12.05115
59.520 12.364482
59.525 12.134208
59.530 12.153081
59.535 12.36209
59.540 12.615174
59.545 12.987319
59.550 12.822373
59.555 12.553432
59.560 13.187119
59.565 13.503148
59.570 12.962254
59.575 13.017287
59.580 13.114511
59.585 13.074989
59.590 13.085875
59.595 12.309075
59.600 11.956426
59.605 12.122087
59.610 12.209134
59.615 12.232463
59.620 12.592795
59.625 12.771543
59.630 12.790918
59.635 12.57334
59.640 12.328885
59.645 11.896517
59.650 11.935616
59.655 11.755776
59.660 11.805357
59.665 11.960833
59.670 12.301996
59.675 12.422433
59.680 12.573872
59.685 12.967855
59.690 13.12333
59.695 12.899266
59.700 12.910644
59.705 12.712546
59.710 13.012393
59.715 12.722296
59.720 12.027243
59.725 11.580325
59.730 11.704204
59.735 12.389376
59.740 12.651548
59.745 12.811416
59.750 13.399604
59.755 13.602521
59.760 13.879683
59.765 14.158643
59.770 13.581487
59.775 13.438081
59.780 13.080709
59.785 12.962273
59.790 13.293769
59.795 13.306821
59.800 13.142823
59.805 12.774015
59.810 12.943878
59.815 13.03865
59.820 12.628827
59.825 12.425038
59.830 12.5729
59.835 12.433818
59.840 13.120024
59.845 13.112425
59.850 12.666216
59.855 12.919354
59.860 13.010189
59.865 12.765317
59.870 12.684035
59.875 12.469463
59.880 13.043936
59.885 13.262555
59.890 13.269952
59.895 13.15429
59.900 13.186848
59.905 13.046007
59.910 12.798496
59.915 12.149284
59.920 12.792545
59.925 13.134719
59.930 13.30923
59.935 13.384883
59.940 13.334803
59.945 13.401402
59.950 13.594893
59.955 13.161094
59.960 12.788725
59.965 12.385965
59.970 12.080702
59.975 12.17607
59.980 12.145848
59.985 12.302904
59.990 12.027844
59.995 12.105357
60.000 12.14555
60.005 12.179379
60.010 12.336555
60.015 12.786041
60.020 12.243046
60.025 12.254763
60.030 11.849077
60.035 11.926095
60.040 12.320905
60.045 12.084756
60.050 11.635479
60.055 11.815947
60.060 11.842358
60.065 12.021899
60.070 11.966246
60.075 11.909515
60.080 11.651109
60.085 11.806455
60.090 11.994646
60.095 12.370608
60.100 12.761778
60.105 12.900942
60.110 12.958038
60.115 12.833523
60.120 12.976108
60.125 12.68562
60.130 12.446326
60.135 12.236724
60.140 12.484068
60.145 12.852358
60.150 13.247457
60.155 12.958884
60.160 13.140125
60.165 13.233398
60.170 13.712329
60.175 13.633132
60.180 13.25441
60.185 13.012568
60.190 12.882731
60.195 12.526801
60.200 12.447566
60.205 12.135046
60.210 11.861551
60.215 12.024895
60.220 12.46026
60.225 12.610415
60.230 12.610336
60.235 12.653136
60.240 12.37795
60.245 12.456329
60.250 12.160677
60.255 11.979039
60.260 12.206569
60.265 12.486828
60.270 12.12774
60.275 12.437887
60.280 12.487151
60.285 12.400748
60.290 12.482783
60.295 12.531762
60.300 12.092997
60.305 11.909096
60.310 11.460689
60.315 11.382787
60.320 11.254033
60.325 10.841313
60.330 10.626271
60.335 10.820374
60.340 11.259539
60.345 11.458175
60.350 11.799361
60.355 11.891984
60.360 12.710042
60.365 12.561565
60.370 13.000724
60.375 12.934616
60.380 12.789424
60.385 12.675764
60.390 12.547112
60.395 12.785482
60.400 13.196647
60.405 13.048962
60.410 12.988619
60.415 13.061077
60.420 12.963761
60.425 12.784333
60.430 11.920336
60.435 12.05987
60.440 12.492449
60.445 12.803836
60.450 12.321963
60.455 12.443545
60.460 13.039071
60.465 12.874692
60.470 12.983321
60.475 13.364763
60.480 13.506392
60.485 14.082502
60.490 14.292915
60.495 14.092432
60.500 14.044054
60.505 13.587402
60.510 13.254659
60.515 12.9269
60.520 12.847398
60.525 12.922998
60.530 13.026775
60.535 13.106803
60.540 12.762728
60.545 12.809443
60.550 13.114341
60.555 13.193345
60.560 13.402338
60.565 13.583329
60.570 14.45304
60.575 14.601515
60.580 14.061776
60.585 13.880578
60.590 13.61148
60.595 13.268526
60.600 12.883029
60.605 12.13299
60.610 12.199871
60.615 12.328935
60.620 12.603836
60.625 12.826698
60.630 12.775685
60.635 12.598277
60.640 12.494226
60.645 12.998238
60.650 13.154279
60.655 12.812403
60.660 12.885741
60.665 13.158577
60.670 13.669247
60.675 13.850188
60.680 13.281135
60.685 12.738963
60.690 12.597733
60.695 12.323295
60.700 12.300908
60.705 11.899164
60.710 11.666254
60.715 11.790551
60.720 12.094073
60.725 12.234244
60.730 12.566863
60.735 13.062679
60.740 13.293121
60.745 13.6998
60.750 13.781331
60.755 13.971606
60.760 14.222966
60.765 14.360445
60.770 13.940948
60.775 13.754018
60.780 13.413437
60.785 12.841953
60.790 12.816119
60.795 12.359879
60.800 12.102386
60.805 12.152516
60.810 12.03031
60.815 12.53254
60.820 13.270123
60.825 13.237528
60.830 13.421949
60.835 12.985873
60.840 12.955233
60.845 13.226957
60.850 13.626808
60.855 13.656536
60.860 13.330091
60.865 13.007652
60.870 13.401804
60.875 12.948022
60.880 12.68513
60.885 11.891143
60.890 11.827791
60.895 12.727989
60.900 13.284232
60.905 13.030896
60.910 13.308536
60.915 13.082815
60.920 13.012012
60.925 12.584762
60.930 12.085074
60.935 12.288
60.940 12.500257
60.945 12.242929
60.950 12.100622
60.955 12.135306
60.960 12.061704
60.965 12.102435
60.970 12.327538
60.975 12.49241
60.980 12.787869
60.985 13.302605
60.990 13.436616
60.995 13.661836
61.000 13.460779
61.005 12.811086
61.010 12.659842
61.015 12.815516
61.020 12.956195
61.025 13.036313
61.030 12.718663
61.035 12.650342
61.040 12.630899
61.045 12.356143
61.050 12.15549
61.055 11.597364
61.060 11.401926
61.065 11.934073
61.070 12.231095
61.075 12.667603
61.080 12.810524
61.085 13.541224
61.090 14.352058
61.095 14.23545
61.100 14.047008
61.105 14.01196
61.110 13.85408
61.115 14.007375
61.120 13.427837
61.125 13.127259
61.130 12.942122
61.135 12.752939
61.140 12.425175
61.145 12.66092
61.150 12.319553
61.155 12.142013
61.160 11.942669
61.165 12.42145
61.170 12.807455
61.175 13.195991
61.180 13.180063
61.185 13.143066
61.190 13.551125
61.195 14.311849
61.200 14.499075
61.205 14.244129
61.210 14.128734
61.215 14.041151
61.220 14.459579
61.225 14.207322
61.230 14.083895
61.235 14.17402
61.240 13.995476
61.245 13.898128
61.250 13.824271
61.255 13.300208
61.260 12.775802
61.265 12.484025
61.270 12.157876
61.275 11.91915
61.280 12.15265
61.285 12.136284
61.290 12.471833
61.295 12.850049
61.300 13.126675
61.305 13.187998
61.310 14.07356
61.315 14.24941
61.320 14.507771
61.325 14.718791
61.330 14.580104
61.335 14.434336
61.340 14.65816
61.345 13.894794
61.350 13.364546
61.355 13.407881
61.360 13.402351
61.365 13.437622
61.370 13.588672
61.375 13.188019
61.380 12.84829
61.385 12.824531
61.390 12.962943
61.395 13.110043
61.400 12.92915
61.405 12.62559
61.410 12.759457
61.415 12.973364
61.420 13.207388
61.425 12.870235
61.430 12.756645
61.435 13.220253
61.440 13.00566
61.445 12.900563
61.450 12.848594
61.455 12.766718
61.460 12.564511
61.465 12.370166
61.470 11.894835
61.475 12.161098
61.480 12.356896
61.485 12.568569
61.490 12.622805
61.495 12.940287
61.500 13.426398
61.505 13.507853
61.510 13.319573
61.515 13.366234
61.520 13.187891
61.525 13.07313
61.530 12.954045
61.535 12.518294
61.540 13.03422
61.545 13.619193
61.550 13.954462
61.555 14.403526
61.560 14.322256
61.565 14.318257
61.570 14.351028
61.575 14.106988
61.580 13.570333
61.585 13.433376
61.590 13.170432
61.595 13.597044
61.600 13.712411
61.605 14.023149
61.610 13.993057
61.615 13.951059
61.620 13.846569
61.625 13.677668
61.630 13.162344
61.635 13.021692
61.640 12.701401
61.645 13.221144
61.650 13.585731
61.655 13.766465
61.660 13.896055
61.665 13.75285
61.670 13.484992
61.675 13.441091
61.680 12.789567
61.685 12.036582
61.690 11.877932
61.695 12.03188
61.700 12.206931
61.705 12.295556
61.710 12.627062
61.715 12.95487
61.720 13.223321
61.725 13.0835
61.730 12.935287
61.735 13.150697
61.740 12.862911
61.745 12.191325
61.750 12.211
61.755 12.722033
61.760 12.768169
61.765 12.735385
61.770 12.497742
61.775 12.838238
61.780 13.43111
61.785 13.204747
61.790 13.012964
61.795 13.349639
61.800 13.52181
61.805 13.756135
61.810 13.848307
61.815 14.100326
61.820 14.496904
61.825 14.934459
61.830 14.508737
61.835 14.541406
61.840 14.527081
61.845 14.537523
61.850 14.395234
61.855 14.393017
61.860 14.410737
61.865 14.654982
61.870 14.839473
61.875 14.828759
61.880 14.961105
61.885 15.255868
61.890 14.951631
61.895 14.344974
61.900 14.172473
61.905 13.693925
61.910 13.949542
61.915 13.695889
61.920 13.570244
61.925 13.731752
61.930 13.951377
61.935 14.094407
61.940 14.3451
61.945 14.094046
61.950 14.124312
61.955 14.025687
61.960 14.142115
61.965 14.270632
61.970 14.130243
61.975 14.236581
61.980 13.957684
61.985 13.631134
61.990 13.461046
61.995 13.243485
62.000 12.818529
62.005 12.810477
62.010 12.513983
62.015 12.580539
62.020 13.082314
62.025 13.529154
62.030 13.795163
62.035 13.835802
62.040 13.912832
62.045 14.124838
62.050 14.218527
62.055 13.534536
62.060 13.011152
62.065 12.514243
62.070 12.939101
62.075 12.615817
62.080 12.307176
62.085 12.100595
62.090 12.353902
62.095 12.216942
62.100 12.544294
62.105 12.697968
62.110 13.20839
62.115 13.890659
62.120 13.900169
62.125 13.579301
62.130 13.847815
62.135 13.60708
62.140 13.214889
62.145 13.067322
62.150 12.873384
62.155 13.149272
62.160 13.206998
62.165 12.85936
62.170 13.459719
62.175 13.694054
62.180 13.592753
62.185 13.930923
62.190 14.35604
62.195 14.928343
62.200 14.890916
62.205 13.846457
62.210 13.584262
62.215 13.790413
62.220 13.491571
62.225 13.100721
62.230 12.634957
62.235 12.778884
62.240 13.172816
62.245 13.497925
62.250 13.122712
62.255 12.883659
62.260 12.38207
62.265 12.526032
62.270 12.943754
62.275 13.301426
62.280 13.437896
62.285 13.441131
62.290 13.444626
62.295 14.027979
62.300 13.851938
62.305 13.848674
62.310 13.608521
62.315 13.238484
62.320 13.472825
62.325 13.702452
62.330 13.745575
62.335 13.930832
62.340 13.793185
62.345 13.61314
62.350 13.105906
62.355 12.402137
62.360 11.738453
62.365 11.643168
62.370 11.660441
62.375 11.900589
62.380 12.51775
62.385 12.904853
62.390 13.130812
62.395 13.499246
62.400 13.585735
62.405 13.53849
62.410 13.142788
62.415 12.914846
62.420 12.947436
62.425 13.360685
62.430 13.861677
62.435 13.829247
62.440 13.90164
62.445 13.989044
62.450 14.696883
62.455 15.542385
62.460 15.446128
62.465 15.34691
62.470 15.501197
62.475 15.255951
62.480 15.048329
62.485 14.145884
62.490 13.555902
62.495 13.465328
62.500 13.022116
62.505 12.888052
62.510 13.259136
62.515 13.525806
62.520 13.173041
62.525 13.0344
62.530 12.746259
62.535 13.065513
62.540 12.993153
62.545 12.834845
62.550 12.491567
62.555 13.4476
62.560 14.113085
62.565 14.634444
62.570 14.280008
62.575 14.042568
62.580 14.512414
62.585 14.75768
62.590 14.431378
62.595 14.020545
62.600 14.188982
62.605 14.75463
62.610 15.011003
62.615 14.5872
62.620 14.090602
62.625 14.021842
62.630 14.190217
62.635 14.43139
62.640 14.111326
62.645 13.948808
62.650 13.863964
62.655 13.988139
62.660 13.923185
62.665 13.855142
62.670 13.456691
62.675 13.838419
62.680 14.114928
62.685 14.522947
62.690 14.584013
62.695 14.666216
62.700 14.168763
62.705 13.979743
62.710 13.775842
62.715 13.331966
62.720 13.45766
62.725 13.558131
62.730 13.627527
62.735 14.233788
62.740 14.46769
62.745 14.71196
62.750 15.19945
62.755 14.787268
62.760 14.5614
62.765 14.56372
62.770 14.18817
62.775 14.149121
62.780 14.254329
62.785 13.806998
62.790 13.900406
62.795 14.186145
62.800 14.211617
62.805 14.177171
62.810 13.782097
62.815 13.757153
62.820 13.972895
62.825 14.025931
62.830 14.23264
62.835 15.011273
62.840 15.610747
62.845 15.410962
62.850 15.288738
62.855 15.087288
62.860 14.880481
62.865 14.578494
62.870 13.772323
62.875 13.33686
62.880 13.299931
62.885 13.083543
62.890 12.971924
62.895 12.92068
62.900 13.188013
62.905 13.442724
62.910 13.658599
62.915 13.858491
62.920 13.8536
62.925 14.181035
62.930 14.367006
62.935 14.232014
62.940 13.735429
62.945 13.380521
62.950 13.08165
62.955 13.334916
62.960 13.090067
62.965 13.079261
62.970 13.267961
62.975 13.617333
62.980 14.036363
62.985 14.043498
62.990 14.073737
62.995 14.507205
63.000 14.315742
63.005 14.300049
63.010 14.240977
63.015 13.888424
63.020 14.335091
63.025 13.959416
63.030 13.960339
63.035 14.531125
63.040 13.950388
63.045 14.168797
63.050 14.510415
63.055 14.310086
63.060 14.41796
63.065 14.138515
63.070 13.847187
63.075 14.159098
63.080 14.003706
63.085 14.534747
63.090 14.863338
63.095 14.982424
63.100 14.604483
63.105 14.737429
63.110 14.90762
63.115 15.328755
63.120 14.82636
63.125 14.436209
63.130 14.902678
63.135 15.314628
63.140 14.783773
63.145 14.586961
63.150 13.941821
63.155 13.941959
63.160 13.634332
63.165 13.24406
63.170 13.191687
63.175 13.565148
63.180 13.84406
63.185 14.037374
63.190 13.982029
63.195 13.972209
63.200 14.067852
63.205 14.310608
63.210 14.462234
63.215 14.561358
63.220 14.63002
63.225 14.491823
63.230 14.671443
63.235 14.141162
63.240 13.699547
63.245 13.409643
63.250 13.137012
63.255 13.237119
63.260 13.706328
63.265 13.874509
63.270 14.645992
63.275 15.192814
63.280 15.480663
63.285 15.729072
63.290 16.062096
63.295 16.276342
63.300 16.309038
63.305 16.202904
63.310 15.864011
63.315 15.874941
63.320 15.846566
63.325 15.637994
63.330 14.898405
63.335 14.869619
63.340 14.912641
63.345 15.095189
63.350 15.022272
63.355 15.223063
63.360 15.906387
63.365 16.42885
63.370 16.516947
63.375 16.440531
63.380 16.495222
63.385 16.369972
63.390 15.511185
63.395 14.536077
63.400 14.251376
63.405 14.380622
63.410 14.38058
63.415 13.931278
63.420 13.874828
63.425 14.359456
63.430 15.02506
63.435 15.772973
63.440 15.801858
63.445 15.746266
63.450 16.28174
63.455 17.019272
63.460 17.440525
63.465 17.169973
63.470 17.290003
63.475 17.020912
63.480 17.285818
63.485 17.089445
63.490 16.385431
63.495 16.219524
63.500 16.662203
63.505 16.245253
63.510 16.314518
63.515 16.153414
63.520 15.886281
63.525 15.742143
63.530 15.016579
63.535 14.455232
63.540 14.610074
63.545 14.367453
63.550 14.180454
63.555 14.346603
63.560 14.61033
63.565 14.939098
63.570 14.735563
63.575 14.893691
63.580 14.973903
63.585 14.757246
63.590 15.172047
63.595 14.888283
63.600 14.651828
63.605 14.536945
63.610 14.31507
63.615 15.197833
63.620 16.039165
63.625 16.185057
63.630 16.905254
63.635 17.271828
63.640 17.631302
63.645 17.878023
63.650 17.33243
63.655 16.821358
63.660 16.807684
63.665 16.718668
63.670 16.26833
63.675 15.769889
63.680 15.215613
63.685 15.125152
63.690 14.943637
63.695 15.124069
63.700 15.256162
63.705 15.906323
63.710 15.934821
63.715 15.843704
63.720 15.723399
63.725 15.964598
63.730 15.604735
63.735 15.846547
63.740 16.295759
63.745 16.973059
63.750 17.731533
63.755 18.198103
63.760 18.356781
63.765 18.514439
63.770 17.840771
63.775 18.13155
63.780 18.772865
63.785 19.041534
63.790 19.342918
63.795 19.245016
63.800 19.21312
63.805 19.556782
63.810 19.314692
63.815 19.087265
63.820 19.274418
63.825 19.075399
63.830 19.494192
63.835 19.853233
63.840 19.657345
63.845 19.672129
63.850 19.491598
63.855 18.869181
63.860 18.980848
63.865 19.525873
63.870 19.889137
63.875 20.381487
63.880 20.635372
63.885 20.674259
63.890 21.020819
63.895 21.425755
63.900 21.761391
63.905 21.998346
63.910 21.828552
63.915 21.198805
63.920 21.360287
63.925 21.549541
63.930 20.996466
63.935 20.54504
63.940 20.090612
63.945 19.993332
63.950 21.186188
63.955 21.582472
63.960 21.395557
63.965 21.814205
63.970 21.828396
63.975 22.283997
63.980 22.72291
63.985 22.354765
63.990 22.766235
63.995 23.253473
64.000 23.269619
64.005 23.698633
64.010 24.788692
64.015 25.385769
64.020 25.667013
64.025 25.97966
64.030 26.211157
64.035 25.94043
64.040 25.490177
64.045 24.924366
64.050 24.940552
64.055 24.442373
64.060 23.947428
64.065 23.70001
64.070 24.01178
64.075 23.72517
64.080 23.538128
64.085 23.636129
64.090 24.178474
64.095 23.929766
64.100 24.021904
64.105 24.124605
64.110 24.151194
64.115 24.33032
64.120 24.296371
64.125 24.151974
64.130 23.884045
64.135 23.71266
64.140 23.838226
64.145 24.187187
64.150 24.055042
64.155 23.155859
64.160 23.310095
64.165 24.157211
64.170 24.433805
64.175 24.23354
64.180 23.587595
64.185 24.355227
64.190 25.527647
64.195 25.050381
64.200 24.356712
64.205 24.137928
64.210 24.307798
64.215 24.427336
64.220 23.703447
64.225 22.606558
64.230 22.670124
64.235 23.016983
64.240 22.544199
64.245 22.811785
64.250 22.800756
64.255 22.435322
64.260 22.845324
64.265 22.146353
64.270 21.445707
64.275 21.368296
64.280 21.333719
64.285 21.494429
64.290 22.003517
64.295 22.159637
64.300 22.799994
64.305 22.810488
64.310 22.726564
64.315 22.281057
64.320 21.976652
64.325 21.736492
64.330 20.957567
64.335 20.610937
64.340 21.000286
64.345 21.547365
64.350 21.653574
64.355 22.032778
64.360 22.105217
64.365 22.73526
64.370 22.885199
64.375 22.54073
64.380 22.672369
64.385 22.661396
64.390 22.242798
64.395 21.942074
64.400 21.761164
64.405 22.419767
64.410 22.188593
64.415 21.579428
64.420 21.572756
64.425 21.78895
64.430 21.859827
64.435 22.268654
64.440 21.402496
64.445 21.413507
64.450 21.556217
64.455 20.992977
64.460 20.600756
64.465 20.239157
64.470 19.390871
64.475 19.388195
64.480 19.249283
64.485 18.829412
64.490 19.102074
64.495 19.600502
64.500 19.359211
64.505 20.027464
64.510 20.151211
64.515 20.33618
64.520 20.79948
64.525 20.637146
64.530 20.157801
64.535 20.324154
64.540 19.926186
64.545 19.771267
64.550 19.297728
64.555 19.231207
64.560 18.206789
64.565 18.165478
64.570 18.079191
64.575 18.025133
64.580 18.05139
64.585 18.309984
64.590 18.206032
64.595 18.933405
64.600 19.013559
64.605 18.482454
64.610 18.311831
64.615 19.046263
64.620 18.678942
64.625 18.50174
64.630 18.598881
64.635 18.493372
64.640 18.312998
64.645 17.883724
64.650 17.058624
64.655 17.333677
64.660 17.708887
64.665 17.306656
64.670 17.071363
64.675 17.266291
64.680 17.8214
64.685 17.57897
64.690 17.370846
64.695 17.273193
64.700 17.519142
64.705 17.407589
64.710 17.10206
64.715 16.969412
64.720 17.331783
64.725 17.536175
64.730 17.379265
64.735 17.278215
64.740 17.429737
64.745 17.793972
64.750 17.92996
64.755 17.86025
64.760 17.749956
64.765 17.90432
64.770 18.085367
64.775 18.314404
64.780 18.082983
64.785 18.070457
64.790 17.7138
64.795 17.271235
64.800 17.026503
64.805 16.925131
64.810 16.853596
64.815 17.091942
64.820 16.914179
64.825 17.180624
64.830 17.518173
64.835 17.45705
64.840 16.880329
64.845 16.558109
64.850 16.806051
64.855 17.508213
64.860 17.351055
64.865 17.109165
64.870 17.125244
64.875 17.161312
64.880 17.644674
64.885 16.957563
64.890 16.674448
64.895 17.113226
64.900 17.401344
64.905 18.204885
64.910 18.631998
64.915 18.707766
64.920 19.129654
64.925 19.203566
64.930 19.095287
64.935 19.621473
64.940 19.521843
64.945 19.654579
64.950 19.658215
64.955 20.14884
64.960 20.114347
64.965 20.215599
64.970 20.232542
64.975 20.798006
64.980 21.531309
64.985 22.173273
64.990 21.73077
64.995 22.139034
65.000 22.507099
65.005 22.766548
65.010 22.454378
65.015 21.990782
65.020 22.449804
65.025 22.852388
65.030 23.080765
65.035 22.963455
65.040 22.597073
65.045 22.940899
65.050 22.882458
65.055 22.402597
65.060 22.559885
65.065 22.285385
65.070 22.611221
65.075 23.360857
65.080 23.052382
65.085 22.899076
65.090 22.786066
65.095 22.585529
65.100 21.87796
65.105 21.136209
65.110 20.356569
65.115 20.531326
65.120 20.40732
65.125 20.090439
65.130 19.894529
65.135 20.647055
65.140 20.474482
65.145 20.302198
65.150 19.764824
65.155 19.440496
65.160 19.595301
65.165 19.770185
65.170 19.308275
65.175 19.250021
65.180 19.548367
65.185 20.214453
65.190 20.123222
65.195 19.934
65.200 20.21472
65.205 20.092068
65.210 20.751852
65.215 20.30554
65.220 20.314198
65.225 20.697603
65.230 19.944115
65.235 19.038284
65.240 19.187502
65.245 18.803612
65.250 18.769814
65.255 18.504318
65.260 18.93667
65.265 19.817427
65.270 20.005234
65.275 20.398569
65.280 20.220959
65.285 19.818691
65.290 19.291899
65.295 18.614531
65.300 18.253561
65.305 18.162512
65.310 18.026447
65.315 17.854214
65.320 18.643042
65.325 18.612751
65.330 18.623875
65.335 18.777071
65.340 18.773485
65.345 18.30797
65.350 18.349342
65.355 17.71216
65.360 17.841053
65.365 17.850956
65.370 17.211243
65.375 16.440395
65.380 16.557583
65.385 16.64732
65.390 17.101357
65.395 17.050829
65.400 16.634075
65.405 17.215757
65.410 17.572332
65.415 17.177937
65.420 16.958319
65.425 16.212692
65.430 15.774685
65.435 16.046097
65.440 16.374725
65.445 16.395668
65.450 16.350645
65.455 15.941026
65.460 16.161875
65.465 16.520805
65.470 16.267073
65.475 15.875261
65.480 15.85012
65.485 15.512229
65.490 15.40211
65.495 15.296754
65.500 15.007912
65.505 15.70298
65.510 15.674625
65.515 15.420362
65.520 15.255569
65.525 15.585983
65.530 15.970572
65.535 16.548531
65.540 15.7727
65.545 15.374677
65.550 15.320765
65.555 16.231655
65.560 16.473272
65.565 15.988079
65.570 15.884388
65.575 16.397902
65.580 16.821924
65.585 17.342144
65.590 17.420618
65.595 17.200888
65.600 17.426186
65.605 17.029058
65.610 17.24444
65.615 17.618946
65.620 17.291904
65.625 17.064789
65.630 16.800146
65.635 16.765682
65.640 16.959524
65.645 17.135826
65.650 16.989475
65.655 16.802298
65.660 17.357744
65.665 17.638731
65.670 17.581438
65.675 17.178978
65.680 16.958174
65.685 16.998697
65.690 17.271555
65.695 17.018438
65.700 17.023098
65.705 16.967905
65.710 16.884489
65.715 16.700138
65.720 16.536699
65.725 16.591774
65.730 16.61364
65.735 17.082186
65.740 17.627523
65.745 18.006084
65.750 18.498802
65.755 18.743397
65.760 19.14464
65.765 18.983786
65.770 18.6703
65.775 19.168865
65.780 19.550608
65.785 19.280323
65.790 19.463467
65.795 19.62356
65.800 19.639128
65.805 20.206553
65.810 20.350361
65.815 20.52145
65.820 20.664078
65.825 20.454737
65.830 20.58593
65.835 21.059748
65.840 21.02747
65.845 20.673382
65.850 20.891266
65.855 22.36816
65.860 23.289011
65.865 23.407434
65.870 23.795105
65.875 23.633289
65.880 23.955677
65.885 23.897936
65.890 23.336487
65.895 23.655624
65.900 24.464983
65.905 24.620729
65.910 24.177513
65.915 24.172657
65.920 24.562321
65.925 24.372339
65.930 23.821281
65.935 23.666048
65.940 24.041552
65.945 25.151102
65.950 25.490114
65.955 25.992109
65.960 26.961079
65.965 27.068813
65.970 27.040728
65.975 27.29575
65.980 27.542492
65.985 27.297604
65.990 27.790833
65.995 28.592604
66.000 29.743284
66.005 30.187597
66.010 30.335024
66.015 30.25182
66.020 30.108109
66.025 29.733027
66.030 29.233778
66.035 28.964296
66.040 28.403601
66.045 28.084925
66.050 28.411009
66.055 29.060066
66.060 29.429407
66.065 29.384502
66.070 30.132439
66.075 30.672756
66.080 31.049353
66.085 30.659163
66.090 31.159719
66.095 31.541477
66.100 31.61397
66.105 30.720499
66.110 30.427441
66.115 30.905621
66.120 30.916222
66.125 30.473503
66.130 30.003273
66.135 30.57807
66.140 31.465437
66.145 31.702244
66.150 31.27751
66.155 31.312563
66.160 31.039833
66.165 31.288465
66.170 31.579094
66.175 32.361088
66.180 32.744274
66.185 33.602455
66.190 33.636379
66.195 33.488693
66.200 32.981995
66.205 32.385418
66.210 31.345543
66.215 30.756741
66.220 29.758648
66.225 29.379061
66.230 29.610565
66.235 29.19915
66.240 29.066833
66.245 29.119818
66.250 28.955906
66.255 28.274767
66.260 27.751261
66.265 27.187321
66.270 26.936222
66.275 26.250965
66.280 26.064436
66.285 26.315956
66.290 27.354715
66.295 27.810963
66.300 27.766474
66.305 28.046282
66.310 27.60433
66.315 26.666471
66.320 25.593307
66.325 25.35092
66.330 25.073698
66.335 24.85545
66.340 24.035137
66.345 23.612717
66.350 23.288212
66.355 23.491043
66.360 23.162712
66.365 22.561474
66.370 22.437359
66.375 22.359871
66.380 22.513538
66.385 22.930162
66.390 22.416811
66.395 22.224426
66.400 22.375059
66.405 22.678486
66.410 23.413454
66.415 23.351269
66.420 23.39036
66.425 23.054432
66.430 22.455681
66.435 22.402679
66.440 21.945953
66.445 21.188753
66.450 20.917015
66.455 20.519857
66.460 20.748922
66.465 21.061586
66.470 21.073196
66.475 20.56333
66.480 20.44483
66.485 20.473721
66.490 20.930382
66.495 20.957891
66.500 20.999983
66.505 20.742571
66.510 20.701851
66.515 20.070158
66.520 19.695438
66.525 18.878428
66.530 18.784578
66.535 18.567175
66.540 18.359005
66.545 18.43107
66.550 18.614483
66.555 18.489258
66.560 18.665506
66.565 18.416422
66.570 17.914621
66.575 17.635065
66.580 17.32579
66.585 16.951317
66.590 16.610882
66.595 16.144196
66.600 15.950851
66.605 16.437332
66.610 16.405706
66.615 16.394123
66.620 16.948082
66.625 17.430634
66.630 17.184673
66.635 16.970877
66.640 16.481798
66.645 16.358904
66.650 16.253384
66.655 15.847003
66.660 15.235065
66.665 15.051761
66.670 15.166578
66.675 15.271784
66.680 15.341909
66.685 15.262589
66.690 15.272999
66.695 15.447347
66.700 15.799734
66.705 15.919056
66.710 15.917206
66.715 15.667741
66.720 15.647348
66.725 15.875149
66.730 15.752582
66.735 15.493759
66.740 15.704977
66.745 15.225113
66.750 15.243567
66.755 15.19916
66.760 15.026131
66.765 14.712617
66.770 14.696379
66.775 14.546043
66.780 15.014204
66.785 15.115811
66.790 14.289728
66.795 14.127885
66.800 14.587235
66.805 14.840657
66.810 14.947415
66.815 15.445061
66.820 15.401044
66.825 15.593676
66.830 15.636048
66.835 15.057911
66.840 14.878706
66.845 14.713276
66.850 14.393209
66.855 14.488851
66.860 14.844322
66.865 14.689561
66.870 15.128502
66.875 15.169297
66.880 14.966613
66.885 15.361163
66.890 15.427373
66.895 15.489252
66.900 15.320358
66.905 15.33392
66.910 15.653022
66.915 15.578608
66.920 14.948919
66.925 14.80075
66.930 15.137074
66.935 15.477394
66.940 15.255436
66.945 15.563117
66.950 15.638343
66.955 15.688221
66.960 15.741895
66.965 15.868213
66.970 15.466715
66.975 15.730705
66.980 15.404526
66.985 15.190252
66.990 15.494485
66.995 15.462591
67.000 15.497736
67.005 15.791586
67.010 15.319255
67.015 15.174585
67.020 15.195645
67.025 15.164387
67.030 14.927728
67.035 14.665611
67.040 14.25845
67.045 14.301336
67.050 14.126178
67.055 14.041128
67.060 13.877273
67.065 14.008568
67.070 14.193867
67.075 15.033796
67.080 15.197682
67.085 15.160723
67.090 15.083653
67.095 14.992971
67.100 14.85452
67.105 14.215764
67.110 13.794065
67.115 13.647669
67.120 14.127104
67.125 14.092726
67.130 14.056285
67.135 13.74163
67.140 14.243748
67.145 14.425285
67.150 14.444997
67.155 13.749827
67.160 13.829933
67.165 14.340487
67.170 14.661407
67.175 14.122042
67.180 14.026509
67.185 14.107952
67.190 14.39977
67.195 14.639901
67.200 14.626799
67.205 14.256037
67.210 14.570546
67.215 14.708646
67.220 14.55138
67.225 14.245477
67.230 14.208826
67.235 13.787167
67.240 14.331869
67.245 14.173185
67.250 14.055393
67.255 14.508994
67.260 14.979477
67.265 14.775995
67.270 14.671446
67.275 14.755095
67.280 14.996186
67.285 15.311357
67.290 15.437981
67.295 15.334002
67.300 15.52266
67.305 15.724448
67.310 15.733953
67.315 15.510273
67.320 15.012259
67.325 14.884643
67.330 14.642347
67.335 14.498081
67.340 14.5208
67.345 14.5985
67.350 14.932405
67.355 15.325372
67.360 15.241956
67.365 15.389984
67.370 15.347914
67.375 14.769374
67.380 14.401834
67.385 14.392301
67.390 13.832581
67.395 13.88599
67.400 14.241951
67.405 14.500536
67.410 14.713422
67.415 14.978111
67.420 14.307736
67.425 14.798934
67.430 14.537849
67.435 14.159718
67.440 14.720639
67.445 15.01865
67.450 15.26198
67.455 15.550237
67.460 15.235568
67.465 15.257634
67.470 15.040458
67.475 14.232249
67.480 13.794212
67.485 13.712191
67.490 13.611117
67.495 14.018991
67.500 14.618314
67.505 14.734
67.510 14.869844
67.515 14.934218
67.520 14.485186
67.525 14.860186
67.530 14.497716
67.535 13.94018
67.540 14.085917
67.545 14.416713
67.550 15.197656
67.555 15.824456
67.560 15.360525
67.565 15.426833
67.570 15.240026
67.575 15.103094
67.580 14.876937
67.585 13.792199
67.590 13.627868
67.595 13.988
67.600 13.918438
67.605 14.540278
67.610 14.966785
67.615 15.407129
67.620 15.9792
67.625 16.053846
67.630 15.765055
67.635 15.67837
67.640 15.635695
67.645 15.364402
67.650 14.965189
67.655 15.355327
67.660 15.345325
67.665 15.648435
67.670 15.797131
67.675 15.490713
67.680 15.442794
67.685 15.462026
67.690 15.191352
67.695 15.536422
67.700 15.167147
67.705 14.921159
67.710 15.368694
67.715 15.913421
67.720 15.707128
67.725 15.789673
67.730 15.662282
67.735 15.642076
67.740 15.84441
67.745 15.535651
67.750 15.558146
67.755 15.42094
67.760 14.978707
67.765 15.187832
67.770 15.539689
67.775 15.313753
67.780 15.377048
67.785 15.241256
67.790 15.257453
67.795 15.326761
67.800 15.621988
67.805 15.516521
67.810 15.519378
67.815 15.075168
67.820 14.982609
67.825 15.397086
67.830 15.195647
67.835 15.198637
67.840 15.334331
67.845 15.133969
67.850 15.279631
67.855 15.687356
67.860 15.132282
67.865 15.335446
67.870 14.855021
67.875 15.053146
67.880 15.420665
67.885 14.99743
67.890 14.449005
67.895 14.494277
67.900 14.356242
67.905 14.586024
67.910 14.60363
67.915 15.196178
67.920 15.542525
67.925 15.509399
67.930 15.518616
67.935 15.513044
67.940 15.466844
67.945 15.243258
67.950 15.008106
67.955 15.121795
67.960 15.449677
67.965 15.367854
67.970 15.323408
67.975 15.323545
67.980 15.354599
67.985 15.687733
67.990 15.7656
67.995 15.656326
68.000 15.457006
68.005 15.164268
68.010 15.25402
68.015 15.607107
68.020 15.129272
68.025 14.965714
68.030 14.994315
68.035 15.532763
68.040 16.37454
68.045 16.314775
68.050 16.04574
68.055 16.263365
68.060 16.23155
68.065 15.874033
68.070 15.580853
68.075 15.048481
68.080 15.022993
68.085 15.278751
68.090 14.974474
68.095 15.949718
68.100 16.227848
68.105 17.16328
68.110 17.38879
68.115 17.260017
68.120 17.034536
68.125 17.055977
68.130 16.563793
68.135 16.303106
68.140 15.565831
68.145 15.574685
68.150 15.437177
68.155 15.657146
68.160 15.611839
68.165 15.218184
68.170 15.616026
68.175 15.786023
68.180 15.889045
68.185 15.768164
68.190 15.987936
68.195 16.137098
68.200 16.395014
68.205 15.921818
68.210 15.749168
68.215 15.788575
68.220 15.636915
68.225 15.332051
68.230 15.631075
68.235 15.895671
68.240 15.75547
68.245 15.44035
68.250 15.097692
68.255 15.038347
68.260 14.802991
68.265 14.450923
68.270 14.393567
68.275 14.517838
68.280 14.275001
68.285 14.220729
68.290 13.778708
68.295 13.948487
68.300 13.817702
68.305 13.834523
68.310 13.829823
68.315 14.951372
68.320 15.533629
68.325 16.107452
68.330 15.610812
68.335 15.706473
68.340 15.746005
68.345 15.502407
68.350 14.417967
68.355 14.088898
68.360 14.039721
68.365 14.164413
68.370 14.489985
68.375 14.84377
68.380 14.748876
68.385 14.802512
68.390 14.855495
68.395 14.882404
68.400 15.096304
68.405 14.624136
68.410 14.540134
68.415 14.914801
68.420 15.49842
68.425 15.722442
68.430 15.158062
68.435 14.7583
68.440 14.784858
68.445 14.722363
68.450 14.792562
68.455 14.291152
68.460 14.565651
68.465 15.15824
68.470 15.405326
68.475 15.340873
68.480 15.104425
68.485 15.04618
68.490 15.390503
68.495 15.047281
68.500 14.841216
68.505 14.522582
68.510 15.119243
68.515 15.649185
68.520 15.544576
68.525 15.790285
68.530 16.47204
68.535 17.006943
68.540 16.971003
68.545 16.419907
68.550 16.155081
68.555 16.218203
68.560 15.766694
68.565 15.09301
68.570 15.07086
68.575 15.535963
68.580 15.706338
68.585 15.82162
68.590 15.824693
68.595 16.092123
68.600 16.339903
68.605 15.828776
68.610 15.387551
68.615 15.478829
68.620 15.310133
68.625 15.197886
68.630 15.623151
68.635 15.628396
68.640 16.103537
68.645 16.840492
68.650 17.060154
68.655 17.369291
68.660 17.495043
68.665 16.507452
68.670 16.630068
68.675 16.917744
68.680 16.479481
68.685 16.189253
68.690 16.701399
68.695 16.735727
68.700 17.370901
68.705 17.663513
68.710 17.939568
68.715 17.929644
68.720 17.828638
68.725 17.201967
68.730 17.49222
68.735 17.736958
68.740 17.107021
68.745 16.109488
68.750 15.941987
68.755 15.936424
68.760 16.364222
68.765 16.7017
68.770 16.70628
68.775 17.036797
68.780 17.527443
68.785 17.848379
68.790 17.787886
68.795 17.774639
68.800 17.705885
68.805 17.562244
68.810 17.543383
68.815 17.688765
68.820 17.218973
68.825 16.941332
68.830 16.523155
68.835 16.307577
68.840 16.516657
68.845 16.730814
68.850 16.938732
68.855 17.215294
68.860 17.10091
68.865 17.041197
68.870 16.842886
68.875 16.65107
68.880 16.576464
68.885 16.417234
68.890 16.684355
68.895 17.477663
68.900 17.905146
68.905 18.32205
68.910 18.663801
68.915 18.470619
68.920 18.751186
68.925 18.853609
68.930 18.904968
68.935 18.883215
68.940 18.289877
68.945 17.727415
68.950 17.571201
68.955 17.560337
68.960 17.687605
68.965 17.749609
68.970 17.930338
68.975 18.388985
68.980 18.936331
68.985 19.297483
68.990 19.515455
68.995 19.336662
69.000 19.785252
69.005 20.353302
69.010 20.210438
69.015 20.453426
69.020 20.799549
69.025 21.036142
69.030 20.88307
69.035 19.796053
69.040 20.07662
69.045 20.312008
69.050 20.836981
69.055 21.067894
69.060 20.83897
69.065 21.622097
69.070 22.191889
69.075 22.185503
69.080 22.051811
69.085 21.547934
69.090 21.951874
69.095 22.616234
69.100 22.789427
69.105 22.61068
69.110 22.547995
69.115 23.12575
69.120 23.509193
69.125 23.301468
69.130 23.383785
69.135 23.617779
69.140 24.0933
69.145 24.2372
69.150 24.208315
69.155 24.286242
69.160 24.257883
69.165 24.856295
69.170 25.48
69.175 25.871145
69.180 26.468666
69.185 26.95142
69.190 27.151535
69.195 27.75964
69.200 27.230658
69.205 27.358202
69.210 27.284254
69.215 27.725466
69.220 27.496626
69.225 27.284506
69.230 26.970028
69.235 26.809874
69.240 27.040567
69.245 27.049026
69.250 26.28854
69.255 26.733259
69.260 26.780874
69.265 26.648373
69.270 26.674337
69.275 25.998276
69.280 26.085936
69.285 26.747995
69.290 26.664862
69.295 26.741861
69.300 27.273241
69.305 27.551401
69.310 28.680651
69.315 28.840534
69.320 28.515982
69.325 28.697256
69.330 28.960787
69.335 28.28207
69.340 28.11006
69.345 27.61676
69.350 27.744301
69.355 27.82943
69.360 27.844009
69.365 28.188862
69.370 28.300388
69.375 28.313988
69.380 28.043533
69.385 28.007284
69.390 27.924095
69.395 27.717072
69.400 26.944845
69.405 26.572447
69.410 26.343807
69.415 26.343582
69.420 26.594543
69.425 25.84897
69.430 25.408705
69.435 26.071089
69.440 26.46875
69.445 26.279402
69.450 26.164156
69.455 25.611053
69.460 26.148321
69.465 26.128351
69.470 25.450106
69.475 25.339508
69.480 25.089035
69.485 24.22485
69.490 23.837749
69.495 23.918488
69.500 23.66202
69.505 23.724508
69.510 23.963688
69.515 24.001955
69.520 24.174475
69.525 23.978106
69.530 23.324451
69.535 23.326963
69.540 22.886549
69.545 22.076748
69.550 21.487917
69.555 21.077345
69.560 20.914774
69.565 20.935696
69.570 21.082563
69.575 21.598627
69.580 21.044819
69.585 21.071081
69.590 21.130831
69.595 21.058836
69.600 21.099142
69.605 20.634562
69.610 20.301592
69.615 20.040297
69.620 19.656803
69.625 19.125177
69.630 19.201864
69.635 19.40287
69.640 19.496073
69.645 19.728743
69.650 20.325453
69.655 20.331541
69.660 19.854776
69.665 19.574324
69.670 19.320698
69.675 18.965628
69.680 18.612579
69.685 19.116163
69.690 19.15457
69.695 19.682352
69.700 19.671276
69.705 19.173075
69.710 19.033155
69.715 19.174318
69.720 18.268871
69.725 18.23584
69.730 18.0364
69.735 18.433422
69.740 19.00943
69.745 19.45533
69.750 19.47271
69.755 19.874529
69.760 19.407871
69.765 18.654348
69.770 18.010866
69.775 17.668268
69.780 17.044044
69.785 16.589178
69.790 16.319105
69.795 16.180363
69.800 15.840311
69.805 15.202416
69.810 14.74189
69.815 14.891615
69.820 14.803304
69.825 14.993556
69.830 15.823646
69.835 16.522453
69.840 17.032791
69.845 17.540274
69.850 17.829306
69.855 18.06312
69.860 17.20492
69.865 16.723602
69.870 16.406189
69.875 16.162525
69.880 15.873106
69.885 15.837932
69.890 15.661084
69.895 16.638121
69.900 17.210556
69.905 16.962126
69.910 16.918091
69.915 16.104021
69.920 16.10783
69.925 15.703058
69.930 14.474847
69.935 13.806457
69.940 13.650577
69.945 13.727051
69.950 13.95165
69.955 13.732043
69.960 13.928337
69.965 14.696777
69.970 15.029704
69.975 15.033792
69.980 15.330423
69.985 15.202868
69.990 15.19709
69.995 15.345023
70.000 14.990763
70.005 15.200665
70.010 15.769085
70.015 15.3316
70.020 15.346539
70.025 15.670088
70.030 16.123528
70.035 16.06995
70.040 15.58178
70.045 15.869227
70.050 16.525885
70.055 16.87306
70.060 16.506611
70.065 16.316896
70.070 16.378941
70.075 16.740499
70.080 16.620285
70.085 15.904944
70.090 15.567045
70.095 15.728613
70.100 15.719863
70.105 15.928588
70.110 15.196589
70.115 15.222145
70.120 15.53436
70.125 15.39894
70.130 15.013044
70.135 14.851411
70.140 14.330616
70.145 14.520124
70.150 14.505941
70.155 14.563037
70.160 15.221767
70.165 15.074172
70.170 15.40802
70.175 15.834252
70.180 15.574662
70.185 15.378916
70.190 15.092812
70.195 14.584152
70.200 15.267035
70.205 15.681662
70.210 15.63082
70.215 16.054646
70.220 16.243315
70.225 16.686974
70.230 16.942043
70.235 17.006704
70.240 17.09668
70.245 16.693752
70.250 16.33037
70.255 16.451693
70.260 16.171606
70.265 16.030893
70.270 15.157625
70.275 14.735031
70.280 15.222085
70.285 15.386685
70.290 15.223408
70.295 15.157259
70.300 15.031304
70.305 15.40858
70.310 14.830582
70.315 14.305498
70.320 13.761738
70.325 13.83705
70.330 13.843551
70.335 13.885178
70.340 13.945036
70.345 13.96748
70.350 14.359527
70.355 14.164303
70.360 13.827639
70.365 13.730115
70.370 13.672449
70.375 13.213577
70.380 13.172712
70.385 12.873897
70.390 13.421328
70.395 13.428246
70.400 13.569009
70.405 13.516535
70.410 13.948941
70.415 14.192807
70.420 14.279788
70.425 13.783699
70.430 13.854557
70.435 14.128971
70.440 14.333261
70.445 14.742206
70.450 14.850775
70.455 15.100467
70.460 15.455012
70.465 15.200579
70.470 15.300311
70.475 15.459299
70.480 14.959417
70.485 15.021685
70.490 14.776675
70.495 14.947622
70.500 15.271999
70.505 14.911941
70.510 14.923834
70.515 15.314987
70.520 15.669375
70.525 16.020767
70.530 15.915642
70.535 16.005146
70.540 15.970513
70.545 15.636793
70.550 16.089212
70.555 15.968968
70.560 15.75022
70.565 15.788508
70.570 15.463367
70.575 15.459243
70.580 15.023303
70.585 14.751681
70.590 14.791836
70.595 15.176259
70.600 14.687714
70.605 14.265777
70.610 14.419825
70.615 14.350574
70.620 14.07134
70.625 14.050264
70.630 13.879275
70.635 14.193556
70.640 14.297863
70.645 13.966575
70.650 13.676362
70.655 13.590088
70.660 13.260561
70.665 13.546504
70.670 13.794778
70.675 14.29181
70.680 14.392662
70.685 14.728202
70.690 14.926427
70.695 14.854432
70.700 14.629315
70.705 14.610441
70.710 14.357451
70.715 14.659247
70.720 14.491199
70.725 14.34396
70.730 14.114421
70.735 14.277076
70.740 14.458071
70.745 14.472642
70.750 14.466755
70.755 14.527091
70.760 14.423273
70.765 14.28618
70.770 13.839666
70.775 13.554773
70.780 13.102387
70.785 13.110247
70.790 12.875989
70.795 13.296096
70.800 13.12799
70.805 13.061947
70.810 13.027899
70.815 13.196174
70.820 13.414407
70.825 13.801661
70.830 14.034413
70.835 14.533455
70.840 15.237695
70.845 15.851204
70.850 16.086582
70.855 16.055986
70.860 15.973232
70.865 16.220222
70.870 15.908078
70.875 15.829734
70.880 15.344604
70.885 14.932637
70.890 15.640437
70.895 15.647967
70.900 15.495646
70.905 15.30926
70.910 15.147894
70.915 15.517519
70.920 15.056791
70.925 14.285992
70.930 13.648166
70.935 13.451122
70.940 13.224651
70.945 13.018204
70.950 12.863563
70.955 13.034795
70.960 12.841761
70.965 13.082739
70.970 13.457938
70.975 13.084667
70.980 13.445112
70.985 14.033401
70.990 14.429277
70.995 14.533873
71.000 14.594802
71.005 14.637438
71.010 15.073555
71.015 14.303864
71.020 13.8134
71.025 13.3985
71.030 13.258536
71.035 12.93453
71.040 12.720737
71.045 12.749586
71.050 13.109112
71.055 13.678739
71.060 14.463849
71.065 14.82675
71.070 14.833354
71.075 14.880626
71.080 14.71177
71.085 14.557133
71.090 14.359267
71.095 14.17173
71.100 14.30063
71.105 14.636052
71.110 14.856266
71.115 15.029534
71.120 15.223165
71.125 15.634779
71.130 16.172976
71.135 15.813572
71.140 15.704105
71.145 15.694316
71.150 15.522567
71.155 15.405915
71.160 15.103374
71.165 15.18262
71.170 15.309188
71.175 15.414588
71.180 15.561466
71.185 15.655735
71.190 15.755047
71.195 15.313031
71.200 15.022785
71.205 15.318046
71.210 15.194436
71.215 14.864809
71.220 14.547627
71.225 13.949287
71.230 13.478529
71.235 13.139288
71.240 12.596985
71.245 12.25441
71.250 12.546836
71.255 12.763181
71.260 12.692822
71.265 13.364803
71.270 13.89513
71.275 13.91757
71.280 13.96213
71.285 13.554846
71.290 13.723459
71.295 13.690179
71.300 13.71718
71.305 13.527308
71.310 13.739391
71.315 14.009566
71.320 14.337895
71.325 14.218754
71.330 14.340958
71.335 14.018943
71.340 13.901055
71.345 13.975625
71.350 13.764593
71.355 13.816104
71.360 14.097468
71.365 14.295864
71.370 13.528122
71.375 13.361519
71.380 13.121103
71.385 12.643117
71.390 13.312881
71.395 13.30245
71.400 13.62809
71.405 14.06806
71.410 14.323991
71.415 15.032681
71.420 15.224658
71.425 14.452948
71.430 14.316566
71.435 14.147484
71.440 15.123489
71.445 15.337833
71.450 15.182916
71.455 15.247334
71.460 14.830565
71.465 14.535943
71.470 14.357061
71.475 13.68726
71.480 13.770434
71.485 14.322495
71.490 14.91967
71.495 15.393546
71.500 15.543278
71.505 15.664098
71.510 15.159934
71.515 14.886474
71.520 14.279778
71.525 13.770573
71.530 14.020374
71.535 14.388508
71.540 14.811255
71.545 15.434166
71.550 15.842256
71.555 15.864895
71.560 15.716278
71.565 15.32037
71.570 14.660102
71.575 14.454272
71.580 14.196773
71.585 13.733868
71.590 13.681957
71.595 13.66948
71.600 13.478085
71.605 13.496017
71.610 13.025903
71.615 12.413792
71.620 12.459145
71.625 12.252322
71.630 12.299681
71.635 11.939876
71.640 12.186517
71.645 12.710966
71.650 12.765686
71.655 12.999338
71.660 13.358299
71.665 13.939434
71.670 14.446456
71.675 14.26189
71.680 14.228012
71.685 14.402833
71.690 14.441076
71.695 14.230598
71.700 14.180076
71.705 14.307631
71.710 14.35106
71.715 14.02846
71.720 14.194438
71.725 14.38975
71.730 14.251831
71.735 14.146193
71.740 14.079373
71.745 14.267879
71.750 14.472053
71.755 14.558151
71.760 14.514008
71.765 14.1479
71.770 14.138831
71.775 14.326367
71.780 14.165549
71.785 14.217775
71.790 13.850463
71.795 13.563255
71.800 13.801764
71.805 13.327068
71.810 12.963072
71.815 12.504644
71.820 12.174355
71.825 12.028844
71.830 12.161677
71.835 12.257591
71.840 12.408929
71.845 12.955516
71.850 13.355724
71.855 13.699668
71.860 14.126348
71.865 14.327451
71.870 14.75598
71.875 15.556619
71.880 15.670113
71.885 15.724024
71.890 15.894567
71.895 15.732971
71.900 15.408695
71.905 14.657192
71.910 14.083596
71.915 14.022477
71.920 13.832543
71.925 13.97625
71.930 14.081401
71.935 14.201632
71.940 14.325435
71.945 14.458407
71.950 15.025369
71.955 15.088932
71.960 15.216924
71.965 15.312773
71.970 15.046452
71.975 15.151491
71.980 15.1173
71.985 14.615579
71.990 14.444881
71.995 14.210773
72.000 14.089857
72.005 14.10527
72.010 14.368474
72.015 14.65437
72.020 15.041658
72.025 15.606291
72.030 16.071152
72.035 16.505413
72.040 16.784323
72.045 15.979507
72.050 15.080711
72.055 14.792191
72.060 14.187291
72.065 14.035143
72.070 13.945936
72.075 14.113877
72.080 13.883481
72.085 14.418621
72.090 14.372741
72.095 14.661788
72.100 14.765712
72.105 14.613441
72.110 14.870954
72.115 15.11466
72.120 14.372928
72.125 14.423581
72.130 14.119512
72.135 13.999347
72.140 13.906694
72.145 13.441796
72.150 13.863236
72.155 14.521851
72.160 14.24931
72.165 14.029894
72.170 13.832188
72.175 13.885712
72.180 14.109925
72.185 13.870344
72.190 13.775586
72.195 13.701576
72.200 13.834812
72.205 13.922915
72.210 13.700397
72.215 13.865451
72.220 13.643733
72.225 13.977877
72.230 14.13673
72.235 14.012115
72.240 14.53531
72.245 14.771552
72.250 14.862156
72.255 14.674615
72.260 14.416358
72.265 14.292664
72.270 14.395875
72.275 13.921108
72.280 13.417329
72.285 13.656857
72.290 14.26267
72.295 14.404834
72.300 14.437795
72.305 14.240957
72.310 14.336045
72.315 14.181716
72.320 13.471614
72.325 13.257251
72.330 13.823506
72.335 14.391286
72.340 14.484777
72.345 14.518781
72.350 14.948816
72.355 14.865963
72.360 14.58734
72.365 14.148072
72.370 13.469928
72.375 13.745538
72.380 13.918068
72.385 13.87715
72.390 13.886347
72.395 14.180246
72.400 14.305416
72.405 14.337997
72.410 14.138518
72.415 14.110512
72.420 14.27407
72.425 14.560778
72.430 14.396278
72.435 14.505873
72.440 14.357303
72.445 14.272473
72.450 13.783581
72.455 13.83725
72.460 13.618747
72.465 13.47873
72.470 13.176112
72.475 13.398632
72.480 13.462823
72.485 13.007786
72.490 12.928885
72.495 12.750451
72.500 12.537868
72.505 12.904323
72.510 12.760478
72.515 13.272851
72.520 13.581511
72.525 13.937632
72.530 14.657311
72.535 15.210244
72.540 15.074923
72.545 14.636207
72.550 14.672284
72.555 15.142888
72.560 14.962092
72.565 14.669223
72.570 14.298034
72.575 14.509767
72.580 14.656407
72.585 14.386096
72.590 14.030981
72.595 13.184307
72.600 12.980103
72.605 13.382281
72.610 13.644125
72.615 13.810778
72.620 13.547084
72.625 13.679955
72.630 14.036787
72.635 14.409163
72.640 14.03736
72.645 13.819084
72.650 13.932652
72.655 13.796645
72.660 13.72074
72.665 13.533343
72.670 13.248276
72.675 13.527567
72.680 13.487352
72.685 13.543096
72.690 13.943967
72.695 14.200601
72.700 14.059601
72.705 13.778396
72.710 13.755755
72.715 13.658655
72.720 13.34464
72.725 13.404731
72.730 13.124332
72.735 13.246397
72.740 13.25174
72.745 13.008955
72.750 12.802956
72.755 13.229049
72.760 13.438166
72.765 13.727057
72.770 14.229822
72.775 14.761255
72.780 15.136773
72.785 15.530113
72.790 14.996739
72.795 14.536243
72.800 14.131444
72.805 13.418293
72.810 12.602835
72.815 12.10316
72.820 11.778231
72.825 12.107471
72.830 12.443995
72.835 13.00544
72.840 13.367658
72.845 13.814475
72.850 14.49454
72.855 14.829452
72.860 14.672218
72.865 14.215022
72.870 13.603178
72.875 13.561219
72.880 13.025929
72.885 12.346328
72.890 11.40698
72.895 11.759475
72.900 12.226089
72.905 12.388436
72.910 12.571425
72.915 13.209522
72.920 13.502372
72.925 14.10874
72.930 14.461958
72.935 14.56915
72.940 14.206704
72.945 13.828237
72.950 13.654792
72.955 13.427772
72.960 13.158569
72.965 12.421482
72.970 11.8971
72.975 12.20385
72.980 12.558447
72.985 12.334429
72.990 12.272643
72.995 12.12514
73.000 12.177724
