!@!!GADDS PLOTSO FILE: Chi integration type
!@!!Title/SampleName: map-d5
!@!!Comment: ?
!@!!User: Bruker Instrument Administrator
!@!!Site: University of Illinois Chicago
!@!!Frame: map-d5_01_000.gfrm
!@!!Wavelengths    1.54184   1.54056   1.54439
!@!!Frame angles: 2Theta: 63.000 Omega: 50.000 Phi: 0.000 Chi: 90.000
!@!!Integration range: 2Theta: 53.000 to 73.000  Gamma: -105.000 to -75.000
!@!!Integration method: bin normalized
!@!N
!@!SS
!@!M
!@!L 0.0 0.0 0.0 0.0
!@!XDegrees
!@!YCounts
53.000 7.466324
53.005 7.237187
53.010 7.321135
53.015 7.425976
53.020 7.306616
53.025 7.203824
53.030 7.065433
53.035 7.053813
53.040 7.371323
53.045 7.239809
53.050 7.375402
53.055 7.442794
53.060 7.582767
53.065 7.381867
53.070 7.055448
53.075 6.875978
53.080 6.390954
53.085 6.005805
53.090 5.794332
53.095 5.923855
53.100 6.564385
53.105 7.056166
53.110 7.202774
53.115 7.19914
53.120 7.308752
53.125 7.428232
53.130 7.077913
53.135 6.719094
53.140 6.669978
53.145 6.801426
53.150 7.006721
53.155 6.698662
53.160 6.939118
53.165 7.153626
53.170 7.348966
53.175 7.170453
53.180 7.260105
53.185 7.365752
53.190 7.795887
53.195 7.599026
53.200 7.29111
53.205 6.951676
53.210 6.932728
53.215 6.871984
53.220 7.049984
53.225 6.818183
53.230 6.890312
53.235 7.248554
53.240 7.057246
53.245 6.860102
53.250 6.380222
53.255 6.100341
53.260 6.489712
53.265 6.440371
53.270 6.531091
53.275 6.563967
53.280 7.038371
53.285 7.397631
53.290 7.492593
53.295 7.3515
53.300 7.451784
53.305 7.322684
53.310 7.579408
53.315 7.416925
53.320 7.380875
53.325 7.275164
53.330 7.324131
53.335 7.178183
53.340 7.524687
53.345 7.380185
53.350 7.240703
53.355 7.319921
53.360 7.224619
53.365 7.055725
53.370 7.14552
53.375 7.183911
53.380 7.574343
53.385 8.060952
53.390 7.916314
53.395 7.903038
53.400 7.873856
53.405 8.106749
53.410 7.926208
53.415 7.50999
53.420 7.07832
53.425 7.289927
53.430 7.84851
53.435 8.077146
53.440 8.154682
53.445 8.165743
53.450 8.354501
53.455 8.773621
53.460 8.51433
53.465 8.123829
53.470 7.618888
53.475 7.376555
53.480 7.258042
53.485 7.31529
53.490 7.473066
53.495 8.096939
53.500 8.3753
53.505 8.537287
53.510 8.710283
53.515 8.832011
53.520 8.922922
53.525 8.350222
53.530 7.828509
53.535 7.601903
53.540 7.703989
53.545 7.620615
53.550 7.704096
53.555 7.516095
53.560 7.985525
53.565 7.917121
53.570 7.937869
53.575 8.141903
53.580 8.519364
53.585 8.560982
53.590 8.691779
53.595 8.195753
53.600 8.381254
53.605 8.223788
53.610 7.82803
53.615 8.098794
53.620 8.331726
53.625 8.232385
53.630 8.177934
53.635 8.159475
53.640 8.260081
53.645 8.08369
53.650 7.815606
53.655 7.598417
53.660 7.711628
53.665 8.214384
53.670 8.495667
53.675 8.672271
53.680 8.531804
53.685 8.476952
53.690 8.713847
53.695 8.685741
53.700 8.808088
53.705 8.945091
53.710 9.030487
53.715 9.050448
53.720 8.759443
53.725 9.031639
53.730 9.248464
53.735 8.893208
53.740 9.027707
53.745 9.538748
53.750 9.458371
53.755 9.486456
53.760 9.107885
53.765 8.915014
53.770 9.209302
53.775 8.952812
53.780 8.508183
53.785 8.985338
53.790 9.469152
53.795 9.888241
53.800 10.047399
53.805 9.777671
53.810 10.03017
53.815 9.907856
53.820 9.449968
53.825 9.320286
53.830 9.125619
53.835 9.158067
53.840 8.963977
53.845 8.893094
53.850 9.151639
53.855 9.011407
53.860 8.894638
53.865 8.55065
53.870 8.100886
53.875 8.002973
53.880 7.902243
53.885 7.835919
53.890 7.844964
53.895 8.018782
53.900 8.361238
53.905 8.850525
53.910 8.735521
53.915 8.887783
53.920 8.863812
53.925 8.725097
53.930 8.491655
53.935 8.107915
53.940 7.870296
53.945 7.583529
53.950 7.259352
53.955 7.361689
53.960 7.71148
53.965 8.120822
53.970 8.250931
53.975 8.588833
53.980 9.09136
53.985 9.277074
53.990 9.001927
53.995 8.132206
54.000 7.759036
54.005 7.841996
54.010 7.854517
54.015 7.491657
54.020 7.509279
54.025 7.985863
54.030 8.674474
54.035 9.270934
54.040 9.078596
54.045 8.890463
54.050 9.156893
54.055 9.142706
54.060 8.730372
54.065 8.807757
54.070 8.928864
54.075 9.507354
54.080 9.691508
54.085 9.680108
54.090 9.480883
54.095 9.554094
54.100 9.41343
54.105 9.325185
54.110 9.153111
54.115 9.523245
54.120 9.729339
54.125 10.120268
54.130 10.527831
54.135 10.325444
54.140 9.948038
54.145 9.738681
54.150 9.355642
54.155 9.277652
54.160 8.924883
54.165 8.436629
54.170 8.173493
54.175 8.170257
54.180 8.536504
54.185 8.628138
54.190 8.666101
54.195 8.868588
54.200 9.292894
54.205 9.74958
54.210 9.782004
54.215 9.468203
54.220 9.425591
54.225 9.442649
54.230 9.463728
54.235 9.6
54.240 9.752341
54.245 9.684115
54.250 9.694968
54.255 9.864196
54.260 9.920646
54.265 9.755689
54.270 9.375881
54.275 8.880752
54.280 8.881584
54.285 8.813996
54.290 8.862415
54.295 8.532843
54.300 8.531238
54.305 9.169096
54.310 9.538625
54.315 9.531694
54.320 9.507936
54.325 9.217897
54.330 9.541216
54.335 9.264552
54.340 8.506176
54.345 8.391632
54.350 8.473926
54.355 8.890847
54.360 9.117474
54.365 8.91343
54.370 8.778968
54.375 8.966082
54.380 9.465712
54.385 9.398532
54.390 9.649182
54.395 9.746742
54.400 9.946281
54.405 10.443792
54.410 10.238597
54.415 9.927149
54.420 9.623713
54.425 9.236907
54.430 8.839256
54.435 8.573157
54.440 8.65711
54.445 8.82282
54.450 8.745064
54.455 8.494726
54.460 8.73849
54.465 9.513479
54.470 9.757272
54.475 9.484385
54.480 9.088011
54.485 9.115223
54.490 9.16352
54.495 8.769674
54.500 8.674399
54.505 8.46444
54.510 9.117231
54.515 9.750525
54.520 10.307186
54.525 10.67483
54.530 11.004517
54.535 11.085517
54.540 11.229615
54.545 10.773712
54.550 10.094632
54.555 9.626989
54.560 9.363735
54.565 8.851776
54.570 8.520676
54.575 8.124069
54.580 7.906586
54.585 8.248914
54.590 8.228275
54.595 8.280659
54.600 8.21028
54.605 8.520144
54.610 8.977991
54.615 9.159987
54.620 9.104746
54.625 8.780863
54.630 8.60283
54.635 8.719316
54.640 8.767412
54.645 8.426306
54.650 8.635365
54.655 8.831842
54.660 9.425496
54.665 10.095143
54.670 10.068427
54.675 10.056022
54.680 10.325042
54.685 9.897831
54.690 9.671804
54.695 9.194148
54.700 9.030021
54.705 9.355249
54.710 9.249944
54.715 9.558967
54.720 10.301956
54.725 10.706311
54.730 10.758985
54.735 10.617267
54.740 10.556546
54.745 10.60858
54.750 10.011448
54.755 9.565829
54.760 9.453752
54.765 9.451656
54.770 9.364546
54.775 9.543391
54.780 9.855035
54.785 10.259773
54.790 10.491796
54.795 10.611322
54.800 10.362064
54.805 10.143239
54.810 9.65462
54.815 9.287065
54.820 9.154727
54.825 9.282054
54.830 9.651267
54.835 9.679676
54.840 9.71429
54.845 9.951398
54.850 10.137707
54.855 9.909436
54.860 9.491269
54.865 9.359118
54.870 9.827187
54.875 9.85786
54.880 10.1856
54.885 10.409248
54.890 10.519151
54.895 10.132122
54.900 9.85466
54.905 9.502939
54.910 9.28516
54.915 9.085296
54.920 8.973882
54.925 8.919906
54.930 9.543654
54.935 9.636144
54.940 9.605847
54.945 9.777712
54.950 9.560859
54.955 9.608064
54.960 9.787514
54.965 9.623676
54.970 9.662784
54.975 9.714108
54.980 9.639566
54.985 9.371415
54.990 9.171489
54.995 9.007647
55.000 8.576805
55.005 8.482201
55.010 8.576891
55.015 8.728765
55.020 9.286746
55.025 9.724539
55.030 9.974998
55.035 10.335304
55.040 10.672499
55.045 10.733912
55.050 10.46569
55.055 9.774078
55.060 9.314521
55.065 9.352365
55.070 9.373261
55.075 9.385587
55.080 9.436909
55.085 9.606244
55.090 9.675047
55.095 9.735988
55.100 9.821342
55.105 9.541279
55.110 9.006283
55.115 9.023897
55.120 9.099651
55.125 9.077624
55.130 8.833931
55.135 8.585996
55.140 8.689778
55.145 9.132093
55.150 9.163666
55.155 9.182731
55.160 9.288409
55.165 9.75816
55.170 10.536532
55.175 10.568738
55.180 10.637324
55.185 10.461616
55.190 10.420377
55.195 10.835079
55.200 10.869295
55.205 10.307611
55.210 10.3667
55.215 9.836593
55.220 10.502842
55.225 10.86309
55.230 10.42312
55.235 10.54565
55.240 10.856954
55.245 11.142711
55.250 11.435558
55.255 11.092093
55.260 10.867361
55.265 10.706255
55.270 10.518752
55.275 10.500601
55.280 10.36445
55.285 10.426398
55.290 10.924735
55.295 11.169169
55.300 11.205098
55.305 11.317746
55.310 11.199814
55.315 10.899889
55.320 10.5094
55.325 10.538492
55.330 10.50605
55.335 10.187044
55.340 10.286634
55.345 10.582678
55.350 10.687234
55.355 10.485511
55.360 9.588296
55.365 9.482619
55.370 9.632084
55.375 9.182905
55.380 8.788593
55.385 8.733383
55.390 8.56752
55.395 9.37142
55.400 9.708257
55.405 9.372371
55.410 9.78225
55.415 10.115113
55.420 10.47832
55.425 10.680498
55.430 10.238126
55.435 10.077242
55.440 10.24802
55.445 10.11951
55.450 10.342426
55.455 10.482234
55.460 10.312912
55.465 10.430636
55.470 10.246519
55.475 10.229198
55.480 9.774474
55.485 9.337886
55.490 9.343499
55.495 8.837189
55.500 8.992788
55.505 9.318672
55.510 9.669044
55.515 9.859839
55.520 9.974547
55.525 10.467638
55.530 10.818959
55.535 10.872767
55.540 11.238911
55.545 11.072613
55.550 10.912962
55.555 11.029218
55.560 10.997885
55.565 11.15017
55.570 10.482003
55.575 9.888719
55.580 9.984435
55.585 9.696851
55.590 9.435565
55.595 9.416807
55.600 9.508065
55.605 9.641214
55.610 9.95068
55.615 9.937603
55.620 10.279946
55.625 10.184056
55.630 10.059519
55.635 10.176134
55.640 10.271699
55.645 9.788493
55.650 9.644813
55.655 9.84851
55.660 9.541857
55.665 9.989502
55.670 10.281794
55.675 10.173127
55.680 10.650911
55.685 10.431055
55.690 10.064942
55.695 10.582653
55.700 9.922434
55.705 9.923238
55.710 10.902279
55.715 11.685636
55.720 12.369201
55.725 12.63341
55.730 12.475333
55.735 12.660008
55.740 12.022894
55.745 11.082764
55.750 10.381066
55.755 9.907661
55.760 9.895162
55.765 9.719544
55.770 10.067211
55.775 10.65894
55.780 10.814611
55.785 11.298831
55.790 11.551036
55.795 11.982587
55.800 11.778351
55.805 10.914348
55.810 10.433139
55.815 10.306839
55.820 10.281192
55.825 10.140708
55.830 10.01745
55.835 10.196857
55.840 10.539858
55.845 11.248513
55.850 11.189135
55.855 10.873983
55.860 10.510863
55.865 10.051962
55.870 10.323834
55.875 10.404404
55.880 9.721158
55.885 9.964462
55.890 10.580097
55.895 11.293533
55.900 11.690946
55.905 11.177504
55.910 11.452926
55.915 11.811424
55.920 11.705086
55.925 11.228495
55.930 11.054951
55.935 11.562222
55.940 12.043203
55.945 11.989501
55.950 11.982611
55.955 11.7679
55.960 11.480591
55.965 11.169382
55.970 10.727348
55.975 10.684909
55.980 10.500985
55.985 10.848154
55.990 10.783356
55.995 10.841126
56.000 10.965312
56.005 11.21933
56.010 11.659566
56.015 11.890394
56.020 11.272459
56.025 11.3061
56.030 11.926544
56.035 12.386189
56.040 12.232898
56.045 11.906799
56.050 11.47508
56.055 11.796292
56.060 12.0716
56.065 11.582386
56.070 11.316382
56.075 10.947523
56.080 10.894582
56.085 11.051517
56.090 10.501928
56.095 10.163626
56.100 10.090587
56.105 10.328655
56.110 10.294084
56.115 10.113064
56.120 10.415309
56.125 11.023673
56.130 11.485106
56.135 11.414598
56.140 11.477489
56.145 11.987628
56.150 12.168753
56.155 12.225521
56.160 12.249775
56.165 12.068199
56.170 12.288975
56.175 12.242496
56.180 12.065432
56.185 11.952904
56.190 12.309539
56.195 12.228066
56.200 12.270095
56.205 11.60848
56.210 11.401013
56.215 11.140608
56.220 11.068
56.225 10.811084
56.230 11.23847
56.235 11.795392
56.240 12.333966
56.245 12.81197
56.250 13.167591
56.255 13.114038
56.260 13.366279
56.265 13.229294
56.270 12.659888
56.275 12.607693
56.280 12.187732
56.285 12.238285
56.290 11.767739
56.295 11.505981
56.300 11.543063
56.305 11.967143
56.310 11.708298
56.315 11.453333
56.320 11.443551
56.325 11.532804
56.330 11.442583
56.335 11.237357
56.340 11.01695
56.345 11.031177
56.350 11.311316
56.355 11.567134
56.360 11.30388
56.365 11.27567
56.370 11.089174
56.375 11.331051
56.380 11.350613
56.385 11.054169
56.390 10.890789
56.395 11.168725
56.400 11.340978
56.405 11.728448
56.410 11.653274
56.415 11.9951
56.420 12.162817
56.425 12.667328
56.430 12.933836
56.435 12.900637
56.440 12.708158
56.445 12.56048
56.450 12.103577
56.455 11.632867
56.460 11.046728
56.465 10.834484
56.470 10.390011
56.475 10.495753
56.480 10.580385
56.485 11.2987
56.490 11.838973
56.495 11.899108
56.500 11.416254
56.505 11.606373
56.510 11.496112
56.515 11.363263
56.520 10.63109
56.525 10.082527
56.530 10.543333
56.535 10.929709
56.540 10.95429
56.545 11.127591
56.550 11.708367
56.555 12.38571
56.560 12.688478
56.565 12.366902
56.570 12.628286
56.575 12.430298
56.580 12.465197
56.585 11.762676
56.590 11.48133
56.595 11.741051
56.600 11.878865
56.605 11.762156
56.610 12.120993
56.615 12.195416
56.620 12.758123
56.625 12.525328
56.630 12.146487
56.635 12.096442
56.640 12.118155
56.645 12.057691
56.650 11.442348
56.655 10.988054
56.660 10.906091
56.665 10.982236
56.670 11.240949
56.675 11.280449
56.680 11.290164
56.685 11.977751
56.690 12.450743
56.695 12.697438
56.700 13.033557
56.705 12.885355
56.710 12.561003
56.715 13.137836
56.720 12.909818
56.725 12.729978
56.730 12.60309
56.735 12.216709
56.740 12.359262
56.745 12.169006
56.750 12.160137
56.755 12.342577
56.760 12.736326
56.765 13.417555
56.770 13.747134
56.775 14.382972
56.780 14.523221
56.785 14.086952
56.790 13.527437
56.795 13.256408
56.800 12.89712
56.805 12.436915
56.810 11.878991
56.815 11.769627
56.820 12.037775
56.825 12.233555
56.830 12.35644
56.835 12.92204
56.840 13.178622
56.845 13.366544
56.850 13.21337
56.855 13.181931
56.860 13.252107
56.865 13.458895
56.870 13.906427
56.875 13.679566
56.880 13.837748
56.885 14.056432
56.890 13.894453
56.895 13.414947
56.900 12.92529
56.905 11.681986
56.910 11.475612
56.915 11.371365
56.920 11.233941
56.925 11.25495
56.930 11.51355
56.935 11.887441
56.940 12.090217
56.945 11.780159
56.950 12.104133
56.955 12.192961
56.960 12.707849
56.965 12.886791
56.970 12.355463
56.975 12.479876
56.980 12.981187
56.985 13.02973
56.990 12.993516
56.995 12.416723
57.000 12.081777
57.005 12.446851
57.010 12.877543
57.015 12.581838
57.020 12.217293
57.025 12.440521
57.030 12.526837
57.035 12.737057
57.040 12.532497
57.045 12.3234
57.050 12.456883
57.055 12.338753
57.060 11.722857
57.065 11.790875
57.070 11.425446
57.075 11.126011
57.080 10.659752
57.085 10.353971
57.090 10.301553
57.095 10.619555
57.100 10.520823
57.105 10.978677
57.110 11.529346
57.115 11.910483
57.120 12.363461
57.125 12.503259
57.130 12.340562
57.135 12.423656
57.140 12.2625
57.145 12.106159
57.150 11.844863
57.155 11.625085
57.160 11.986461
57.165 12.336453
57.170 12.693084
57.175 12.697619
57.180 12.748991
57.185 12.98278
57.190 12.847932
57.195 12.594855
57.200 12.619473
57.205 12.419441
57.210 12.589838
57.215 12.580957
57.220 12.940063
57.225 12.987999
57.230 13.001413
57.235 12.990576
57.240 12.329905
57.245 12.174173
57.250 12.069442
57.255 11.470531
57.260 11.504968
57.265 11.717618
57.270 11.69505
57.275 12.232148
57.280 12.800455
57.285 12.960057
57.290 13.372536
57.295 13.530856
57.300 13.61679
57.305 14.0155
57.310 13.888434
57.315 13.810665
57.320 14.018847
57.325 13.841459
57.330 14.42515
57.335 14.305101
57.340 14.259289
57.345 13.841005
57.350 13.273603
57.355 13.335985
57.360 13.181858
57.365 12.71563
57.370 12.336532
57.375 12.474363
57.380 12.637815
57.385 12.801869
57.390 12.588749
57.395 12.787868
57.400 12.721666
57.405 12.736589
57.410 12.297359
57.415 12.30522
57.420 12.728549
57.425 13.168944
57.430 12.953357
57.435 13.203273
57.440 13.250445
57.445 13.407331
57.450 13.633273
57.455 13.078489
57.460 13.465263
57.465 13.855844
57.470 13.699006
57.475 13.468704
57.480 13.83718
57.485 13.722383
57.490 13.897842
57.495 13.181186
57.500 12.569246
57.505 12.546979
57.510 13.186237
57.515 12.975749
57.520 12.755693
57.525 12.641257
57.530 13.116799
57.535 13.134524
57.540 13.273336
57.545 13.05514
57.550 13.089699
57.555 13.087729
57.560 12.845103
57.565 12.285542
57.570 12.09185
57.575 12.517795
57.580 12.397803
57.585 12.1763
57.590 12.260503
57.595 12.526425
57.600 12.996357
57.605 13.068818
57.610 12.538815
57.615 12.440993
57.620 12.653534
57.625 12.330501
57.630 12.512387
57.635 12.674973
57.640 12.847082
57.645 13.376101
57.650 13.574881
57.655 13.728607
57.660 13.855017
57.665 13.453571
57.670 12.902318
57.675 12.943373
57.680 12.423194
57.685 12.452103
57.690 12.297183
57.695 12.632292
57.700 12.494278
57.705 12.618634
57.710 12.115671
57.715 12.050756
57.720 12.188975
57.725 12.256984
57.730 11.783201
57.735 12.18736
57.740 12.631602
57.745 12.840684
57.750 13.041364
57.755 12.878777
57.760 13.386604
57.765 13.867221
57.770 13.698909
57.775 13.109643
57.780 12.684069
57.785 12.772637
57.790 12.430305
57.795 12.41178
57.800 12.065731
57.805 12.11152
57.810 12.759968
57.815 13.153244
57.820 12.932323
57.825 13.133061
57.830 13.244105
57.835 13.885949
57.840 13.723142
57.845 13.669362
57.850 13.932228
57.855 13.938793
57.860 13.677406
57.865 13.766626
57.870 13.682179
57.875 13.646426
57.880 13.66865
57.885 13.818845
57.890 14.10202
57.895 14.207814
57.900 13.570112
57.905 13.509048
57.910 13.57427
57.915 13.23904
57.920 12.872238
57.925 12.761396
57.930 13.066593
57.935 13.277227
57.940 12.966246
57.945 13.245198
57.950 13.492555
57.955 13.673317
57.960 13.821195
57.965 13.812061
57.970 13.558435
57.975 13.823709
57.980 14.337594
57.985 14.346351
57.990 14.613954
57.995 14.607224
58.000 14.46806
58.005 14.848069
58.010 14.607579
58.015 14.207083
58.020 14.158262
58.025 14.198065
58.030 13.997466
58.035 13.405187
58.040 13.563205
58.045 13.644309
58.050 13.518894
58.055 13.292206
58.060 12.871402
58.065 12.98032
58.070 13.373283
58.075 13.33614
58.080 13.296165
58.085 13.104654
58.090 13.28351
58.095 13.321775
58.100 13.132282
58.105 13.156212
58.110 12.607602
58.115 12.281184
58.120 12.647275
58.125 12.373678
58.130 12.103135
58.135 12.286875
58.140 12.651816
58.145 13.382942
58.150 13.370263
58.155 12.791758
58.160 13.285076
58.165 13.899535
58.170 14.014753
58.175 13.945577
58.180 13.624678
58.185 13.759895
58.190 13.953182
58.195 13.971066
58.200 13.941836
58.205 13.992933
58.210 13.652498
58.215 14.003323
58.220 14.865648
58.225 14.935974
58.230 15.035327
58.235 14.600561
58.240 13.985802
58.245 14.067949
58.250 14.02105
58.255 13.712379
58.260 13.768042
58.265 13.552035
58.270 13.862098
58.275 14.431664
58.280 14.146952
58.285 14.355319
58.290 14.362589
58.295 14.523752
58.300 14.622758
58.305 14.376173
58.310 13.805115
58.315 13.78562
58.320 13.410583
58.325 12.730824
58.330 12.458709
58.335 12.635283
58.340 12.545238
58.345 12.99453
58.350 13.249908
58.355 13.366281
58.360 13.659257
58.365 13.856454
58.370 14.091517
58.375 14.717048
58.380 14.513268
58.385 14.750925
58.390 15.131612
58.395 15.270723
58.400 14.879344
58.405 14.487157
58.410 14.398016
58.415 14.579288
58.420 14.092142
58.425 13.578588
58.430 13.132697
58.435 13.489033
58.440 13.731584
58.445 13.716812
58.450 14.180956
58.455 14.089622
58.460 14.838116
58.465 15.028489
58.470 14.839676
58.475 14.830763
58.480 14.868649
58.485 14.22963
58.490 14.3162
58.495 14.36984
58.500 14.219996
58.505 14.05018
58.510 14.279175
58.515 14.259529
58.520 14.286166
58.525 14.334645
58.530 14.452808
58.535 14.390956
58.540 14.052155
58.545 13.799954
58.550 13.233367
58.555 13.242599
58.560 12.829885
58.565 12.756252
58.570 12.694851
58.575 12.968314
58.580 13.359594
58.585 14.058022
58.590 14.181923
58.595 14.531283
58.600 14.89124
58.605 15.250188
58.610 14.856802
58.615 14.480754
58.620 14.352665
58.625 14.630633
58.630 14.645274
58.635 14.19697
58.640 14.572777
58.645 14.498292
58.650 14.348835
58.655 14.537987
58.660 14.833318
58.665 14.574727
58.670 14.466915
58.675 14.013572
58.680 14.445805
58.685 15.041483
58.690 15.015795
58.695 14.627321
58.700 14.398273
58.705 14.407185
58.710 14.160736
58.715 14.257232
58.720 13.878766
58.725 13.845309
58.730 14.054766
58.735 14.50466
58.740 14.859779
58.745 15.167009
58.750 14.867171
58.755 14.863995
58.760 14.958542
58.765 14.72289
58.770 14.647531
58.775 14.532413
58.780 14.597526
58.785 14.870073
58.790 14.551067
58.795 14.083157
58.800 14.08861
58.805 13.972419
58.810 14.169374
58.815 13.868089
58.820 13.745286
58.825 14.14712
58.830 14.237377
58.835 13.67831
58.840 13.245343
58.845 13.061849
58.850 12.711117
58.855 12.440854
58.860 12.34217
58.865 12.095976
58.870 12.830597
58.875 13.707501
58.880 13.960207
58.885 13.980592
58.890 13.890684
58.895 14.142962
58.900 14.553343
58.905 14.191925
58.910 13.908717
58.915 14.004128
58.920 14.19208
58.925 14.376992
58.930 14.531025
58.935 14.896585
58.940 14.963423
58.945 15.147546
58.950 15.102855
58.955 15.318109
58.960 15.374928
58.965 15.087168
58.970 14.778258
58.975 15.050014
58.980 14.926769
58.985 14.92568
58.990 14.93386
58.995 14.623402
59.000 14.534153
59.005 14.66608
59.010 14.592515
59.015 14.50332
59.020 14.576606
59.025 14.959623
59.030 15.090225
59.035 15.301822
59.040 15.226353
59.045 14.910237
59.050 14.746857
59.055 15.16753
59.060 14.645932
59.065 14.224799
59.070 14.091751
59.075 14.232903
59.080 14.249746
59.085 14.175019
59.090 14.131158
59.095 14.149513
59.100 14.409023
59.105 14.637011
59.110 14.75949
59.115 14.830779
59.120 14.922172
59.125 14.6083
59.130 15.07627
59.135 15.308281
59.140 15.139737
59.145 15.350958
59.150 15.16976
59.155 15.170691
59.160 15.566853
59.165 15.895076
59.170 15.713518
59.175 15.317787
59.180 15.257758
59.185 15.518545
59.190 15.6905
59.195 15.330777
59.200 14.749835
59.205 14.622176
59.210 14.451203
59.215 14.447471
59.220 14.514119
59.225 13.644054
59.230 13.447922
59.235 13.530561
59.240 13.699339
59.245 14.075162
59.250 13.917228
59.255 14.21412
59.260 14.929374
59.265 14.899151
59.270 15.026701
59.275 14.985385
59.280 14.702726
59.285 14.44235
59.290 14.364284
59.295 14.176127
59.300 14.14066
59.305 14.284845
59.310 14.657879
59.315 15.149147
59.320 15.425886
59.325 15.29525
59.330 15.541433
59.335 15.865118
59.340 15.657015
59.345 15.468155
59.350 15.194497
59.355 15.238867
59.360 16.135078
59.365 16.298182
59.370 16.221455
59.375 16.134577
59.380 15.592961
59.385 15.950063
59.390 16.414654
59.395 15.998676
59.400 15.903054
59.405 15.761883
59.410 15.816448
59.415 16.033348
59.420 15.786668
59.425 15.820175
59.430 15.666575
59.435 15.502357
59.440 15.578501
59.445 15.640398
59.450 15.607043
59.455 15.483987
59.460 15.753216
59.465 16.249405
59.470 16.585241
59.475 16.688049
59.480 16.960138
59.485 17.478344
59.490 17.49774
59.495 17.350681
59.500 17.104828
59.505 16.360374
59.510 16.131926
59.515 15.977221
59.520 16.086674
59.525 15.698577
59.530 14.344672
59.535 13.922414
59.540 15.111332
59.545 15.786958
59.550 15.986978
59.555 15.52553
59.560 15.623444
59.565 16.07826
59.570 16.109482
59.575 15.706157
59.580 15.425873
59.585 15.735218
59.590 15.832734
59.595 16.258062
59.600 16.219481
59.605 16.13624
59.610 15.961464
59.615 15.319177
59.620 15.078481
59.625 15.181664
59.630 15.083761
59.635 15.779006
59.640 15.678205
59.645 15.922161
59.650 16.732758
59.655 17.021303
59.660 16.96909
59.665 16.92074
59.670 16.579586
59.675 16.562346
59.680 16.170258
59.685 15.433019
59.690 15.736943
59.695 15.97703
59.700 16.712502
59.705 17.008472
59.710 17.364937
59.715 17.799919
59.720 18.141855
59.725 18.049837
59.730 18.004978
59.735 17.933483
59.740 17.974546
59.745 17.802114
59.750 17.780144
59.755 17.963278
59.760 17.898453
59.765 18.4161
59.770 17.97172
59.775 18.285109
59.780 18.03912
59.785 17.786602
59.790 17.818192
59.795 17.903332
59.800 17.468653
59.805 17.02306
59.810 16.748981
59.815 17.190521
59.820 17.322227
59.825 17.03931
59.830 16.525667
59.835 16.402161
59.840 17.004768
59.845 17.107342
59.850 16.665672
59.855 16.469311
59.860 16.744081
59.865 17.042412
59.870 16.923586
59.875 16.673429
59.880 16.644968
59.885 16.711456
59.890 16.894495
59.895 16.62528
59.900 17.186041
59.905 17.358538
59.910 17.774218
59.915 17.749935
59.920 17.768253
59.925 17.720875
59.930 18.376463
59.935 18.208611
59.940 17.914463
59.945 17.701664
59.950 18.147682
59.955 18.390722
59.960 18.356298
59.965 17.48222
59.970 18.081579
59.975 18.502247
59.980 18.329588
59.985 18.44887
59.990 19.117735
59.995 19.121569
60.000 19.348696
60.005 18.549574
60.010 18.943138
60.015 19.122194
60.020 18.459038
60.025 18.037098
60.030 18.040461
60.035 18.274233
60.040 18.244141
60.045 18.146999
60.050 18.1605
60.055 18.859377
60.060 19.3799
60.065 19.772148
60.070 19.420631
60.075 19.245649
60.080 19.372889
60.085 19.362717
60.090 19.186071
60.095 18.936754
60.100 18.637472
60.105 18.544443
60.110 18.645761
60.115 18.279446
60.120 18.568186
60.125 18.892344
60.130 19.037382
60.135 19.045717
60.140 20.020132
60.145 19.983273
60.150 19.331398
60.155 19.426098
60.160 19.051331
60.165 18.645235
60.170 18.83906
60.175 18.203773
60.180 18.530451
60.185 19.72349
60.190 19.470922
60.195 19.634806
60.200 20.553198
60.205 20.679699
60.210 20.998667
60.215 20.639666
60.220 20.351233
60.225 20.536983
60.230 20.08766
60.235 19.70557
60.240 19.731134
60.245 19.663273
60.250 20.131742
60.255 19.916094
60.260 19.366333
60.265 19.572983
60.270 20.107231
60.275 20.084156
60.280 20.100142
60.285 19.91337
60.290 20.251598
60.295 20.486555
60.300 20.376728
60.305 19.940897
60.310 19.872887
60.315 19.821161
60.320 19.336445
60.325 18.563274
60.330 18.300491
60.335 18.347515
60.340 17.972567
60.345 17.660809
60.350 17.596283
60.355 18.213114
60.360 18.716606
60.365 19.056494
60.370 19.111362
60.375 19.788553
60.380 19.906282
60.385 20.109812
60.390 19.705257
60.395 20.071396
60.400 20.435253
60.405 20.080954
60.410 19.616449
60.415 20.323261
60.420 20.231167
60.425 19.987143
60.430 20.159969
60.435 19.855032
60.440 19.982227
60.445 19.950077
60.450 19.061251
60.455 19.254951
60.460 20.013647
60.465 20.227823
60.470 20.665386
60.475 21.013287
60.480 20.759533
60.485 20.596262
60.490 19.980997
60.495 18.664417
60.500 18.271532
60.505 18.029345
60.510 17.705395
60.515 17.771996
60.520 18.114668
60.525 18.504686
60.530 18.435282
60.535 17.683363
60.540 16.887316
60.545 16.912205
60.550 17.176672
60.555 17.448626
60.560 18.078852
60.565 18.290289
60.570 18.876343
60.575 19.961884
60.580 20.728354
60.585 20.466093
60.590 20.113773
60.595 20.284327
60.600 20.834723
60.605 21.254581
60.610 21.089239
60.615 20.871723
60.620 21.091364
60.625 21.131084
60.630 20.691732
60.635 20.507271
60.640 19.885647
60.645 19.691422
60.650 18.931465
60.655 18.8356
60.660 18.722347
60.665 18.747869
60.670 18.658955
60.675 18.443981
60.680 18.505653
60.685 18.624989
60.690 18.753149
60.695 18.962
60.700 18.640034
60.705 19.014877
60.710 19.153727
60.715 18.666498
60.720 18.70031
60.725 18.6124
60.730 18.368937
60.735 18.249048
60.740 17.264771
60.745 17.001999
60.750 17.227795
60.755 17.262585
60.760 17.563162
60.765 18.22241
60.770 18.912523
60.775 19.478983
60.780 19.148752
60.785 18.819471
60.790 18.626856
60.795 18.051661
60.800 17.270828
60.805 16.789192
60.810 16.664366
60.815 17.347055
60.820 17.744844
60.825 17.604078
60.830 17.798397
60.835 17.619188
60.840 17.437603
60.845 16.642809
60.850 16.555161
60.855 17.103292
60.860 17.294241
60.865 17.244099
60.870 17.29834
60.875 17.108635
60.880 17.574562
60.885 17.159395
60.890 16.553368
60.895 16.694477
60.900 16.992765
60.905 17.513344
60.910 18.15823
60.915 18.364309
60.920 18.632536
60.925 18.406311
60.930 17.95138
60.935 17.322006
60.940 16.912363
60.945 17.028265
60.950 17.177731
60.955 16.5495
60.960 16.385267
60.965 16.398478
60.970 16.262045
60.975 15.673255
60.980 15.202226
60.985 14.788708
60.990 15.234446
60.995 15.107027
61.000 15.280132
61.005 15.758053
61.010 16.100178
61.015 16.074179
61.020 15.535634
61.025 14.831992
61.030 15.609604
61.035 15.492208
61.040 15.03143
61.045 14.967143
61.050 15.03579
61.055 15.78604
61.060 16.515423
61.065 16.333025
61.070 16.442871
61.075 16.917616
61.080 17.091927
61.085 17.761827
61.090 17.875618
61.095 17.756271
61.100 17.877048
61.105 17.650604
61.110 17.17514
61.115 17.097017
61.120 16.146374
61.125 15.446491
61.130 15.261955
61.135 15.236259
61.140 15.650231
61.145 15.843416
61.150 15.757809
61.155 15.690038
61.160 16.604256
61.165 16.651901
61.170 16.381342
61.175 16.118631
61.180 16.436243
61.185 16.611187
61.190 16.398182
61.195 15.911376
61.200 15.798583
61.205 16.220945
61.210 16.436073
61.215 16.696541
61.220 17.318117
61.225 18.415442
61.230 18.253036
61.235 18.242092
61.240 17.77256
61.245 17.78393
61.250 17.122908
61.255 16.197651
61.260 15.528319
61.265 15.803792
61.270 15.868734
61.275 15.497445
61.280 15.548441
61.285 15.836434
61.290 15.985478
61.295 15.854619
61.300 15.298123
61.305 15.333171
61.310 15.799443
61.315 15.551915
61.320 15.77405
61.325 15.744981
61.330 15.884572
61.335 16.22191
61.340 15.927898
61.345 15.877439
61.350 15.711549
61.355 15.478171
61.360 15.737105
61.365 15.753799
61.370 16.153439
61.375 15.903468
61.380 15.832834
61.385 16.165596
61.390 16.182064
61.395 15.996843
61.400 15.702115
61.405 15.325757
61.410 15.619864
61.415 15.532957
61.420 15.572773
61.425 15.388956
61.430 15.511203
61.435 15.70958
61.440 15.68175
61.445 16.415047
61.450 16.364954
61.455 15.923985
61.460 15.761131
61.465 15.360927
61.470 15.256928
61.475 15.71894
61.480 15.416902
61.485 15.760204
61.490 16.12429
61.495 16.595306
61.500 16.9534
61.505 17.912752
61.510 18.454205
61.515 18.559748
61.520 18.104507
61.525 17.962515
61.530 17.854567
61.535 17.80274
61.540 17.169497
61.545 16.625753
61.550 16.492241
61.555 17.540764
61.560 17.942596
61.565 18.147551
61.570 18.074732
61.575 18.538248
61.580 18.686022
61.585 18.171083
61.590 17.507322
61.595 16.978697
61.600 16.799391
61.605 16.720016
61.610 16.372534
61.615 16.25617
61.620 16.355251
61.625 16.134863
61.630 16.659498
61.635 16.71611
61.640 16.501173
61.645 16.148617
61.650 16.189789
61.655 15.916537
61.660 15.612247
61.665 15.202026
61.670 15.232478
61.675 15.478127
61.680 15.500705
61.685 15.341729
61.690 15.790071
61.695 16.199261
61.700 16.61339
61.705 16.388086
61.710 16.033932
61.715 16.488085
61.720 16.46394
61.725 16.555035
61.730 16.68396
61.735 16.534927
61.740 16.843555
61.745 17.407204
61.750 17.241896
61.755 17.119015
61.760 17.105913
61.765 16.689873
61.770 16.633394
61.775 16.706018
61.780 16.466797
61.785 15.970472
61.790 16.081263
61.795 16.013163
61.800 16.008268
61.805 15.690097
61.810 15.392559
61.815 15.143964
61.820 15.095909
61.825 14.988777
61.830 14.898183
61.835 14.742753
61.840 14.844896
61.845 14.691239
61.850 14.877349
61.855 15.301644
61.860 15.15053
61.865 16.067326
61.870 16.400557
61.875 16.677393
61.880 17.186975
61.885 17.371944
61.890 17.746712
61.895 17.924717
61.900 17.012526
61.905 16.895018
61.910 17.217205
61.915 16.963896
61.920 16.967588
61.925 16.919443
61.930 16.756477
61.935 17.249588
61.940 17.240927
61.945 17.197899
61.950 17.025434
61.955 16.000828
61.960 15.055561
61.965 15.371846
61.970 15.293235
61.975 15.494163
61.980 14.879476
61.985 15.12963
61.990 15.67219
61.995 15.794214
62.000 15.735974
62.005 15.86053
62.010 15.677698
62.015 16.184113
62.020 16.357738
62.025 16.688734
62.030 16.569319
62.035 16.339418
62.040 15.802011
62.045 15.74964
62.050 15.572893
62.055 15.573769
62.060 15.37648
62.065 15.248569
62.070 15.709314
62.075 16.287094
62.080 16.454256
62.085 16.581484
62.090 16.470867
62.095 16.612299
62.100 17.084305
62.105 16.674391
62.110 16.421412
62.115 16.144573
62.120 15.965325
62.125 16.15729
62.130 15.958594
62.135 15.691265
62.140 15.71031
62.145 15.270055
62.150 15.184801
62.155 15.205017
62.160 15.20485
62.165 15.754123
62.170 15.870601
62.175 15.711434
62.180 16.31045
62.185 16.707335
62.190 16.300285
62.195 16.036036
62.200 15.596484
62.205 15.037642
62.210 14.965721
62.215 14.857467
62.220 14.592392
62.225 14.701447
62.230 15.227673
62.235 15.726352
62.240 16.22629
62.245 16.138079
62.250 16.40571
62.255 16.188549
62.260 16.239012
62.265 15.987258
62.270 15.598607
62.275 15.74988
62.280 15.571989
62.285 15.344974
62.290 15.847915
62.295 15.267927
62.300 15.048604
62.305 14.833805
62.310 14.876311
62.315 14.976032
62.320 15.070697
62.325 15.119998
62.330 15.808974
62.335 15.535876
62.340 15.464292
62.345 15.391976
62.350 15.175473
62.355 15.020265
62.360 15.108797
62.365 14.76686
62.370 14.925355
62.375 15.125475
62.380 15.327084
62.385 15.766811
62.390 15.770474
62.395 15.871565
62.400 16.371986
62.405 16.911867
62.410 17.446323
62.415 17.52211
62.420 17.342241
62.425 17.252428
62.430 17.331097
62.435 17.189573
62.440 17.303526
62.445 17.213428
62.450 17.724628
62.455 18.237892
62.460 18.743694
62.465 18.528494
62.470 18.293791
62.475 18.144657
62.480 17.832685
62.485 17.155237
62.490 16.41637
62.495 16.191437
62.500 16.287882
62.505 16.491959
62.510 16.134003
62.515 15.677225
62.520 15.623147
62.525 15.713055
62.530 15.08423
62.535 14.785404
62.540 14.500388
62.545 14.526877
62.550 14.752016
62.555 14.582957
62.560 14.119123
62.565 14.070713
62.570 14.048176
62.575 13.940208
62.580 14.053411
62.585 14.174081
62.590 14.647147
62.595 14.815631
62.600 15.034074
62.605 15.167026
62.610 15.335527
62.615 15.436888
62.620 15.381095
62.625 15.160753
62.630 15.387432
62.635 15.257367
62.640 15.68643
62.645 15.775204
62.650 15.819871
62.655 15.804081
62.660 15.553048
62.665 15.54221
62.670 15.884832
62.675 15.900913
62.680 15.927622
62.685 15.681348
62.690 16.202688
62.695 16.836605
62.700 16.683102
62.705 16.891481
62.710 17.192373
62.715 17.224808
62.720 17.629297
62.725 17.683558
62.730 17.798502
62.735 17.49984
62.740 16.67507
62.745 16.502539
62.750 16.800392
62.755 16.882576
62.760 16.3703
62.765 15.983803
62.770 16.78648
62.775 17.314896
62.780 17.057961
62.785 16.368069
62.790 15.611261
62.795 15.335505
62.800 15.26581
62.805 15.091409
62.810 14.485394
62.815 14.31151
62.820 14.772264
62.825 15.577235
62.830 15.964052
62.835 16.342054
62.840 16.281809
62.845 16.95805
62.850 17.480705
62.855 17.295788
62.860 16.94091
62.865 17.058899
62.870 16.972891
62.875 16.556654
62.880 15.633314
62.885 14.76658
62.890 14.671894
62.895 14.623123
62.900 14.074299
62.905 13.421068
62.910 13.696938
62.915 14.282704
62.920 14.801421
62.925 14.918523
62.930 14.815843
62.935 15.540854
62.940 16.411528
62.945 16.642698
62.950 16.920635
62.955 17.121468
62.960 17.497662
62.965 17.742853
62.970 18.00054
62.975 18.115978
62.980 18.138054
62.985 18.11293
62.990 18.116978
62.995 18.40073
63.000 18.843861
63.005 18.703785
63.010 18.872498
63.015 18.991095
63.020 18.084984
63.025 17.651087
63.030 17.176216
63.035 16.701809
63.040 15.950298
63.045 15.298669
63.050 15.376219
63.055 15.626629
63.060 15.47371
63.065 15.507854
63.070 15.690913
63.075 16.106276
63.080 16.490408
63.085 16.748529
63.090 17.115448
63.095 17.040625
63.100 16.450594
63.105 15.973281
63.110 16.108168
63.115 15.896497
63.120 15.382545
63.125 15.734324
63.130 16.148689
63.135 16.208405
63.140 16.075239
63.145 16.117424
63.150 15.552206
63.155 15.227084
63.160 14.996851
63.165 14.761542
63.170 15.084393
63.175 15.048501
63.180 14.446632
63.185 14.984462
63.190 15.448316
63.195 15.434802
63.200 15.534298
63.205 15.962419
63.210 16.104473
63.215 16.224983
63.220 16.067898
63.225 16.268635
63.230 16.535385
63.235 16.845974
63.240 16.028275
63.245 16.422646
63.250 17.156603
63.255 17.392189
63.260 16.647449
63.265 16.352503
63.270 15.889786
63.275 15.855555
63.280 15.620571
63.285 15.591204
63.290 16.012159
63.295 16.554817
63.300 16.611959
63.305 16.893721
63.310 17.275887
63.315 17.160706
63.320 16.631016
63.325 16.484634
63.330 16.621767
63.335 16.37871
63.340 17.159302
63.345 17.021606
63.350 16.771648
63.355 16.753675
63.360 16.968906
63.365 17.086449
63.370 17.585783
63.375 17.231543
63.380 17.888468
63.385 18.872564
63.390 18.376879
63.395 17.740524
63.400 17.253181
63.405 16.172583
63.410 15.903219
63.415 15.172415
63.420 14.526365
63.425 15.2047
63.430 15.929368
63.435 16.769777
63.440 17.4809
63.445 17.138559
63.450 17.424835
63.455 17.432199
63.460 17.400393
63.465 16.749407
63.470 16.866859
63.475 17.097958
63.480 17.504116
63.485 17.472935
63.490 17.504124
63.495 17.206146
63.500 17.332048
63.505 17.433075
63.510 17.703028
63.515 17.544594
63.520 17.359163
63.525 17.070688
63.530 17.357021
63.535 17.763784
63.540 17.120205
63.545 16.540205
63.550 17.1042
63.555 17.2603
63.560 17.258289
63.565 17.517656
63.570 17.235958
63.575 17.53546
63.580 17.543823
63.585 17.015568
63.590 17.163204
63.595 17.961517
63.600 17.43121
63.605 17.294346
63.610 17.151781
63.615 17.671408
63.620 18.248905
63.625 18.229628
63.630 17.473433
63.635 17.834444
63.640 17.999081
63.645 17.717695
63.650 16.884886
63.655 16.411919
63.660 16.400902
63.665 16.557701
63.670 16.890753
63.675 17.014896
63.680 16.876471
63.685 17.006031
63.690 17.196302
63.695 17.348116
63.700 17.160847
63.705 16.515617
63.710 17.006042
63.715 17.331406
63.720 17.510294
63.725 17.275623
63.730 17.635035
63.735 18.026398
63.740 17.731726
63.745 17.32946
63.750 17.570148
63.755 18.193199
63.760 17.944361
63.765 17.088697
63.770 16.559784
63.775 16.443913
63.780 16.305334
63.785 15.567739
63.790 14.698374
63.795 15.331666
63.800 15.596271
63.805 16.08321
63.810 16.111176
63.815 16.297953
63.820 16.597561
63.825 17.050682
63.830 16.763529
63.835 17.085096
63.840 17.094606
63.845 17.505474
63.850 17.477285
63.855 17.448092
63.860 17.422071
63.865 17.618767
63.870 17.512239
63.875 17.284399
63.880 17.086655
63.885 16.804699
63.890 16.983517
63.895 16.465919
63.900 15.866872
63.905 16.058472
63.910 16.229488
63.915 16.033878
63.920 16.49267
63.925 16.040419
63.930 16.585768
63.935 17.088194
63.940 16.856848
63.945 16.322454
63.950 16.727732
63.955 17.052351
63.960 17.466595
63.965 17.618137
63.970 17.905846
63.975 18.189707
63.980 18.582571
63.985 18.458536
63.990 18.366512
63.995 18.194298
64.000 17.696085
64.005 17.211718
64.010 17.400507
64.015 17.78109
64.020 17.983667
64.025 18.002497
64.030 18.330202
64.035 19.233351
64.040 19.842674
64.045 19.536896
64.050 18.766989
64.055 18.45335
64.060 17.816387
64.065 17.818985
64.070 17.212458
64.075 16.679571
64.080 16.784271
64.085 17.225721
64.090 16.912407
64.095 17.320023
64.100 16.91268
64.105 16.749466
64.110 16.65221
64.115 16.508926
64.120 16.773312
64.125 17.213509
64.130 17.369366
64.135 17.772985
64.140 17.593506
64.145 17.731108
64.150 17.551935
64.155 17.23053
64.160 17.366001
64.165 17.458956
64.170 16.858549
64.175 17.036575
64.180 17.562157
64.185 18.149242
64.190 18.057695
64.195 17.679237
64.200 17.265249
64.205 17.745581
64.210 18.029819
64.215 18.121275
64.220 18.094128
64.225 17.777205
64.230 17.549906
64.235 18.294857
64.240 18.273336
64.245 17.829943
64.250 16.888523
64.255 16.395586
64.260 16.680807
64.265 17.042164
64.270 16.692877
64.275 17.055647
64.280 17.034996
64.285 17.597439
64.290 18.634901
64.295 19.090284
64.300 19.230661
64.305 18.84573
64.310 18.2889
64.315 18.487164
64.320 18.516413
64.325 18.005079
64.330 17.947157
64.335 17.927931
64.340 18.157955
64.345 18.503199
64.350 18.293537
64.355 18.629156
64.360 18.537376
64.365 18.533434
64.370 18.723602
64.375 18.450062
64.380 18.17429
64.385 17.955641
64.390 17.458601
64.395 17.268692
64.400 17.788773
64.405 17.698542
64.410 18.145981
64.415 18.396774
64.420 18.502769
64.425 18.824545
64.430 19.206957
64.435 18.687487
64.440 18.850807
64.445 19.02681
64.450 18.974184
64.455 18.879669
64.460 18.907509
64.465 19.061722
64.470 19.370632
64.475 19.491085
64.480 19.213215
64.485 19.081314
64.490 19.521057
64.495 19.642462
64.500 19.406771
64.505 19.510616
64.510 19.645395
64.515 19.790405
64.520 20.007719
64.525 19.795584
64.530 19.603556
64.535 19.351244
64.540 18.724556
64.545 18.104387
64.550 17.946474
64.555 18.127922
64.560 18.011034
64.565 17.98871
64.570 17.83037
64.575 18.200306
64.580 18.41522
64.585 18.327934
64.590 18.565207
64.595 18.385458
64.600 18.055574
64.605 18.062616
64.610 17.56258
64.615 16.960262
64.620 16.996752
64.625 17.126385
64.630 17.314571
64.635 17.966215
64.640 18.529381
64.645 19.123621
64.650 19.537905
64.655 19.561142
64.660 19.684469
64.665 20.267952
64.670 20.231571
64.675 20.261982
64.680 19.687517
64.685 19.448137
64.690 18.674614
64.695 18.224524
64.700 18.139261
64.705 17.917353
64.710 17.668711
64.715 18.100782
64.720 18.821962
64.725 19.691557
64.730 19.727154
64.735 19.732882
64.740 19.58695
64.745 20.084476
64.750 20.21936
64.755 20.271725
64.760 19.709799
64.765 19.821457
64.770 19.646229
64.775 19.414879
64.780 18.732775
64.785 18.059368
64.790 17.863075
64.795 17.898943
64.800 17.711309
64.805 17.336361
64.810 17.462446
64.815 17.617689
64.820 17.811369
64.825 17.70932
64.830 17.598925
64.835 16.913208
64.840 16.247568
64.845 16.072254
64.850 16.387707
64.855 17.396015
64.860 17.931528
64.865 18.003399
64.870 18.873772
64.875 19.647617
64.880 19.944267
64.885 19.685505
64.890 19.375469
64.895 19.259729
64.900 19.546854
64.905 19.27416
64.910 19.241718
64.915 19.181627
64.920 19.483192
64.925 19.497446
64.930 19.543417
64.935 19.3701
64.940 19.277521
64.945 19.265646
64.950 19.713604
64.955 20.167515
64.960 19.982323
64.965 19.979147
64.970 20.140461
64.975 20.438173
64.980 20.430964
64.985 20.52309
64.990 19.665482
64.995 19.488811
65.000 19.811594
65.005 20.044744
65.010 20.453415
65.015 20.708242
65.020 20.513723
65.025 21.206541
65.030 21.865921
65.035 21.434818
65.040 20.952721
65.045 20.525686
65.050 20.178247
65.055 20.006363
65.060 19.790138
65.065 19.126421
65.070 19.384838
65.075 20.117701
65.080 20.500248
65.085 20.951145
65.090 21.215099
65.095 21.441669
65.100 22.560579
65.105 22.647802
65.110 22.320381
65.115 22.095634
65.120 22.439484
65.125 21.942175
65.130 21.009659
65.135 20.368252
65.140 21.067574
65.145 20.887346
65.150 20.724497
65.155 20.373348
65.160 20.424198
65.165 20.734814
65.170 20.690439
65.175 20.175941
65.180 20.180407
65.185 20.231375
65.190 20.332745
65.195 20.844885
65.200 21.370691
65.205 20.832277
65.210 20.48428
65.215 21.01866
65.220 21.376213
65.225 20.955139
65.230 21.15254
65.235 21.278645
65.240 21.945061
65.245 22.288443
65.250 22.171751
65.255 22.275919
65.260 22.532818
65.265 22.308741
65.270 21.952122
65.275 22.605305
65.280 22.562885
65.285 22.139557
65.290 21.886463
65.295 22.505611
65.300 22.574881
65.305 22.070719
65.310 21.355129
65.315 21.458776
65.320 21.913549
65.325 21.834602
65.330 21.238783
65.335 21.250271
65.340 21.842058
65.345 21.952702
65.350 22.064304
65.355 22.130697
65.360 22.14328
65.365 22.154692
65.370 22.100861
65.375 22.271536
65.380 22.381845
65.385 22.696766
65.390 22.905172
65.395 23.189913
65.400 22.975414
65.405 22.972828
65.410 23.105211
65.415 22.809212
65.420 22.23687
65.425 21.885418
65.430 21.768251
65.435 22.466736
65.440 22.895088
65.445 23.077785
65.450 23.793308
65.455 24.324717
65.460 24.469271
65.465 24.445974
65.470 24.480988
65.475 24.464018
65.480 24.605717
65.485 24.511127
65.490 24.727484
65.495 24.95709
65.500 25.461557
65.505 25.027733
65.510 25.092001
65.515 25.221399
65.520 25.45504
65.525 25.660952
65.530 25.461748
65.535 25.99955
65.540 27.736774
65.545 28.92654
65.550 28.701868
65.555 28.184059
65.560 28.270811
65.565 29.270483
65.570 29.564486
65.575 29.180202
65.580 28.964006
65.585 29.074667
65.590 29.748816
65.595 30.158606
65.600 29.700832
65.605 29.812597
65.610 29.035133
65.615 29.094816
65.620 29.385868
65.625 29.837549
65.630 30.043264
65.635 30.023588
65.640 30.083536
65.645 30.346216
65.650 30.45447
65.655 30.936693
65.660 30.716845
65.665 30.477421
65.670 30.779465
65.675 30.593819
65.680 30.686653
65.685 30.146669
65.690 29.669161
65.695 30.165792
65.700 30.042898
65.705 29.258015
65.710 29.119991
65.715 30.070986
65.720 31.218954
65.725 32.126011
65.730 32.534084
65.735 34.024906
65.740 35.395565
65.745 35.916908
65.750 36.829918
65.755 37.486496
65.760 36.974709
65.765 36.557964
65.770 36.280708
65.775 35.840366
65.780 35.726784
65.785 34.941757
65.790 34.475746
65.795 35.115414
65.800 35.706184
65.805 35.441978
65.810 35.714069
65.815 35.547386
65.820 35.848553
65.825 36.305637
65.830 36.65527
65.835 36.766232
65.840 36.368698
65.845 36.442715
65.850 37.041012
65.855 36.472404
65.860 35.890598
65.865 36.031029
65.870 35.479889
65.875 35.700798
65.880 35.715893
65.885 36.255878
65.890 36.306908
65.895 35.639343
65.900 35.016464
65.905 35.630081
65.910 36.252975
65.915 36.709595
65.920 35.551727
65.925 35.4771
65.930 36.503616
65.935 36.681873
65.940 36.536705
65.945 35.795139
65.950 35.253746
65.955 35.272381
65.960 34.970673
65.965 34.340458
65.970 34.494236
65.975 34.32655
65.980 34.724079
65.985 35.033756
65.990 35.764191
65.995 36.607433
66.000 37.516205
66.005 37.92321
66.010 37.97245
66.015 37.175915
66.020 37.278008
66.025 36.912987
66.030 36.540703
66.035 35.568417
66.040 34.679577
66.045 34.453506
66.050 34.973183
66.055 34.554752
66.060 34.662216
66.065 35.118198
66.070 35.537792
66.075 35.447296
66.080 35.382145
66.085 35.569965
66.090 35.57605
66.095 35.460148
66.100 34.913494
66.105 34.951851
66.110 35.112629
66.115 34.823452
66.120 34.044312
66.125 33.823238
66.130 32.968613
66.135 32.233982
66.140 32.201141
66.145 32.472584
66.150 32.419586
66.155 32.285892
66.160 32.148018
66.165 32.269772
66.170 32.24435
66.175 31.695641
66.180 31.800774
66.185 32.029594
66.190 32.774818
66.195 32.648205
66.200 33.219196
66.205 33.11356
66.210 32.7827
66.215 32.553596
66.220 32.055473
66.225 31.762569
66.230 31.760826
66.235 31.316994
66.240 31.265299
66.245 31.175293
66.250 30.980621
66.255 30.800278
66.260 30.610153
66.265 30.162619
66.270 30.381943
66.275 29.739283
66.280 29.656805
66.285 29.702681
66.290 29.516813
66.295 29.541437
66.300 30.153551
66.305 29.699015
66.310 30.048983
66.315 30.009851
66.320 30.085684
66.325 30.022522
66.330 29.81665
66.335 29.784052
66.340 29.848677
66.345 29.82056
66.350 29.882328
66.355 29.603466
66.360 29.437061
66.365 29.039312
66.370 28.759859
66.375 28.628519
66.380 28.635323
66.385 28.658094
66.390 28.953835
66.395 29.544132
66.400 29.741312
66.405 29.492029
66.410 29.334888
66.415 29.288246
66.420 29.235407
66.425 29.321039
66.430 29.273634
66.435 29.420605
66.440 29.597021
66.445 29.980055
66.450 30.177994
66.455 30.066305
66.460 28.73011
66.465 27.972425
66.470 27.961637
66.475 28.351994
66.480 28.280914
66.485 28.041397
66.490 28.466206
66.495 28.727455
66.500 28.00013
66.505 28.197048
66.510 27.892796
66.515 27.237816
66.520 26.209175
66.525 25.754181
66.530 26.208424
66.535 27.013391
66.540 26.681355
66.545 25.968418
66.550 26.348648
66.555 26.948967
66.560 27.276888
66.565 27.71764
66.570 28.160133
66.575 27.301771
66.580 27.312469
66.585 26.940784
66.590 26.931194
66.595 26.454523
66.600 26.101864
66.605 25.716541
66.610 26.236662
66.615 26.085472
66.620 25.888937
66.625 25.479546
66.630 25.011444
66.635 24.30529
66.640 23.637518
66.645 23.521191
66.650 23.185759
66.655 22.962057
66.660 23.027357
66.665 23.447773
66.670 23.53931
66.675 24.363888
66.680 24.903917
66.685 25.690636
66.690 25.867725
66.695 25.836153
66.700 25.334234
66.705 26.071701
66.710 25.669289
66.715 25.360405
66.720 25.325693
66.725 25.228407
66.730 25.134809
66.735 25.053001
66.740 24.867146
66.745 25.129221
66.750 24.804977
66.755 23.994108
66.760 24.223797
66.765 23.924723
66.770 24.037146
66.775 23.496685
66.780 23.134634
66.785 23.135948
66.790 23.262775
66.795 22.545481
66.800 22.759092
66.805 22.816156
66.810 22.568871
66.815 21.965937
66.820 21.449451
66.825 21.754255
66.830 22.482136
66.835 22.622467
66.840 22.78434
66.845 23.492014
66.850 24.164474
66.855 24.512569
66.860 24.07213
66.865 23.828165
66.870 23.373644
66.875 22.760271
66.880 22.36039
66.885 22.093716
66.890 22.759016
66.895 23.980959
66.900 24.307383
66.905 24.639557
66.910 24.292738
66.915 23.673573
66.920 23.510351
66.925 22.304079
66.930 20.263649
66.935 19.416601
66.940 19.071428
66.945 19.479643
66.950 19.880161
66.955 20.333611
66.960 20.882233
66.965 21.857908
66.970 22.114227
66.975 22.057058
66.980 22.225683
66.985 21.895205
66.990 21.610727
66.995 22.139921
67.000 21.930035
67.005 22.282627
67.010 22.852964
67.015 22.728857
67.020 22.714579
67.025 22.82408
67.030 22.566332
67.035 23.01491
67.040 23.019043
67.045 22.670355
67.050 23.006744
67.055 23.273588
67.060 23.281843
67.065 22.85009
67.070 22.003319
67.075 21.241684
67.080 20.797348
67.085 20.519344
67.090 20.447014
67.095 20.748266
67.100 21.269321
67.105 21.38413
67.110 21.936764
67.115 22.516232
67.120 22.722675
67.125 22.296082
67.130 22.011539
67.135 21.6817
67.140 22.243702
67.145 22.227371
67.150 22.060919
67.155 22.05225
67.160 22.101086
67.165 22.540609
67.170 22.761328
67.175 22.455872
67.180 21.986786
67.185 21.784805
67.190 22.072767
67.195 22.188297
67.200 21.951155
67.205 21.354965
67.210 20.429922
67.215 20.565977
67.220 21.190147
67.225 21.05139
67.230 20.722502
67.235 20.698523
67.240 20.964621
67.245 21.739073
67.250 21.868326
67.255 21.25408
67.260 21.541826
67.265 21.633383
67.270 21.040903
67.275 21.557182
67.280 21.131475
67.285 21.159721
67.290 21.414953
67.295 20.941563
67.300 21.187992
67.305 21.077251
67.310 21.206266
67.315 21.740219
67.320 21.29143
67.325 21.380671
67.330 21.81216
67.335 22.120272
67.340 22.307772
67.345 22.367777
67.350 22.82074
67.355 22.787655
67.360 22.43125
67.365 22.026333
67.370 22.012838
67.375 21.938179
67.380 21.614199
67.385 21.624012
67.390 21.973087
67.395 22.15019
67.400 22.139908
67.405 21.639479
67.410 20.852524
67.415 20.679613
67.420 20.211035
67.425 19.670345
67.430 19.190018
67.435 19.064751
67.440 19.189899
67.445 19.511845
67.450 19.751614
67.455 19.805864
67.460 20.353035
67.465 20.456015
67.470 20.211712
67.475 20.461609
67.480 20.913988
67.485 20.675179
67.490 20.491426
67.495 20.489506
67.500 20.891209
67.505 21.196815
67.510 21.155331
67.515 21.043184
67.520 21.549006
67.525 21.267824
67.530 21.146221
67.535 20.755554
67.540 20.349901
67.545 20.568216
67.550 20.311518
67.555 20.225512
67.560 20.249483
67.565 20.424212
67.570 20.949589
67.575 20.998814
67.580 20.64765
67.585 20.936655
67.590 21.013838
67.595 20.94832
67.600 20.298119
67.605 20.611656
67.610 21.142756
67.615 21.57802
67.620 21.680828
67.625 21.961229
67.630 22.536119
67.635 22.816692
67.640 22.474712
67.645 22.601498
67.650 22.29637
67.655 22.13484
67.660 21.875774
67.665 21.366327
67.670 21.535563
67.675 22.255785
67.680 22.17864
67.685 21.624804
67.690 21.290594
67.695 21.275093
67.700 21.420166
67.705 20.966665
67.710 20.304733
67.715 20.615816
67.720 21.176451
67.725 22.000372
67.730 21.783667
67.735 21.98633
67.740 22.77282
67.745 23.183279
67.750 22.496611
67.755 22.215487
67.760 21.132021
67.765 20.762075
67.770 20.666626
67.775 20.113396
67.780 19.653479
67.785 20.183908
67.790 20.611614
67.795 20.711252
67.800 21.072124
67.805 21.191326
67.810 20.857143
67.815 20.797798
67.820 20.342173
67.825 19.918835
67.830 20.03167
67.835 19.871552
67.840 20.200253
67.845 19.995687
67.850 19.594891
67.855 19.909849
67.860 20.288647
67.865 20.69672
67.870 20.760733
67.875 20.47328
67.880 20.731884
67.885 20.748758
67.890 20.214725
67.895 19.533978
67.900 19.641424
67.905 19.697327
67.910 19.186047
67.915 19.791389
67.920 20.325237
67.925 20.780712
67.930 21.483814
67.935 20.998716
67.940 21.418907
67.945 21.876951
67.950 22.314074
67.955 22.157852
67.960 22.104609
67.965 21.836605
67.970 21.730803
67.975 21.928015
67.980 22.260397
67.985 22.012131
67.990 21.891788
67.995 21.608213
68.000 21.731825
68.005 21.523035
68.010 20.771069
68.015 20.155993
68.020 19.637848
68.025 19.522346
68.030 19.426092
68.035 19.24
68.040 19.005491
68.045 19.164028
68.050 19.138788
68.055 18.975378
68.060 19.619514
68.065 19.939295
68.070 20.721317
68.075 21.079308
68.080 21.320908
68.085 22.290962
68.090 23.268671
68.095 22.470055
68.100 22.195915
68.105 21.625013
68.110 21.705158
68.115 21.731524
68.120 21.158464
68.125 20.854393
68.130 21.246246
68.135 21.053158
68.140 20.670786
68.145 20.524157
68.150 20.595249
68.155 20.416939
68.160 20.489679
68.165 20.562817
68.170 20.480282
68.175 20.955936
68.180 20.557877
68.185 20.852335
68.190 21.122286
68.195 20.817055
68.200 20.720865
68.205 21.078068
68.210 21.219788
68.215 20.806179
68.220 20.319424
68.225 20.245903
68.230 20.959806
68.235 21.543383
68.240 21.435665
68.245 21.366102
68.250 21.306093
68.255 21.258673
68.260 21.053379
68.265 20.142818
68.270 20.153175
68.275 20.018675
68.280 20.680828
68.285 21.458078
68.290 21.419945
68.295 21.2957
68.300 21.87475
68.305 22.024773
68.310 22.004148
68.315 21.766544
68.320 21.486309
68.325 21.692923
68.330 21.822807
68.335 21.535908
68.340 21.200403
68.345 20.783337
68.350 20.282291
68.355 20.109133
68.360 19.844135
68.365 19.636351
68.370 19.457952
68.375 19.854704
68.380 20.431549
68.385 20.915339
68.390 21.05158
68.395 20.92013
68.400 20.76597
68.405 20.706099
68.410 20.364326
68.415 20.269859
68.420 20.168261
68.425 19.950935
68.430 19.996216
68.435 20.293568
68.440 20.525429
68.445 21.194258
68.450 21.673763
68.455 21.969206
68.460 22.248732
68.465 23.215841
68.470 23.861694
68.475 23.520655
68.480 23.1497
68.485 22.818956
68.490 23.030716
68.495 22.809153
68.500 21.910198
68.505 21.517401
68.510 21.174477
68.515 21.083889
68.520 20.607895
68.525 20.750246
68.530 21.133347
68.535 21.033241
68.540 20.469978
68.545 20.541508
68.550 20.605507
68.555 20.859482
68.560 20.892778
68.565 20.521574
68.570 20.963291
68.575 21.150621
68.580 21.362019
68.585 21.154938
68.590 21.080332
68.595 21.316956
68.600 21.601595
68.605 21.214867
68.610 21.744528
68.615 22.305243
68.620 22.666164
68.625 22.529617
68.630 22.250174
68.635 22.290028
68.640 22.240803
68.645 22.127172
68.650 21.3832
68.655 21.242373
68.660 21.085596
68.665 20.560795
68.670 20.033571
68.675 20.293427
68.680 20.66836
68.685 21.384539
68.690 21.203442
68.695 21.953539
68.700 22.385696
68.705 22.586029
68.710 22.127554
68.715 21.155102
68.720 20.520103
68.725 20.63862
68.730 20.221247
68.735 19.996649
68.740 20.12149
68.745 20.667271
68.750 21.318285
68.755 21.935839
68.760 22.146032
68.765 22.050381
68.770 22.666632
68.775 22.647905
68.780 22.577578
68.785 22.290682
68.790 22.277058
68.795 21.44824
68.800 21.476561
68.805 21.757677
68.810 21.735518
68.815 21.356506
68.820 21.128208
68.825 20.472864
68.830 21.214073
68.835 21.676554
68.840 21.559086
68.845 21.681158
68.850 22.068607
68.855 22.830366
68.860 23.74942
68.865 23.567915
68.870 22.957474
68.875 22.787058
68.880 22.640379
68.885 22.473337
68.890 22.457176
68.895 22.272675
68.900 22.923187
68.905 22.950523
68.910 23.495216
68.915 24.235058
68.920 24.410414
68.925 24.372316
68.930 24.250025
68.935 23.660252
68.940 24.31682
68.945 23.87359
68.950 23.008867
68.955 22.674826
68.960 22.197451
68.965 21.735447
68.970 21.780386
68.975 21.727896
68.980 21.700981
68.985 22.336943
68.990 23.049486
68.995 23.623516
69.000 23.979282
69.005 24.099245
69.010 23.871841
69.015 24.138199
69.020 24.054688
69.025 23.912678
69.030 24.019598
69.035 24.016676
69.040 23.804094
69.045 24.019461
69.050 24.025455
69.055 24.297277
69.060 23.814444
69.065 23.390854
69.070 23.17382
69.075 23.200579
69.080 23.05868
69.085 23.271141
69.090 23.833513
69.095 24.342409
69.100 25.237526
69.105 25.357256
69.110 25.354712
69.115 25.056269
69.120 24.328884
69.125 23.832788
69.130 23.774679
69.135 23.76906
69.140 24.312164
69.145 24.526457
69.150 24.52495
69.155 24.8314
69.160 25.086128
69.165 24.986731
69.170 25.296982
69.175 25.904806
69.180 26.438646
69.185 26.789904
69.190 26.891926
69.195 26.87063
69.200 26.599035
69.205 25.941488
69.210 26.378649
69.215 26.904373
69.220 27.607185
69.225 27.682383
69.230 27.43354
69.235 27.876257
69.240 28.24403
69.245 27.257956
69.250 26.358305
69.255 26.065191
69.260 26.200356
69.265 25.891954
69.270 25.428246
69.275 25.131205
69.280 25.425531
69.285 25.660458
69.290 25.478138
69.295 25.292383
69.300 26.00548
69.305 26.265081
69.310 27.164583
69.315 26.925903
69.320 26.342789
69.325 25.681448
69.330 25.277569
69.335 26.011362
69.340 26.175306
69.345 25.203428
69.350 26.048681
69.355 26.769571
69.360 27.431459
69.365 27.994946
69.370 26.978832
69.375 26.521233
69.380 26.802794
69.385 26.4872
69.390 26.559336
69.395 27.169151
69.400 27.059916
69.405 27.514349
69.410 27.66115
69.415 27.511423
69.420 26.84597
69.425 26.553122
69.430 26.11199
69.435 26.324078
69.440 26.313072
69.445 26.911417
69.450 27.056137
69.455 27.376251
69.460 26.905613
69.465 26.841639
69.470 27.034636
69.475 26.814037
69.480 26.877811
69.485 27.831808
69.490 28.754246
69.495 29.374832
69.500 28.930088
69.505 28.988724
69.510 28.886883
69.515 28.712488
69.520 28.182409
69.525 28.13261
69.530 28.489315
69.535 29.104944
69.540 29.330383
69.545 29.184664
69.550 29.165312
69.555 28.54665
69.560 27.909201
69.565 27.380653
69.570 27.338091
69.575 27.603495
69.580 28.032541
69.585 27.744181
69.590 27.990788
69.595 28.605627
69.600 28.383919
69.605 28.347853
69.610 27.6957
69.615 26.993971
69.620 26.942108
69.625 26.307446
69.630 26.394823
69.635 26.342081
69.640 26.29295
69.645 26.489277
69.650 26.40428
69.655 26.72698
69.660 27.008923
69.665 27.052347
69.670 27.371542
69.675 27.605721
69.680 27.990253
69.685 28.307686
69.690 28.688015
69.695 28.707335
69.700 28.332766
69.705 27.503918
69.710 27.528315
69.715 27.613369
69.720 27.322559
69.725 26.857012
69.730 26.383446
69.735 26.504332
69.740 26.546545
69.745 25.399273
69.750 24.936373
69.755 24.814661
69.760 24.830307
69.765 25.021343
69.770 24.823133
69.775 25.331451
69.780 25.454729
69.785 25.478333
69.790 25.767635
69.795 25.211824
69.800 25.058552
69.805 25.082237
69.810 24.798061
69.815 25.259554
69.820 25.352135
69.825 24.653835
69.830 24.955502
69.835 24.470743
69.840 24.581406
69.845 24.560009
69.850 23.796354
69.855 23.660515
69.860 23.333504
69.865 23.533884
69.870 23.993313
69.875 23.612482
69.880 23.622545
69.885 23.603703
69.890 23.290014
69.895 23.516682
69.900 23.099613
69.905 22.191158
69.910 21.921814
69.915 21.8876
69.920 21.685066
69.925 21.697397
69.930 21.449961
69.935 21.695045
69.940 22.324842
69.945 22.493448
69.950 22.521416
69.955 23.242609
69.960 23.108704
69.965 22.728573
69.970 22.548107
69.975 22.18099
69.980 21.444664
69.985 21.013796
69.990 20.79501
69.995 20.317841
70.000 20.180635
70.005 19.9193
70.010 19.392712
70.015 19.74803
70.020 19.663853
70.025 20.285965
70.030 21.308226
70.035 20.747204
70.040 20.97761
70.045 21.196299
70.050 21.395746
70.055 21.035242
70.060 20.051411
70.065 19.887953
70.070 20.101593
70.075 19.49267
70.080 19.315783
70.085 19.752975
70.090 20.310991
70.095 20.382021
70.100 20.310499
70.105 21.016588
70.110 21.590435
70.115 21.775026
70.120 21.243814
70.125 21.002666
70.130 20.62575
70.135 20.713711
70.140 21.213346
70.145 20.916655
70.150 20.806931
70.155 20.265701
70.160 19.866329
70.165 19.962791
70.170 19.587021
70.175 19.288006
70.180 18.853426
70.185 18.580481
70.190 19.343712
70.195 20.247381
70.200 20.84337
70.205 20.750174
70.210 20.441074
70.215 20.599533
70.220 20.671741
70.225 20.303972
70.230 20.061829
70.235 20.05184
70.240 20.137711
70.245 20.402666
70.250 21.188541
70.255 21.956003
70.260 21.742914
70.265 21.147139
70.270 21.004461
70.275 20.757925
70.280 20.42951
70.285 20.153591
70.290 19.984669
70.295 20.180359
70.300 20.504095
70.305 19.902903
70.310 19.937017
70.315 20.128481
70.320 19.97411
70.325 19.798664
70.330 19.064217
70.335 19.182131
70.340 19.14983
70.345 18.760305
70.350 18.052622
70.355 17.67053
70.360 18.137335
70.365 18.380304
70.370 18.173157
70.375 17.930269
70.380 17.642778
70.385 17.944777
70.390 17.99202
70.395 17.940948
70.400 18.039898
70.405 18.244228
70.410 18.981916
70.415 19.004208
70.420 18.881849
70.425 18.776432
70.430 18.530228
70.435 18.712366
70.440 18.867374
70.445 18.980072
70.450 19.098089
70.455 18.86553
70.460 18.864962
70.465 19.382107
70.470 19.432192
70.475 19.372139
70.480 19.32906
70.485 19.846111
70.490 20.900871
70.495 20.64768
70.500 19.832579
70.505 19.863213
70.510 20.266571
70.515 20.773046
70.520 20.586645
70.525 20.278074
70.530 20.985235
70.535 20.891161
70.540 20.852388
70.545 20.746111
70.550 20.348841
70.555 20.568651
70.560 20.54668
70.565 20.535692
70.570 20.729774
70.575 20.501629
70.580 20.116684
70.585 20.249918
70.590 20.066227
70.595 19.570551
70.600 19.187431
70.605 18.976658
70.610 19.060766
70.615 19.276001
70.620 18.73591
70.625 19.253119
70.630 19.02717
70.635 18.630108
70.640 18.892502
70.645 19.128189
70.650 19.486647
70.655 19.938349
70.660 19.885262
70.665 20.139587
70.670 20.353197
70.675 20.288864
70.680 20.118937
70.685 19.263655
70.690 18.737434
70.695 18.242336
70.700 18.559145
70.705 18.465683
70.710 18.7003
70.715 18.936485
70.720 18.922817
70.725 19.369413
70.730 19.431978
70.735 19.486273
70.740 19.370132
70.745 18.580013
70.750 18.74962
70.755 19.35457
70.760 19.460669
70.765 19.482666
70.770 20.148012
70.775 20.3489
70.780 20.730478
70.785 20.617033
70.790 20.545544
70.795 20.007254
70.800 20.143959
70.805 19.827417
70.810 19.823816
70.815 19.957422
70.820 19.595209
70.825 18.862453
70.830 18.512121
70.835 17.855196
70.840 17.619787
70.845 18.095625
70.850 17.894602
70.855 17.765041
70.860 18.276434
70.865 18.878866
70.870 19.392866
70.875 19.499825
70.880 19.189535
70.885 19.404816
70.890 20.024488
70.895 20.115263
70.900 20.474302
70.905 20.198267
70.910 20.118462
70.915 19.909441
70.920 19.624136
70.925 19.338671
70.930 19.113857
70.935 18.852667
70.940 18.294718
70.945 18.22076
70.950 18.352089
70.955 18.479256
70.960 18.039417
70.965 17.508297
70.970 17.934582
70.975 18.22217
70.980 18.455051
70.985 18.185625
70.990 18.20977
70.995 18.300724
71.000 18.810141
71.005 19.127903
71.010 18.947439
71.015 18.705381
71.020 19.219221
71.025 19.094433
71.030 19.144571
71.035 19.053349
71.040 19.157297
71.045 19.618664
71.050 19.605247
71.055 19.15266
71.060 18.746483
71.065 18.552298
71.070 18.1001
71.075 17.390007
71.080 17.166996
71.085 17.280987
71.090 17.620941
71.095 17.44713
71.100 17.785297
71.105 18.737146
71.110 18.982018
71.115 19.217037
71.120 19.031191
71.125 19.140394
71.130 19.356108
71.135 18.872587
71.140 18.396208
71.145 18.324291
71.150 18.625347
71.155 18.74909
71.160 19.236288
71.165 20.113159
71.170 20.430122
71.175 20.520571
71.180 20.158474
71.185 19.810781
71.190 19.572357
71.195 19.506067
71.200 19.076681
71.205 18.581825
71.210 18.288517
71.215 18.699162
71.220 19.258003
71.225 18.591469
71.230 17.444963
71.235 17.329184
71.240 18.059608
71.245 17.894455
71.250 18.127823
71.255 18.275129
71.260 18.950851
71.265 19.369352
71.270 19.350786
71.275 19.206619
71.280 19.146469
71.285 19.185162
71.290 19.244263
71.295 19.104437
71.300 19.045467
71.305 19.180067
71.310 19.234415
71.315 18.799726
71.320 18.030312
71.325 17.954214
71.330 17.97048
71.335 17.084162
71.340 16.928423
71.345 17.250526
71.350 16.914711
71.355 17.420877
71.360 17.933725
71.365 18.08955
71.370 18.5784
71.375 18.178543
71.380 17.883497
71.385 18.255671
71.390 17.821718
71.395 17.738314
71.400 18.189995
71.405 18.221188
71.410 18.16618
71.415 17.991856
71.420 17.844595
71.425 18.0147
71.430 17.921877
71.435 18.114983
71.440 17.982954
71.445 18.281649
71.450 18.455816
71.455 18.526659
71.460 18.352398
71.465 18.589434
71.470 18.640049
71.475 18.961449
71.480 19.011875
71.485 19.065096
71.490 19.203964
71.495 19.147364
71.500 19.47718
71.505 19.5163
71.510 19.400904
71.515 20.039164
71.520 20.243544
71.525 19.859495
71.530 19.847565
71.535 20.379036
71.540 20.699202
71.545 20.405352
71.550 19.942863
71.555 19.200735
71.560 19.075262
71.565 18.53034
71.570 18.122034
71.575 18.005669
71.580 17.693047
71.585 17.679754
71.590 18.10075
71.595 18.321575
71.600 18.835449
71.605 18.583899
71.610 18.550953
71.615 18.625303
71.620 19.080141
71.625 19.494968
71.630 19.32826
71.635 18.841997
71.640 18.700785
71.645 18.785667
71.650 19.077166
71.655 18.729809
71.660 18.204561
71.665 17.697245
71.670 17.77075
71.675 18.262409
71.680 18.535337
71.685 18.548748
71.690 18.545137
71.695 18.848526
71.700 19.164156
71.705 18.714321
71.710 18.190712
71.715 17.511471
71.720 17.087284
71.725 17.06715
71.730 16.93133
71.735 17.133524
71.740 17.607292
71.745 17.626183
71.750 18.191462
71.755 18.263353
71.760 18.108088
71.765 18.619862
71.770 18.786356
71.775 19.009192
71.780 19.070496
71.785 19.007689
71.790 18.85747
71.795 18.934517
71.800 18.295927
71.805 18.026659
71.810 17.534027
71.815 17.648983
71.820 17.746668
71.825 17.975994
71.830 18.423809
71.835 18.727776
71.840 18.916033
71.845 19.035673
71.850 19.099001
71.855 19.284037
71.860 19.1507
71.865 18.622185
71.870 18.475428
71.875 18.513384
71.880 18.434319
71.885 18.428406
71.890 18.02066
71.895 18.04752
71.900 18.515055
71.905 18.443802
71.910 18.180984
71.915 18.106825
71.920 17.611423
71.925 17.134468
71.930 16.840248
71.935 16.605707
71.940 16.329031
71.945 16.340988
71.950 16.30777
71.955 16.747799
71.960 17.553194
71.965 17.827164
71.970 18.376408
71.975 18.475084
71.980 18.916201
71.985 19.132101
71.990 19.387356
71.995 18.929647
72.000 18.630659
72.005 18.447786
72.010 18.335213
72.015 18.029453
72.020 17.939409
72.025 17.451612
72.030 17.752846
72.035 17.931629
72.040 17.966461
72.045 17.90159
72.050 17.601784
72.055 18.268747
72.060 18.772629
72.065 18.856157
72.070 18.825787
72.075 18.830572
72.080 18.572071
72.085 18.207113
72.090 17.969898
72.095 17.897388
72.100 18.107113
72.105 18.17008
72.110 18.067699
72.115 18.583475
72.120 18.722376
72.125 18.822634
72.130 18.525715
72.135 18.618967
72.140 18.807344
72.145 18.674885
72.150 18.135872
72.155 17.765388
72.160 17.293116
72.165 16.621906
72.170 15.954241
72.175 16.157513
72.180 16.124754
72.185 15.959318
72.190 16.586773
72.195 16.666004
72.200 17.315008
72.205 17.520084
72.210 17.670237
72.215 18.684616
72.220 19.163435
72.225 18.942715
72.230 19.342731
72.235 19.023869
72.240 19.128614
72.245 19.059254
72.250 18.875551
72.255 18.642458
72.260 18.054688
72.265 18.295677
72.270 18.411512
72.275 18.201513
72.280 17.412516
72.285 16.913242
72.290 17.664806
72.295 17.728909
72.300 17.066103
72.305 17.022314
72.310 17.484631
72.315 18.529985
72.320 18.795576
72.325 18.482809
72.330 19.237907
72.335 19.564278
72.340 20.14649
72.345 19.369591
72.350 18.99497
72.355 19.024008
72.360 18.809826
72.365 18.404793
72.370 17.876354
72.375 17.421654
72.380 17.9494
72.385 18.551716
72.390 18.042061
72.395 17.950174
72.400 17.834024
72.405 17.679379
72.410 17.378084
72.415 17.084021
72.420 16.605162
72.425 16.573774
72.430 16.371864
72.435 16.043953
72.440 16.217054
72.445 16.2286
72.450 16.155348
72.455 16.635696
72.460 17.057816
72.465 17.094107
72.470 17.156704
72.475 17.748819
72.480 18.407274
72.485 17.993929
72.490 17.539486
72.495 16.978672
72.500 17.12682
72.505 17.057518
72.510 16.540983
72.515 16.786135
72.520 17.366882
72.525 17.870241
72.530 18.541243
72.535 18.518394
72.540 18.944164
72.545 18.66958
72.550 17.830591
72.555 17.308588
72.560 17.031992
72.565 17.380283
72.570 17.45743
72.575 16.872583
72.580 17.075806
72.585 17.21867
72.590 17.321379
72.595 17.453041
72.600 16.977863
72.605 16.96747
72.610 17.597157
72.615 17.307758
72.620 17.799751
72.625 17.772892
72.630 18.408642
72.635 18.447086
72.640 18.217432
72.645 18.000904
72.650 18.403807
72.655 19.004007
72.660 19.008087
72.665 18.640938
72.670 19.194214
72.675 18.990065
72.680 18.763281
72.685 18.28927
72.690 17.552904
72.695 17.29829
72.700 16.881227
72.705 16.64897
72.710 16.506075
72.715 16.091663
72.720 15.856544
72.725 15.983829
72.730 16.385359
72.735 16.399523
72.740 16.436556
72.745 16.827276
72.750 17.269072
72.755 17.518122
72.760 17.631104
72.765 17.772352
72.770 18.08029
72.775 18.101011
72.780 18.460707
72.785 18.332018
72.790 17.94533
72.795 17.918932
72.800 18.319229
72.805 18.124346
72.810 18.215475
72.815 18.08147
72.820 18.212732
72.825 18.319525
72.830 17.50252
72.835 17.654814
72.840 17.812937
72.845 17.712831
72.850 17.57341
72.855 17.402704
72.860 17.597294
72.865 17.41617
72.870 16.503637
72.875 16.419609
72.880 16.417835
72.885 16.504269
72.890 16.281164
72.895 15.832782
72.900 15.696777
72.905 15.870835
72.910 15.68095
72.915 15.615414
72.920 15.701729
72.925 15.382401
72.930 15.27146
72.935 15.332183
72.940 15.187988
72.945 15.030821
72.950 14.971328
72.955 15.314253
72.960 16.455536
72.965 17.117781
72.970 17.616001
72.975 18.237165
72.980 18.482922
72.985 18.709351
72.990 18.687826
72.995 17.992117
73.000 17.643137
