!@!!GADDS PLOTSO FILE: Chi integration type
!@!!Title/SampleName: map-6b
!@!!Comment: ?
!@!!User: Bruker Instrument Administrator
!@!!Site: University of Illinois Chicago
!@!!Frame: map-6b_01_000.gfrm
!@!!Wavelengths    1.54184   1.54056   1.54439
!@!!Frame angles: 2Theta: 63.000 Omega: 50.000 Phi: 0.000 Chi: 90.000
!@!!Integration range: 2Theta: 53.000 to 73.000  Gamma: -105.000 to -75.000
!@!!Integration method: bin normalized
!@!N
!@!SS
!@!M
!@!L 0.0 0.0 0.0 0.0
!@!XDegrees
!@!YCounts
53.000 10.099235
53.005 10.482154
53.010 10.099511
53.015 9.538102
53.020 9.310015
53.025 9.875061
53.030 10.111788
53.035 9.958926
53.040 10.001414
53.045 10.743073
53.050 11.710384
53.055 11.358002
53.060 10.486131
53.065 10.115343
53.070 10.058119
53.075 10.097201
53.080 9.167792
53.085 8.601845
53.090 9.186746
53.095 9.666776
53.100 9.721619
53.105 9.61723
53.110 9.643321
53.115 9.951805
53.120 9.793264
53.125 9.796597
53.130 9.509253
53.135 9.513832
53.140 9.562804
53.145 9.625699
53.150 9.238753
53.155 9.419248
53.160 9.22567
53.165 9.005465
53.170 8.908044
53.175 8.677553
53.180 8.85986
53.185 9.557337
53.190 9.363508
53.195 9.389305
53.200 9.426949
53.205 9.474337
53.210 9.519508
53.215 8.739773
53.220 8.301345
53.225 8.136571
53.230 8.416172
53.235 8.826344
53.240 8.976227
53.245 9.198654
53.250 9.49721
53.255 10.048475
53.260 10.703341
53.265 10.54521
53.270 10.056739
53.275 10.068505
53.280 10.63537
53.285 10.790155
53.290 10.440849
53.295 10.150157
53.300 10.275715
53.305 10.269784
53.310 10.116035
53.315 9.463845
53.320 9.050081
53.325 9.191197
53.330 9.017261
53.335 8.807178
53.340 8.654252
53.345 8.670271
53.350 9.046616
53.355 9.100495
53.360 8.850769
53.365 8.61537
53.370 8.997212
53.375 9.243677
53.380 9.032039
53.385 9.498402
53.390 9.538743
53.395 9.834676
53.400 10.283795
53.405 9.801671
53.410 9.738651
53.415 9.286828
53.420 8.71244
53.425 8.93082
53.430 8.959408
53.435 9.161031
53.440 9.552811
53.445 9.96816
53.450 10.861726
53.455 11.029799
53.460 10.643794
53.465 10.018975
53.470 9.628259
53.475 9.047774
53.480 8.727922
53.485 8.54326
53.490 8.922388
53.495 9.558654
53.500 10.467531
53.505 10.862839
53.510 11.246434
53.515 11.291018
53.520 10.795203
53.525 10.72042
53.530 10.341562
53.535 10.126886
53.540 10.224451
53.545 9.758825
53.550 9.826196
53.555 9.855647
53.560 9.684914
53.565 9.948136
53.570 9.722864
53.575 9.756543
53.580 10.036427
53.585 10.140638
53.590 10.687425
53.595 10.639705
53.600 10.667797
53.605 10.79337
53.610 11.388566
53.615 11.499552
53.620 11.427096
53.625 11.420647
53.630 11.611201
53.635 11.265685
53.640 11.103141
53.645 11.248719
53.650 11.142068
53.655 10.843339
53.660 10.782783
53.665 10.458972
53.670 10.814091
53.675 10.35758
53.680 10.110018
53.685 9.867794
53.690 9.509676
53.695 9.435026
53.700 9.838655
53.705 9.8967
53.710 10.002383
53.715 10.284243
53.720 10.47538
53.725 10.718478
53.730 11.000212
53.735 10.609983
53.740 10.629724
53.745 10.638879
53.750 10.224169
53.755 10.133077
53.760 9.8773
53.765 9.477831
53.770 9.693588
53.775 9.410291
53.780 9.206985
53.785 9.15684
53.790 9.384631
53.795 9.150875
53.800 9.200217
53.805 9.406722
53.810 9.627098
53.815 9.843977
53.820 10.0664
53.825 9.989497
53.830 10.105775
53.835 9.547836
53.840 9.821232
53.845 9.991065
53.850 10.060649
53.855 9.933064
53.860 10.144446
53.865 10.508794
53.870 10.60896
53.875 9.943652
53.880 9.742948
53.885 10.151635
53.890 9.887152
53.895 9.429687
53.900 9.363271
53.905 9.314541
53.910 9.349727
53.915 9.429921
53.920 8.974695
53.925 9.373406
53.930 9.764441
53.935 9.77328
53.940 9.754073
53.945 9.78863
53.950 9.794028
53.955 9.841959
53.960 9.695911
53.965 9.130555
53.970 9.400042
53.975 9.457345
53.980 9.792753
53.985 9.640274
53.990 9.332278
53.995 9.124028
54.000 9.721074
54.005 9.533805
54.010 9.317474
54.015 9.205918
54.020 9.295603
54.025 9.657432
54.030 10.111124
54.035 10.273659
54.040 10.353698
54.045 10.845843
54.050 10.999396
54.055 10.743239
54.060 10.408962
54.065 10.328413
54.070 10.431502
54.075 10.531675
54.080 9.790626
54.085 9.522149
54.090 9.715489
54.095 9.728428
54.100 9.259933
54.105 8.970826
54.110 8.698571
54.115 9.28123
54.120 9.710128
54.125 9.869207
54.130 10.522595
54.135 10.559827
54.140 10.449411
54.145 10.364464
54.150 9.682401
54.155 9.414657
54.160 9.341899
54.165 9.210599
54.170 9.880354
54.175 10.141762
54.180 10.203722
54.185 10.640798
54.190 11.408849
54.195 11.719377
54.200 10.915237
54.205 10.194201
54.210 10.025173
54.215 10.168858
54.220 10.393434
54.225 10.053714
54.230 10.285613
54.235 11.008123
54.240 11.056653
54.245 11.557969
54.250 11.442568
54.255 11.433782
54.260 11.260825
54.265 10.407427
54.270 10.284337
54.275 10.450403
54.280 9.970454
54.285 9.810925
54.290 9.557326
54.295 10.010934
54.300 10.516026
54.305 10.180102
54.310 10.107057
54.315 10.352628
54.320 10.834672
54.325 10.742719
54.330 10.232767
54.335 10.457902
54.340 11.353531
54.345 11.698862
54.350 11.851079
54.355 11.656354
54.360 11.81441
54.365 11.833729
54.370 11.457188
54.375 10.852677
54.380 10.587768
54.385 10.54347
54.390 10.593204
54.395 10.792553
54.400 10.415532
54.405 10.156971
54.410 10.503325
54.415 10.619671
54.420 10.0201
54.425 9.982968
54.430 9.975207
54.435 10.294639
54.440 10.888617
54.445 10.539535
54.450 10.418462
54.455 10.39556
54.460 10.084502
54.465 9.863069
54.470 10.11921
54.475 9.925577
54.480 10.373258
54.485 10.70699
54.490 10.767544
54.495 10.642971
54.500 10.455957
54.505 10.363569
54.510 10.292672
54.515 10.065832
54.520 9.934784
54.525 10.557185
54.530 11.191639
54.535 11.438213
54.540 11.364456
54.545 11.207512
54.550 11.521958
54.555 11.238443
54.560 11.085029
54.565 10.704412
54.570 10.507272
54.575 10.506153
54.580 9.929935
54.585 9.844583
54.590 9.731766
54.595 9.341492
54.600 9.523859
54.605 9.440029
54.610 8.932604
54.615 9.16291
54.620 9.550062
54.625 9.64712
54.630 9.818334
54.635 9.827439
54.640 9.958974
54.645 10.467025
54.650 10.107945
54.655 9.617627
54.660 9.375436
54.665 8.866867
54.670 8.587172
54.675 8.50606
54.680 8.684956
54.685 9.042333
54.690 10.018385
54.695 10.772114
54.700 11.389221
54.705 11.767964
54.710 11.776085
54.715 12.096133
54.720 11.910189
54.725 11.654076
54.730 12.392876
54.735 12.62229
54.740 12.588471
54.745 12.61587
54.750 12.705091
54.755 12.495558
54.760 12.420508
54.765 11.676338
54.770 11.59131
54.775 11.887752
54.780 11.401901
54.785 11.312598
54.790 11.22614
54.795 10.913917
54.800 10.891344
54.805 10.747019
54.810 10.811345
54.815 11.192613
54.820 11.096016
54.825 10.900523
54.830 11.095645
54.835 11.272087
54.840 11.428451
54.845 11.260416
54.850 11.583627
54.855 11.873198
54.860 12.070092
54.865 11.735445
54.870 11.694594
54.875 11.767557
54.880 11.84993
54.885 11.590998
54.890 11.261682
54.895 11.730839
54.900 11.517127
54.905 11.369899
54.910 11.440559
54.915 11.545872
54.920 11.316734
54.925 11.374222
54.930 10.875343
54.935 10.779849
54.940 10.949383
54.945 11.123069
54.950 10.983714
54.955 10.944574
54.960 10.952889
54.965 11.087508
54.970 11.102644
54.975 11.16318
54.980 11.152357
54.985 10.998131
54.990 11.134622
54.995 10.95142
55.000 10.549843
55.005 10.201805
55.010 9.918544
55.015 9.563027
55.020 9.620387
55.025 9.433929
55.030 9.825755
55.035 10.079661
55.040 9.832865
55.045 9.790156
55.050 10.07317
55.055 10.46888
55.060 10.565261
55.065 10.795295
55.070 11.372606
55.075 11.812943
55.080 12.080116
55.085 12.02983
55.090 11.987062
55.095 12.134374
55.100 11.934108
55.105 11.918416
55.110 11.863422
55.115 11.514071
55.120 11.808912
55.125 11.765797
55.130 11.390055
55.135 11.158923
55.140 11.175079
55.145 11.440538
55.150 11.3416
55.155 11.160902
55.160 11.60533
55.165 11.730542
55.170 11.909555
55.175 12.043716
55.180 11.77101
55.185 12.23351
55.190 12.207395
55.195 11.983347
55.200 12.019928
55.205 11.863441
55.210 11.92628
55.215 12.066761
55.220 11.60994
55.225 11.529072
55.230 11.21446
55.235 10.966196
55.240 10.917847
55.245 10.808621
55.250 10.710462
55.255 11.003491
55.260 11.163002
55.265 11.914762
55.270 12.209282
55.275 12.073423
55.280 12.002989
55.285 12.453631
55.290 12.068711
55.295 11.868011
55.300 11.746211
55.305 11.897319
55.310 12.379546
55.315 12.248664
55.320 12.146593
55.325 12.871334
55.330 13.26501
55.335 12.912471
55.340 12.325299
55.345 11.709203
55.350 11.895011
55.355 11.801745
55.360 11.068044
55.365 10.715886
55.370 10.646688
55.375 10.631345
55.380 11.109843
55.385 11.160118
55.390 11.049792
55.395 11.295437
55.400 11.251043
55.405 11.437069
55.410 11.556371
55.415 11.188372
55.420 10.628983
55.425 10.23221
55.430 10.41039
55.435 10.63207
55.440 10.383828
55.445 10.724966
55.450 11.121658
55.455 11.388479
55.460 11.84667
55.465 11.64271
55.470 11.842744
55.475 12.183833
55.480 12.140949
55.485 11.971332
55.490 12.232156
55.495 11.933427
55.500 11.662767
55.505 11.547788
55.510 11.133552
55.515 11.275166
55.520 11.537108
55.525 11.123087
55.530 10.769239
55.535 10.936805
55.540 11.447395
55.545 11.902292
55.550 11.741462
55.555 11.496951
55.560 11.728759
55.565 12.086925
55.570 12.155776
55.575 12.017787
55.580 11.571032
55.585 11.320209
55.590 11.748058
55.595 12.222375
55.600 12.16161
55.605 11.769867
55.610 11.647514
55.615 11.819223
55.620 12.270939
55.625 11.895028
55.630 11.581556
55.635 11.491288
55.640 11.42938
55.645 11.474839
55.650 11.545095
55.655 11.725129
55.660 11.708814
55.665 11.677973
55.670 12.355014
55.675 12.835141
55.680 12.834175
55.685 12.837285
55.690 12.768499
55.695 12.650974
55.700 12.606853
55.705 12.179474
55.710 11.808915
55.715 11.886715
55.720 11.658351
55.725 11.983782
55.730 12.276539
55.735 11.796464
55.740 11.62973
55.745 11.474341
55.750 11.377174
55.755 11.104013
55.760 10.822975
55.765 10.737266
55.770 11.19842
55.775 11.228433
55.780 11.379228
55.785 11.203298
55.790 11.405314
55.795 11.388023
55.800 11.308034
55.805 11.391326
55.810 11.467386
55.815 11.288802
55.820 11.585094
55.825 11.429798
55.830 12.084884
55.835 12.366676
55.840 12.327697
55.845 13.015523
55.850 13.786692
55.855 14.172663
55.860 14.163738
55.865 13.803953
55.870 14.078608
55.875 14.086704
55.880 13.613069
55.885 13.173838
55.890 12.960513
55.895 13.059477
55.900 12.97448
55.905 12.51166
55.910 12.367168
55.915 12.461279
55.920 12.589023
55.925 12.527271
55.930 12.323606
55.935 12.055962
55.940 11.624679
55.945 11.575131
55.950 11.547071
55.955 11.305009
55.960 11.096715
55.965 10.891438
55.970 10.79419
55.975 11.564225
55.980 11.769213
55.985 11.564493
55.990 11.418836
55.995 11.356318
56.000 11.546626
56.005 11.695057
56.010 11.640838
56.015 11.854157
56.020 12.51055
56.025 13.057923
56.030 13.328532
56.035 13.538988
56.040 13.40737
56.045 13.162332
56.050 13.057664
56.055 12.906277
56.060 12.874917
56.065 13.041945
56.070 13.336398
56.075 13.476829
56.080 13.006429
56.085 12.702398
56.090 12.120548
56.095 11.448357
56.100 11.579814
56.105 11.141653
56.110 10.94587
56.115 10.562459
56.120 10.34612
56.125 10.176122
56.130 10.028775
56.135 9.612603
56.140 10.115582
56.145 10.412383
56.150 11.276399
56.155 12.027209
56.160 13.0575
56.165 13.414527
56.170 12.901094
56.175 12.091432
56.180 11.747863
56.185 11.333474
56.190 10.732771
56.195 10.747722
56.200 11.099811
56.205 11.979588
56.210 12.555714
56.215 12.815154
56.220 13.025447
56.225 12.693629
56.230 12.272694
56.235 12.240507
56.240 12.159977
56.245 12.411226
56.250 12.287082
56.255 12.211371
56.260 12.630311
56.265 12.567028
56.270 12.76155
56.275 12.853757
56.280 12.812321
56.285 13.45481
56.290 13.899529
56.295 14.119165
56.300 14.290747
56.305 13.731241
56.310 13.332817
56.315 13.158266
56.320 12.620003
56.325 12.579315
56.330 12.434788
56.335 12.382544
56.340 12.277227
56.345 12.18825
56.350 12.171625
56.355 12.30391
56.360 11.810472
56.365 11.526663
56.370 11.55518
56.375 12.117142
56.380 12.285768
56.385 12.317617
56.390 12.811248
56.395 13.042116
56.400 13.269208
56.405 12.906461
56.410 12.399164
56.415 12.438271
56.420 12.30481
56.425 11.978369
56.430 12.449266
56.435 12.452593
56.440 12.618808
56.445 12.762608
56.450 12.860548
56.455 12.844772
56.460 13.038669
56.465 12.9827
56.470 13.203904
56.475 13.073073
56.480 13.141023
56.485 13.37989
56.490 13.659656
56.495 13.732105
56.500 13.519759
56.505 13.773457
56.510 13.992932
56.515 13.885845
56.520 13.778326
56.525 13.672
56.530 13.219784
56.535 13.176368
56.540 12.906272
56.545 12.936504
56.550 12.916592
56.555 12.698809
56.560 12.494624
56.565 12.692246
56.570 12.434271
56.575 12.386158
56.580 12.155071
56.585 11.869338
56.590 12.128585
56.595 12.516412
56.600 12.747461
56.605 12.787176
56.610 12.552505
56.615 12.513019
56.620 12.362994
56.625 12.135632
56.630 11.767532
56.635 11.261522
56.640 11.304535
56.645 11.377198
56.650 11.255509
56.655 11.709952
56.660 11.983432
56.665 12.412869
56.670 12.425233
56.675 12.516682
56.680 12.586238
56.685 12.677044
56.690 12.682714
56.695 12.572081
56.700 12.861919
56.705 13.307549
56.710 13.524719
56.715 13.83616
56.720 14.125734
56.725 14.240874
56.730 13.947293
56.735 13.779043
56.740 13.55175
56.745 13.469926
56.750 13.443764
56.755 13.165727
56.760 13.105364
56.765 13.182254
56.770 13.680047
56.775 14.103022
56.780 13.916653
56.785 13.989983
56.790 14.357702
56.795 14.376114
56.800 13.689031
56.805 12.873846
56.810 12.589614
56.815 13.020684
56.820 13.056656
56.825 12.713268
56.830 12.781066
56.835 13.160705
56.840 13.321254
56.845 13.332261
56.850 12.949486
56.855 12.833591
56.860 12.813937
56.865 13.315327
56.870 13.47169
56.875 13.421339
56.880 13.096647
56.885 13.170512
56.890 13.570409
56.895 13.42884
56.900 13.013514
56.905 13.386498
56.910 13.807258
56.915 14.221933
56.920 13.885833
56.925 13.605965
56.930 13.260619
56.935 13.360761
56.940 12.777353
56.945 12.372302
56.950 12.366732
56.955 12.328615
56.960 12.572996
56.965 12.801916
56.970 12.611283
56.975 12.51334
56.980 12.763165
56.985 12.440413
56.990 12.600205
56.995 13.118362
57.000 13.486124
57.005 13.933674
57.010 13.855116
57.015 14.059377
57.020 14.367802
57.025 14.319959
57.030 13.800467
57.035 13.505469
57.040 13.570951
57.045 14.176471
57.050 14.349703
57.055 14.711752
57.060 14.717099
57.065 14.832512
57.070 14.882444
57.075 14.867565
57.080 14.593897
57.085 14.366406
57.090 13.816401
57.095 13.724183
57.100 13.668454
57.105 13.522183
57.110 13.419986
57.115 13.64789
57.120 13.211413
57.125 13.20101
57.130 13.111869
57.135 13.113158
57.140 13.121246
57.145 12.880756
57.150 13.132639
57.155 13.430713
57.160 13.111385
57.165 12.574928
57.170 12.530727
57.175 12.534752
57.180 12.25809
57.185 11.516851
57.190 11.419908
57.195 11.890709
57.200 12.222643
57.205 11.83459
57.210 11.795005
57.215 11.997347
57.220 12.647709
57.225 12.972157
57.230 12.931173
57.235 12.951123
57.240 13.708496
57.245 14.126593
57.250 14.370818
57.255 14.547085
57.260 15.387646
57.265 16.150198
57.270 16.412306
57.275 15.906616
57.280 15.195819
57.285 15.344405
57.290 15.271874
57.295 14.873345
57.300 14.247167
57.305 13.884363
57.310 13.854476
57.315 13.971138
57.320 13.714393
57.325 13.850908
57.330 13.913308
57.335 14.215613
57.340 14.350667
57.345 14.256182
57.350 14.720462
57.355 14.456694
57.360 13.909349
57.365 13.732137
57.370 13.522046
57.375 13.945263
57.380 14.325381
57.385 13.992383
57.390 14.045348
57.395 13.999793
57.400 14.171742
57.405 13.881063
57.410 13.3507
57.415 13.306713
57.420 13.275819
57.425 12.869739
57.430 13.453113
57.435 13.426294
57.440 13.722171
57.445 13.864583
57.450 14.179231
57.455 14.40224
57.460 14.774698
57.465 14.500283
57.470 14.429917
57.475 14.23667
57.480 14.153515
57.485 13.723174
57.490 13.644855
57.495 13.359962
57.500 13.259891
57.505 14.13829
57.510 14.020738
57.515 14.166104
57.520 14.449083
57.525 14.306525
57.530 14.380959
57.535 14.300705
57.540 14.175309
57.545 15.033137
57.550 14.922142
57.555 14.352098
57.560 14.663522
57.565 14.762208
57.570 14.438202
57.575 13.99163
57.580 13.46036
57.585 13.942304
57.590 14.168985
57.595 14.132784
57.600 14.214789
57.605 13.800478
57.610 13.898464
57.615 13.950802
57.620 13.748913
57.625 14.00313
57.630 13.956837
57.635 13.723492
57.640 13.977573
57.645 13.881497
57.650 13.758874
57.655 13.803099
57.660 13.508023
57.665 13.459008
57.670 13.837616
57.675 13.759516
57.680 13.513279
57.685 13.663557
57.690 13.707276
57.695 14.032382
57.700 14.026496
57.705 13.927076
57.710 14.245512
57.715 14.587707
57.720 15.0142
57.725 14.881707
57.730 15.006335
57.735 15.252484
57.740 15.67793
57.745 16.341496
57.750 16.814381
57.755 16.477259
57.760 17.092268
57.765 17.29623
57.770 17.436678
57.775 16.575579
57.780 15.810878
57.785 15.135249
57.790 14.978072
57.795 14.568141
57.800 14.397718
57.805 14.36383
57.810 14.792361
57.815 15.472506
57.820 15.888635
57.825 15.666403
57.830 15.779776
57.835 15.768874
57.840 15.690681
57.845 16.232008
57.850 15.761296
57.855 15.346028
57.860 15.471655
57.865 15.705135
57.870 16.060863
57.875 15.998931
57.880 15.553705
57.885 15.163953
57.890 15.308219
57.895 15.023062
57.900 14.878644
57.905 14.960661
57.910 14.733004
57.915 14.660125
57.920 15.074983
57.925 15.266994
57.930 15.596966
57.935 15.846984
57.940 15.666466
57.945 15.761453
57.950 16.073523
57.955 15.900213
57.960 16.349535
57.965 16.394924
57.970 16.500547
57.975 16.355791
57.980 15.813256
57.985 15.855118
57.990 16.071537
57.995 15.704631
58.000 15.762603
58.005 15.333883
58.010 15.39979
58.015 15.869316
58.020 15.183124
58.025 14.596569
58.030 14.280756
58.035 14.321781
58.040 14.486011
58.045 14.865038
58.050 15.120645
58.055 15.797467
58.060 16.274162
58.065 16.172319
58.070 16.149092
58.075 15.957895
58.080 15.989479
58.085 15.850947
58.090 15.878515
58.095 15.4811
58.100 15.548379
58.105 15.704672
58.110 15.427895
58.115 15.354972
58.120 15.291795
58.125 15.369538
58.130 15.864499
58.135 16.630238
58.140 17.294909
58.145 17.689096
58.150 17.468042
58.155 17.108387
58.160 16.795223
58.165 16.555611
58.170 15.628426
58.175 14.71937
58.180 14.83443
58.185 15.135206
58.190 15.714779
58.195 16.276815
58.200 16.71117
58.205 17.351444
58.210 17.35899
58.215 16.936024
58.220 17.110052
58.225 17.44669
58.230 17.417826
58.235 17.481113
58.240 17.491737
58.245 17.835407
58.250 17.93433
58.255 17.301184
58.260 17.317888
58.265 17.175282
58.270 16.70619
58.275 16.450714
58.280 16.748053
58.285 17.442875
58.290 18.06601
58.295 17.535059
58.300 17.503466
58.305 17.782463
58.310 17.514107
58.315 17.156527
58.320 16.571293
58.325 16.55143
58.330 16.951466
58.335 17.143255
58.340 17.200788
58.345 17.742224
58.350 18.170605
58.355 18.632458
58.360 18.683992
58.365 18.577309
58.370 18.451672
58.375 19.116426
58.380 19.404732
58.385 19.848286
58.390 19.885202
58.395 20.082247
58.400 20.78002
58.405 21.120348
58.410 20.9179
58.415 21.466812
58.420 21.392756
58.425 21.441179
58.430 21.582258
58.435 21.519123
58.440 21.946077
58.445 22.464958
58.450 22.133709
58.455 21.711493
58.460 22.304445
58.465 22.456736
58.470 23.006954
58.475 23.21386
58.480 23.32053
58.485 23.965031
58.490 25.391119
58.495 26.043686
58.500 25.995476
58.505 26.439627
58.510 26.911531
58.515 27.533461
58.520 29.208265
58.525 30.522354
58.530 31.751675
58.535 32.939903
58.540 33.634972
58.545 33.705685
58.550 33.02623
58.555 32.362438
58.560 32.161064
58.565 31.567356
58.570 31.925842
58.575 32.438133
58.580 33.305542
58.585 34.276634
58.590 34.798145
58.595 35.13187
58.600 36.504658
58.605 37.335987
58.610 36.937088
58.615 36.787216
58.620 37.249912
58.625 36.977512
58.630 36.905449
58.635 37.005371
58.640 37.70451
58.645 37.691193
58.650 37.461056
58.655 37.495255
58.660 38.413612
58.665 38.859371
58.670 38.221737
58.675 37.958218
58.680 38.506989
58.685 39.508617
58.690 39.353336
58.695 39.238506
58.700 38.780109
58.705 37.820221
58.710 37.128529
58.715 36.294201
58.720 35.494118
58.725 35.100803
58.730 34.789276
58.735 34.830578
58.740 35.10968
58.745 35.285164
58.750 35.642303
58.755 35.644005
58.760 35.639206
58.765 36.063633
58.770 36.376781
58.775 36.435024
58.780 35.910477
58.785 35.791965
58.790 35.990299
58.795 35.599007
58.800 35.362953
58.805 34.660564
58.810 34.056286
58.815 33.406128
58.820 32.718895
58.825 31.671431
58.830 31.098288
58.835 29.037868
58.840 27.358913
58.845 26.885584
58.850 26.664482
58.855 26.066038
58.860 26.024794
58.865 26.26218
58.870 26.92421
58.875 27.78157
58.880 28.0695
58.885 28.098349
58.890 28.003878
58.895 27.324024
58.900 26.756737
58.905 25.939465
58.910 24.98913
58.915 24.025799
58.920 22.991709
58.925 21.931374
58.930 21.49328
58.935 20.717333
58.940 20.232479
58.945 20.136364
58.950 19.950283
58.955 20.459126
58.960 20.78196
58.965 20.786316
58.970 20.940073
58.975 21.142702
58.980 20.75024
58.985 19.692944
58.990 18.257643
58.995 17.692814
59.000 17.295443
59.005 17.385984
59.010 17.24354
59.015 17.996241
59.020 18.587587
59.025 18.870564
59.030 19.404837
59.035 19.444845
59.040 18.475986
59.045 17.783703
59.050 17.462963
59.055 18.028725
59.060 18.062466
59.065 17.349798
59.070 17.356461
59.075 17.25395
59.080 17.133131
59.085 16.617165
59.090 16.62668
59.095 16.926746
59.100 16.913063
59.105 16.802473
59.110 16.8759
59.115 16.441383
59.120 16.306665
59.125 15.853387
59.130 15.726275
59.135 15.598842
59.140 15.797062
59.145 15.376014
59.150 15.308521
59.155 14.800346
59.160 14.061628
59.165 13.87102
59.170 13.530277
59.175 13.778973
59.180 14.137388
59.185 14.377836
59.190 14.399662
59.195 15.049889
59.200 15.619051
59.205 15.539744
59.210 15.20455
59.215 15.132956
59.220 15.162075
59.225 15.230995
59.230 15.049406
59.235 15.19639
59.240 15.536233
59.245 16.1318
59.250 16.351149
59.255 16.311146
59.260 16.513935
59.265 15.767476
59.270 15.433095
59.275 15.185352
59.280 14.351324
59.285 14.415972
59.290 14.222353
59.295 14.480722
59.300 14.918891
59.305 14.968649
59.310 14.839945
59.315 15.012027
59.320 14.664407
59.325 14.578678
59.330 14.704171
59.335 14.746484
59.340 14.359406
59.345 14.345665
59.350 14.452257
59.355 14.594318
59.360 14.799521
59.365 14.458746
59.370 14.247147
59.375 14.433586
59.380 14.469116
59.385 14.238902
59.390 14.777385
59.395 15.754178
59.400 16.649195
59.405 16.674177
59.410 16.617546
59.415 16.901566
59.420 16.669044
59.425 15.996401
59.430 15.286914
59.435 15.029588
59.440 14.770147
59.445 14.889729
59.450 14.54578
59.455 15.121344
59.460 15.428988
59.465 15.275227
59.470 15.021619
59.475 15.237872
59.480 15.314692
59.485 15.180178
59.490 14.788374
59.495 14.374839
59.500 14.187603
59.505 14.181385
59.510 14.314443
59.515 14.347178
59.520 14.330382
59.525 14.394851
59.530 14.079121
59.535 14.33429
59.540 14.787778
59.545 15.298615
59.550 15.273283
59.555 15.006225
59.560 15.030463
59.565 15.834625
59.570 15.796464
59.575 15.114538
59.580 14.618198
59.585 15.261052
59.590 16.019972
59.595 15.874884
59.600 15.410031
59.605 15.148181
59.610 15.004811
59.615 14.820233
59.620 14.613933
59.625 14.529228
59.630 14.611039
59.635 14.732871
59.640 14.909599
59.645 15.33156
59.650 15.288998
59.655 15.184683
59.660 14.955879
59.665 14.550977
59.670 14.045375
59.675 13.972157
59.680 13.934453
59.685 14.115206
59.690 13.977201
59.695 14.335978
59.700 15.885074
59.705 16.513062
59.710 16.757841
59.715 16.886967
59.720 16.686258
59.725 16.713303
59.730 16.375944
59.735 15.923416
59.740 16.035866
59.745 16.046186
59.750 16.354849
59.755 16.683235
59.760 17.260492
59.765 17.365368
59.770 16.69735
59.775 16.237839
59.780 16.719296
59.785 16.472267
59.790 16.095734
59.795 15.517986
59.800 15.437196
59.805 16.022993
59.810 15.935012
59.815 15.647511
59.820 15.655725
59.825 16.025604
59.830 15.996479
59.835 15.507275
59.840 14.922617
59.845 15.491933
59.850 15.291916
59.855 15.711416
59.860 15.88236
59.865 15.647658
59.870 15.865515
59.875 15.824209
59.880 14.9361
59.885 14.300598
59.890 13.989358
59.895 13.685405
59.900 13.877765
59.905 14.135989
59.910 14.288511
59.915 14.576329
59.920 14.574706
59.925 14.6613
59.930 15.192301
59.935 15.243999
59.940 15.575879
59.945 15.621409
59.950 15.712492
59.955 15.95026
59.960 15.48136
59.965 15.137369
59.970 14.9095
59.975 14.7835
59.980 14.494599
59.985 14.478204
59.990 14.657126
59.995 14.87862
60.000 14.948068
60.005 14.847335
60.010 14.733859
60.015 15.535105
60.020 15.603105
60.025 15.617117
60.030 15.608086
60.035 15.422082
60.040 15.501197
60.045 15.647939
60.050 14.781305
60.055 14.753479
60.060 14.936322
60.065 15.110042
60.070 15.149139
60.075 15.589403
60.080 14.962243
60.085 15.608886
60.090 15.813951
60.095 15.395121
60.100 15.587394
60.105 15.875418
60.110 15.355136
60.115 15.895023
60.120 15.79177
60.125 15.465161
60.130 15.427769
60.135 15.167911
60.140 14.619272
60.145 14.666129
60.150 14.743667
60.155 14.635379
60.160 14.997321
60.165 15.24012
60.170 15.109546
60.175 15.406724
60.180 16.00913
60.185 16.379942
60.190 16.925327
60.195 16.249855
60.200 16.209629
60.205 16.263433
60.210 16.476849
60.215 15.731477
60.220 14.641337
60.225 14.078118
60.230 14.792591
60.235 14.910556
60.240 15.699469
60.245 15.829821
60.250 15.502695
60.255 15.552413
60.260 15.870992
60.265 15.683831
60.270 15.574226
60.275 14.833423
60.280 14.271489
60.285 14.562369
60.290 15.063825
60.295 14.744919
60.300 14.642607
60.305 14.659298
60.310 15.014709
60.315 15.67728
60.320 15.617525
60.325 15.170475
60.330 15.26089
60.335 14.939434
60.340 14.913592
60.345 14.991658
60.350 14.947354
60.355 15.249477
60.360 15.357109
60.365 15.519439
60.370 15.830017
60.375 15.519745
60.380 15.43972
60.385 15.499086
60.390 15.491533
60.395 15.943928
60.400 15.948333
60.405 15.987985
60.410 15.923923
60.415 16.069054
60.420 16.238413
60.425 16.638266
60.430 16.290503
60.435 15.98297
60.440 15.741946
60.445 15.848899
60.450 15.559116
60.455 15.340632
60.460 15.385455
60.465 15.619076
60.470 16.616711
60.475 17.043673
60.480 17.187431
60.485 17.641443
60.490 17.438505
60.495 17.774654
60.500 16.980993
60.505 16.076777
60.510 15.801911
60.515 15.824327
60.520 15.343488
60.525 15.389119
60.530 14.558938
60.535 14.697302
60.540 14.829392
60.545 14.803837
60.550 14.83194
60.555 15.055767
60.560 14.804798
60.565 14.399531
60.570 14.40243
60.575 14.593822
60.580 14.982759
60.585 15.084329
60.590 14.937974
60.595 15.565516
60.600 16.440432
60.605 17.045156
60.610 17.108889
60.615 16.659672
60.620 16.686754
60.625 17.096186
60.630 17.227154
60.635 17.300764
60.640 17.187269
60.645 17.162607
60.650 16.943262
60.655 16.360765
60.660 15.958579
60.665 15.085026
60.670 14.815453
60.675 14.503677
60.680 14.524653
60.685 14.829676
60.690 15.406164
60.695 15.454848
60.700 15.75473
60.705 15.870715
60.710 15.951756
60.715 16.119278
60.720 16.183279
60.725 16.637953
60.730 16.834007
60.735 17.301321
60.740 17.254011
60.745 17.123608
60.750 17.686279
60.755 18.319834
60.760 17.620148
60.765 18.05654
60.770 17.718092
60.775 17.137369
60.780 17.19376
60.785 16.820915
60.790 16.459558
60.795 16.782438
60.800 16.499279
60.805 16.679539
60.810 17.18424
60.815 16.530741
60.820 15.881593
60.825 15.492145
60.830 14.708467
60.835 13.959086
60.840 13.889254
60.845 14.142885
60.850 15.116929
60.855 15.572927
60.860 15.571552
60.865 15.866079
60.870 16.389555
60.875 15.86825
60.880 15.504037
60.885 15.342939
60.890 15.148479
60.895 14.901727
60.900 14.529953
60.905 13.753417
60.910 14.042912
60.915 14.102862
60.920 14.538782
60.925 14.551226
60.930 14.991168
60.935 15.691851
60.940 15.939559
60.945 15.874348
60.950 15.618145
60.955 14.968722
60.960 15.085442
60.965 14.996692
60.970 15.140086
60.975 15.227131
60.980 15.51013
60.985 15.537926
60.990 15.558645
60.995 15.840061
61.000 16.094563
61.005 16.170986
61.010 16.823729
61.015 16.728455
61.020 16.48423
61.025 16.337151
61.030 16.008583
61.035 15.825465
61.040 15.628705
61.045 15.209787
61.050 15.644092
61.055 15.780732
61.060 15.547764
61.065 15.398833
61.070 15.778574
61.075 16.030197
61.080 15.893829
61.085 15.677456
61.090 16.609829
61.095 17.095705
61.100 16.525362
61.105 16.082365
61.110 15.615531
61.115 15.923218
61.120 15.933683
61.125 15.928532
61.130 15.890483
61.135 16.346416
61.140 16.630348
61.145 16.887074
61.150 16.933651
61.155 16.760836
61.160 16.602276
61.165 16.599045
61.170 16.534842
61.175 16.967539
61.180 17.199659
61.185 16.805532
61.190 16.790476
61.195 16.313807
61.200 16.605394
61.205 16.426136
61.210 15.555582
61.215 15.343942
61.220 15.4547
61.225 16.180969
61.230 17.106106
61.235 17.098467
61.240 16.909433
61.245 17.555595
61.250 17.314085
61.255 17.362221
61.260 16.652277
61.265 16.275993
61.270 16.472904
61.275 16.138353
61.280 15.541081
61.285 15.351778
61.290 15.152136
61.295 15.253793
61.300 15.117464
61.305 14.985011
61.310 15.537256
61.315 15.88321
61.320 16.320835
61.325 16.221117
61.330 16.016516
61.335 15.95813
61.340 15.835092
61.345 15.830236
61.350 15.933738
61.355 16.196629
61.360 16.510597
61.365 16.81727
61.370 16.537363
61.375 17.07053
61.380 17.456675
61.385 17.177
61.390 16.779051
61.395 16.504221
61.400 16.20985
61.405 15.866238
61.410 15.529858
61.415 15.397892
61.420 15.087728
61.425 14.771668
61.430 14.28635
61.435 14.337379
61.440 14.824448
61.445 15.405221
61.450 15.478689
61.455 16.112902
61.460 17.164408
61.465 18.126852
61.470 18.305319
61.475 18.019718
61.480 17.209938
61.485 16.746721
61.490 16.630804
61.495 16.724424
61.500 16.430622
61.505 16.268396
61.510 16.302706
61.515 16.402155
61.520 17.06765
61.525 16.908579
61.530 16.500988
61.535 16.122101
61.540 16.209311
61.545 16.394232
61.550 17.027899
61.555 16.938778
61.560 17.128389
61.565 17.067654
61.570 17.186943
61.575 17.346588
61.580 17.349586
61.585 16.475298
61.590 15.772713
61.595 15.354127
61.600 15.021477
61.605 15.785271
61.610 15.514153
61.615 15.196054
61.620 15.545637
61.625 16.502151
61.630 17.125751
61.635 17.624443
61.640 17.545008
61.645 17.886444
61.650 17.852034
61.655 17.245644
61.660 16.529253
61.665 16.379421
61.670 16.179932
61.675 15.881073
61.680 15.627001
61.685 15.915135
61.690 16.002075
61.695 15.61982
61.700 15.297782
61.705 15.465174
61.710 15.527916
61.715 15.399548
61.720 15.075985
61.725 15.398581
61.730 16.015987
61.735 16.147406
61.740 15.925776
61.745 15.890617
61.750 16.203701
61.755 16.892181
61.760 17.098598
61.765 17.258703
61.770 16.948036
61.775 17.394783
61.780 17.550709
61.785 17.270185
61.790 17.090355
61.795 16.839403
61.800 16.265003
61.805 15.866373
61.810 15.788547
61.815 15.937686
61.820 15.602237
61.825 15.301563
61.830 15.350101
61.835 15.729015
61.840 15.760436
61.845 14.98075
61.850 14.907963
61.855 15.783295
61.860 16.167255
61.865 16.410856
61.870 16.59341
61.875 17.286444
61.880 18.00177
61.885 18.630816
61.890 18.978081
61.895 18.416973
61.900 18.142622
61.905 18.053347
61.910 17.499748
61.915 17.275063
61.920 16.306849
61.925 15.708998
61.930 15.780221
61.935 15.650014
61.940 15.688231
61.945 16.101004
61.950 15.988022
61.955 15.698271
61.960 16.097853
61.965 16.171286
61.970 16.034563
61.975 15.867578
61.980 15.613599
61.985 15.523027
61.990 15.640972
61.995 15.71105
62.000 15.687608
62.005 15.797157
62.010 15.654821
62.015 15.70004
62.020 15.854997
62.025 15.78161
62.030 15.576416
62.035 16.155891
62.040 16.616936
62.045 17.230469
62.050 17.258451
62.055 17.354797
62.060 17.444113
62.065 17.405264
62.070 16.681128
62.075 16.164112
62.080 15.857485
62.085 15.725296
62.090 15.466949
62.095 15.315637
62.100 15.263506
62.105 15.656284
62.110 15.826416
62.115 16.189066
62.120 16.414881
62.125 16.621489
62.130 16.825111
62.135 17.237532
62.140 17.412354
62.145 17.476044
62.150 17.085768
62.155 16.940346
62.160 16.971292
62.165 17.351154
62.170 16.469667
62.175 15.625144
62.180 15.417082
62.185 15.39107
62.190 15.495012
62.195 15.631615
62.200 15.516337
62.205 15.537944
62.210 15.662038
62.215 15.489268
62.220 16.162159
62.225 16.690735
62.230 16.33749
62.235 16.504824
62.240 16.823633
62.245 17.055094
62.250 17.091557
62.255 16.362694
62.260 15.764363
62.265 15.550677
62.270 14.988491
62.275 15.302708
62.280 15.8959
62.285 16.193222
62.290 16.437464
62.295 16.607462
62.300 17.139402
62.305 17.411524
62.310 16.962978
62.315 16.315609
62.320 16.007807
62.325 16.117073
62.330 15.927733
62.335 15.529863
62.340 15.174273
62.345 15.688411
62.350 15.782955
62.355 15.101607
62.360 14.84061
62.365 14.82698
62.370 14.748702
62.375 15.227591
62.380 15.195199
62.385 15.257583
62.390 15.622061
62.395 15.625272
62.400 15.967854
62.405 16.56595
62.410 16.360447
62.415 16.13624
62.420 16.043209
62.425 16.245823
62.430 16.029329
62.435 15.712148
62.440 15.348959
62.445 15.242966
62.450 15.408122
62.455 15.942934
62.460 16.187792
62.465 16.994968
62.470 17.55488
62.475 17.871016
62.480 18.413815
62.485 18.883875
62.490 18.242287
62.495 18.365591
62.500 17.94483
62.505 17.565821
62.510 16.99404
62.515 16.591209
62.520 16.20573
62.525 16.56955
62.530 16.158291
62.535 16.07745
62.540 16.547768
62.545 17.497419
62.550 17.469297
62.555 16.989067
62.560 16.88719
62.565 16.710623
62.570 16.620926
62.575 16.04574
62.580 15.457923
62.585 15.773299
62.590 15.789432
62.595 16.162317
62.600 16.460915
62.605 16.538015
62.610 16.511034
62.615 16.383713
62.620 16.708399
62.625 17.440342
62.630 17.298487
62.635 17.625729
62.640 17.939276
62.645 17.684107
62.650 17.786037
62.655 17.369619
62.660 17.405378
62.665 17.650564
62.670 17.291006
62.675 17.275272
62.680 17.952579
62.685 18.33423
62.690 18.658695
62.695 17.740921
62.700 16.845047
62.705 16.64135
62.710 16.258825
62.715 16.259724
62.720 15.865438
62.725 15.626186
62.730 16.493013
62.735 16.967968
62.740 16.842463
62.745 16.94747
62.750 16.899761
62.755 16.943047
62.760 17.357763
62.765 17.400131
62.770 17.300781
62.775 17.532007
62.780 17.737581
62.785 17.458796
62.790 17.574123
62.795 16.518364
62.800 16.473665
62.805 16.661858
62.810 16.633444
62.815 16.630859
62.820 16.560883
62.825 16.265318
62.830 17.030439
62.835 16.905169
62.840 16.596205
62.845 16.395826
62.850 16.064259
62.855 16.425913
62.860 16.525852
62.865 15.887693
62.870 15.739259
62.875 16.224096
62.880 16.090063
62.885 16.231522
62.890 16.055719
62.895 15.769518
62.900 16.264715
62.905 15.950476
62.910 15.611699
62.915 16.194597
62.920 16.379963
62.925 16.290956
62.930 16.725206
62.935 16.683249
62.940 17.486275
62.945 17.486721
62.950 17.124496
62.955 16.914761
62.960 16.799858
62.965 16.859571
62.970 16.785671
62.975 16.263952
62.980 16.247862
62.985 16.642614
62.990 16.478916
62.995 16.306633
63.000 16.212317
63.005 16.472666
63.010 17.159941
63.015 17.429319
63.020 17.384735
63.025 17.935472
63.030 18.528826
63.035 18.594736
63.040 18.160688
63.045 17.841
63.050 18.078901
63.055 17.682758
63.060 17.822866
63.065 17.522068
63.070 17.126368
63.075 16.730551
63.080 16.278238
63.085 15.774598
63.090 16.04932
63.095 15.918636
63.100 15.78478
63.105 16.024406
63.110 16.578228
63.115 16.713758
63.120 16.693226
63.125 16.825304
63.130 16.5625
63.135 17.087564
63.140 17.916027
63.145 17.768923
63.150 17.699614
63.155 17.534443
63.160 17.064264
63.165 17.02582
63.170 16.133226
63.175 14.993979
63.180 15.009361
63.185 15.425716
63.190 15.347431
63.195 15.215347
63.200 15.751735
63.205 16.069056
63.210 16.357862
63.215 16.497961
63.220 16.311354
63.225 16.639765
63.230 16.886803
63.235 16.710478
63.240 16.479979
63.245 16.574322
63.250 16.37175
63.255 16.80722
63.260 16.786833
63.265 16.778851
63.270 16.588718
63.275 16.790293
63.280 17.165449
63.285 17.553013
63.290 17.394495
63.295 16.974043
63.300 17.389963
63.305 17.836063
63.310 18.235344
63.315 17.919441
63.320 17.680176
63.325 17.326748
63.330 17.685631
63.335 17.357918
63.340 17.025938
63.345 16.667868
63.350 16.333126
63.355 16.59936
63.360 17.033293
63.365 17.395254
63.370 17.374216
63.375 17.447821
63.380 17.754116
63.385 17.878012
63.390 17.576748
63.395 17.782362
63.400 17.29652
63.405 16.945452
63.410 16.796904
63.415 16.906937
63.420 16.748314
63.425 16.746817
63.430 16.414024
63.435 16.807131
63.440 16.867823
63.445 16.544348
63.450 16.508991
63.455 16.865458
63.460 16.921434
63.465 17.194845
63.470 17.352734
63.475 18.029085
63.480 18.447632
63.485 18.433172
63.490 18.975378
63.495 19.146389
63.500 19.272423
63.505 19.355343
63.510 18.991743
63.515 19.200205
63.520 18.846586
63.525 18.179108
63.530 17.595751
63.535 16.745205
63.540 16.297163
63.545 16.034737
63.550 15.743394
63.555 15.645519
63.560 15.844522
63.565 16.003572
63.570 16.103251
63.575 16.153738
63.580 16.368525
63.585 16.870096
63.590 16.954947
63.595 17.226387
63.600 17.365442
63.605 17.327953
63.610 17.49074
63.615 17.540073
63.620 17.137262
63.625 17.079571
63.630 16.499151
63.635 16.302174
63.640 17.044319
63.645 17.390289
63.650 17.774935
63.655 17.504793
63.660 18.066654
63.665 18.714853
63.670 18.592562
63.675 18.228977
63.680 18.259132
63.685 17.900755
63.690 18.325697
63.695 17.645111
63.700 17.263025
63.705 17.403368
63.710 17.1679
63.715 16.788525
63.720 17.669123
63.725 17.592794
63.730 17.53301
63.735 17.227987
63.740 17.334543
63.745 17.219673
63.750 17.152136
63.755 16.607254
63.760 16.529015
63.765 16.475809
63.770 16.587845
63.775 16.737644
63.780 17.182253
63.785 17.738377
63.790 17.849318
63.795 18.319479
63.800 18.785629
63.805 18.78231
63.810 19.014454
63.815 18.88451
63.820 18.339235
63.825 18.327152
63.830 18.432728
63.835 18.888655
63.840 19.115673
63.845 18.69627
63.850 17.979107
63.855 17.40534
63.860 17.012007
63.865 16.75964
63.870 16.068226
63.875 16.329704
63.880 16.509785
63.885 17.459522
63.890 17.982395
63.895 18.070387
63.900 18.11356
63.905 18.334913
63.910 18.610184
63.915 18.998411
63.920 18.912254
63.925 19.048565
63.930 19.140326
63.935 19.314487
63.940 18.938847
63.945 18.891232
63.950 18.710413
63.955 18.572905
63.960 19.046871
63.965 19.160706
63.970 19.143301
63.975 19.946247
63.980 20.437822
63.985 20.555607
63.990 20.686413
63.995 20.468315
64.000 20.442719
64.005 20.814079
64.010 20.775639
64.015 20.683714
64.020 21.024769
64.025 21.329453
64.030 21.919355
64.035 22.776749
64.040 22.135141
64.045 22.246214
64.050 22.810741
64.055 22.629173
64.060 22.19224
64.065 22.211685
64.070 22.220087
64.075 23.045431
64.080 23.529749
64.085 23.690985
64.090 23.828249
64.095 24.258497
64.100 24.377254
64.105 24.659124
64.110 24.798607
64.115 24.674191
64.120 25.111723
64.125 25.404022
64.130 25.33646
64.135 25.374916
64.140 25.510273
64.145 25.084465
64.150 25.25902
64.155 25.192982
64.160 25.897335
64.165 26.825254
64.170 27.517281
64.175 27.824675
64.180 29.050016
64.185 29.803982
64.190 29.887896
64.195 30.09276
64.200 29.955761
64.205 29.569748
64.210 30.604553
64.215 31.105366
64.220 31.583921
64.225 32.432537
64.230 32.566074
64.235 33.16526
64.240 34.145107
64.245 34.46608
64.250 33.787491
64.255 34.915813
64.260 35.974537
64.265 36.946476
64.270 37.403481
64.275 37.52116
64.280 37.257492
64.285 38.546894
64.290 38.716431
64.295 39.297665
64.300 40.844788
64.305 42.296268
64.310 43.427616
64.315 44.701035
64.320 45.508701
64.325 46.684021
64.330 48.151764
64.335 48.40974
64.340 48.433517
64.345 48.034302
64.350 48.199989
64.355 48.468769
64.360 49.98912
64.365 50.159081
64.370 49.512669
64.375 49.376316
64.380 50.400227
64.385 50.799759
64.390 51.080761
64.395 50.776424
64.400 50.476925
64.405 50.710457
64.410 51.259251
64.415 51.28767
64.420 51.965321
64.425 51.719433
64.430 50.349876
64.435 50.749802
64.440 51.817886
64.445 52.286583
64.450 51.868229
64.455 51.510448
64.460 50.609589
64.465 50.658745
64.470 50.573647
64.475 50.037407
64.480 49.49017
64.485 48.800396
64.490 47.715553
64.495 47.979122
64.500 48.231651
64.505 47.649326
64.510 46.778362
64.515 46.123493
64.520 46.017635
64.525 46.125793
64.530 46.487862
64.535 45.250057
64.540 44.379292
64.545 44.836956
64.550 44.858547
64.555 45.243217
64.560 45.233746
64.565 44.547817
64.570 44.690468
64.575 44.714516
64.580 43.436264
64.585 43.282223
64.590 42.448956
64.595 42.192146
64.600 42.254402
64.605 41.869766
64.610 41.637547
64.615 41.590401
64.620 40.858387
64.625 40.250313
64.630 39.913361
64.635 39.317207
64.640 38.159477
64.645 37.335224
64.650 36.334957
64.655 35.585079
64.660 35.113953
64.665 34.12624
64.670 33.410374
64.675 32.755184
64.680 32.374599
64.685 31.883024
64.690 31.260756
64.695 30.913675
64.700 30.984102
64.705 30.293556
64.710 30.008884
64.715 29.717642
64.720 29.538977
64.725 29.901791
64.730 29.702477
64.735 28.787104
64.740 28.13666
64.745 27.534105
64.750 27.325386
64.755 26.898603
64.760 26.555647
64.765 25.753153
64.770 24.953806
64.775 24.236946
64.780 24.008654
64.785 23.722364
64.790 23.228712
64.795 22.976786
64.800 22.941452
64.805 23.690624
64.810 23.612408
64.815 23.227045
64.820 22.920227
64.825 22.531479
64.830 21.860733
64.835 22.244024
64.840 22.031498
64.845 22.22924
64.850 22.471319
64.855 22.581295
64.860 23.428156
64.865 24.394215
64.870 24.509821
64.875 24.649067
64.880 24.598391
64.885 24.211092
64.890 23.816799
64.895 23.244402
64.900 22.695738
64.905 22.494852
64.910 22.218704
64.915 22.608356
64.920 23.30467
64.925 24.392218
64.930 25.087994
64.935 26.226032
64.940 27.351
64.945 27.725222
64.950 28.366816
64.955 28.643717
64.960 28.766851
64.965 28.725319
64.970 27.639387
64.975 27.328295
64.980 28.108824
64.985 28.380827
64.990 28.05517
64.995 28.723295
65.000 28.970882
65.005 29.231649
65.010 29.595299
65.015 29.682896
65.020 31.105124
65.025 32.802265
65.030 32.905815
65.035 34.130531
65.040 34.725426
65.045 34.498943
65.050 34.887829
65.055 34.374039
65.060 34.748417
65.065 34.935005
65.070 35.215904
65.075 35.365952
65.080 35.583344
65.085 35.904537
65.090 36.463795
65.095 36.269661
65.100 36.250908
65.105 36.157043
65.110 36.893505
65.115 37.698662
65.120 37.573921
65.125 37.151772
65.130 37.117424
65.135 36.799747
65.140 36.670277
65.145 36.828022
65.150 36.938377
65.155 37.227821
65.160 37.618053
65.165 38.143959
65.170 38.851959
65.175 39.377357
65.180 39.033875
65.185 39.343105
65.190 39.717716
65.195 40.151497
65.200 39.678677
65.205 39.796997
65.210 40.38203
65.215 40.489006
65.220 39.803059
65.225 39.809746
65.230 39.647045
65.235 40.061123
65.240 40.429062
65.245 40.076107
65.250 40.147209
65.255 40.544113
65.260 40.587234
65.265 40.080318
65.270 39.819927
65.275 40.173126
65.280 40.438469
65.285 41.056293
65.290 41.373203
65.295 41.804871
65.300 42.332115
65.305 42.702568
65.310 42.447475
65.315 42.590614
65.320 42.242054
65.325 41.977745
65.330 41.644997
65.335 41.715115
65.340 41.280022
65.345 40.491642
65.350 39.785576
65.355 39.545135
65.360 39.704044
65.365 39.331558
65.370 39.019672
65.375 38.936962
65.380 38.935211
65.385 39.370827
65.390 39.481155
65.395 39.768555
65.400 40.79361
65.405 42.03104
65.410 42.43145
65.415 42.399254
65.420 41.951195
65.425 41.135082
65.430 40.153183
65.435 39.390327
65.440 38.712952
65.445 37.689079
65.450 37.492126
65.455 36.920437
65.460 38.106159
65.465 38.226128
65.470 38.186768
65.475 38.013092
65.480 38.390774
65.485 38.856709
65.490 39.218456
65.495 38.818939
65.500 39.443638
65.505 39.309368
65.510 39.288818
65.515 38.772945
65.520 39.055271
65.525 39.622536
65.530 39.332661
65.535 38.796959
65.540 38.350407
65.545 38.579357
65.550 39.627472
65.555 38.801064
65.560 38.522709
65.565 38.72229
65.570 38.498173
65.575 39.212521
65.580 38.738186
65.585 37.771214
65.590 37.580132
65.595 37.185696
65.600 36.963226
65.605 36.957447
65.610 36.557442
65.615 36.005116
65.620 36.426865
65.625 36.510387
65.630 36.202732
65.635 35.015865
65.640 34.715336
65.645 34.492031
65.650 34.692806
65.655 34.031834
65.660 33.429977
65.665 33.319687
65.670 33.559307
65.675 32.374268
65.680 32.262917
65.685 32.183868
65.690 32.03878
65.695 31.810232
65.700 31.280405
65.705 31.347845
65.710 31.872583
65.715 30.752235
65.720 29.808874
65.725 29.96562
65.730 30.270967
65.735 30.317841
65.740 30.076452
65.745 29.773441
65.750 29.832012
65.755 29.083614
65.760 29.106842
65.765 28.748163
65.770 27.919754
65.775 27.652813
65.780 27.841663
65.785 28.731003
65.790 29.401365
65.795 29.026144
65.800 28.864552
65.805 28.779333
65.810 28.813839
65.815 27.974405
65.820 26.60533
65.825 25.91214
65.830 25.743711
65.835 25.994522
65.840 27.129
65.845 27.118088
65.850 26.983963
65.855 27.671602
65.860 27.635321
65.865 27.219355
65.870 27.264559
65.875 27.10475
65.880 27.034554
65.885 27.152294
65.890 26.538036
65.895 25.806192
65.900 25.434572
65.905 24.67905
65.910 23.67486
65.915 23.344135
65.920 22.637684
65.925 22.688837
65.930 22.82868
65.935 22.314392
65.940 22.096897
65.945 22.04656
65.950 21.791378
65.955 22.132282
65.960 22.043743
65.965 22.492323
65.970 22.687864
65.975 22.63018
65.980 22.205835
65.985 22.214394
65.990 22.164646
65.995 21.685173
66.000 20.758869
66.005 20.520149
66.010 20.332539
66.015 20.82373
66.020 20.782381
66.025 20.559351
66.030 20.159235
66.035 20.18445
66.040 20.335072
66.045 19.953333
66.050 19.879391
66.055 19.911938
66.060 19.324793
66.065 19.307386
66.070 19.441036
66.075 19.317219
66.080 20.03043
66.085 19.310133
66.090 19.411606
66.095 19.921463
66.100 20.39187
66.105 20.468187
66.110 20.374289
66.115 19.885223
66.120 20.350594
66.125 20.275652
66.130 20.418255
66.135 19.905819
66.140 19.591133
66.145 19.783987
66.150 20.220631
66.155 20.391697
66.160 19.962032
66.165 19.316097
66.170 19.033201
66.175 19.569012
66.180 19.691919
66.185 19.66396
66.190 19.297493
66.195 19.634733
66.200 20.200596
66.205 20.321964
66.210 19.783991
66.215 18.91367
66.220 18.601292
66.225 18.924957
66.230 18.567175
66.235 18.479681
66.240 18.592655
66.245 18.542156
66.250 19.453703
66.255 19.574467
66.260 19.621418
66.265 19.987904
66.270 20.387581
66.275 20.247408
66.280 20.215549
66.285 19.78969
66.290 19.840202
66.295 19.865925
66.300 19.805162
66.305 18.934671
66.310 18.654699
66.315 19.172398
66.320 19.785707
66.325 19.542038
66.330 19.326498
66.335 18.788004
66.340 18.947506
66.345 19.159248
66.350 18.72496
66.355 18.636196
66.360 18.960497
66.365 18.960289
66.370 18.937117
66.375 18.86869
66.380 18.766323
66.385 18.482079
66.390 18.415863
66.395 18.284079
66.400 18.390614
66.405 18.939133
66.410 19.625244
66.415 20.086807
66.420 20.366077
66.425 20.02676
66.430 19.718557
66.435 19.734432
66.440 20.164959
66.445 19.815498
66.450 19.241901
66.455 18.900141
66.460 18.656286
66.465 18.979324
66.470 19.032972
66.475 18.173605
66.480 18.268574
66.485 18.857407
66.490 19.138557
66.495 18.943933
66.500 18.264585
66.505 18.08897
66.510 18.774261
66.515 18.582506
66.520 17.706619
66.525 17.125195
66.530 17.32917
66.535 17.628405
66.540 17.522594
66.545 16.724323
66.550 16.664944
66.555 17.117233
66.560 17.674065
66.565 18.144661
66.570 18.494135
66.575 18.583559
66.580 19.272169
66.585 19.995659
66.590 20.253479
66.595 20.059334
66.600 19.595587
66.605 19.16967
66.610 19.009991
66.615 18.055952
66.620 17.143665
66.625 17.034496
66.630 16.517534
66.635 16.357534
66.640 16.473404
66.645 16.786903
66.650 17.201607
66.655 17.694805
66.660 17.567223
66.665 18.147951
66.670 18.45941
66.675 18.80476
66.680 19.075933
66.685 19.042385
66.690 19.455162
66.695 19.630051
66.700 19.679211
66.705 19.767399
66.710 19.890404
66.715 19.984129
66.720 19.743649
66.725 19.039696
66.730 18.558153
66.735 18.505119
66.740 18.360872
66.745 17.692059
66.750 17.381861
66.755 17.51512
66.760 17.189749
66.765 17.960077
66.770 17.959494
66.775 17.803915
66.780 17.940712
66.785 18.288067
66.790 17.726986
66.795 18.288677
66.800 18.317806
66.805 18.408941
66.810 18.308809
66.815 18.257759
66.820 18.199057
66.825 19.074877
66.830 18.963392
66.835 18.583601
66.840 18.390734
66.845 18.615078
66.850 18.639866
66.855 18.609344
66.860 18.985458
66.865 19.014084
66.870 18.880178
66.875 19.307182
66.880 19.548225
66.885 19.909142
66.890 19.741411
66.895 19.142263
66.900 18.502312
66.905 18.539646
66.910 17.936956
66.915 17.540844
66.920 17.34481
66.925 17.238001
66.930 17.660912
66.935 18.151407
66.940 17.836994
66.945 17.643913
66.950 17.571573
66.955 17.888269
66.960 17.733067
66.965 17.155365
66.970 16.752199
66.975 16.566563
66.980 16.930403
66.985 17.044598
66.990 16.473156
66.995 16.534237
67.000 16.931484
67.005 17.037058
67.010 17.906036
67.015 18.464588
67.020 18.260721
67.025 18.250614
67.030 18.289379
67.035 18.487949
67.040 19.166855
67.045 18.343096
67.050 17.86418
67.055 18.014633
67.060 18.520239
67.065 18.234789
67.070 17.516243
67.075 17.272154
67.080 17.896797
67.085 18.453522
67.090 18.469854
67.095 18.037296
67.100 17.777687
67.105 18.241318
67.110 18.910139
67.115 18.644094
67.120 18.307802
67.125 17.846008
67.130 17.616604
67.135 18.065714
67.140 17.252211
67.145 16.908979
67.150 17.385279
67.155 17.97674
67.160 18.492685
67.165 18.681477
67.170 18.760311
67.175 18.654423
67.180 18.291073
67.185 18.075834
67.190 17.407778
67.195 17.255249
67.200 16.69166
67.205 16.720909
67.210 17.261192
67.215 17.186859
67.220 17.126783
67.225 17.532938
67.230 17.474598
67.235 18.043421
67.240 17.782314
67.245 17.869341
67.250 17.915117
67.255 17.762638
67.260 17.62237
67.265 17.860096
67.270 17.935759
67.275 18.607084
67.280 19.023159
67.285 18.951723
67.290 19.197121
67.295 19.105316
67.300 18.995707
67.305 18.896614
67.310 18.244387
67.315 17.216972
67.320 16.79812
67.325 16.469324
67.330 16.993744
67.335 17.768599
67.340 17.833031
67.345 17.440105
67.350 18.207172
67.355 19.123936
67.360 19.158573
67.365 19.12055
67.370 18.447161
67.375 18.429857
67.380 19.771599
67.385 19.912561
67.390 19.553946
67.395 19.675673
67.400 19.176327
67.405 18.916864
67.410 18.372604
67.415 17.113586
67.420 16.735401
67.425 16.269947
67.430 16.575123
67.435 17.023134
67.440 17.582994
67.445 18.257231
67.450 18.4907
67.455 18.018173
67.460 18.267782
67.465 17.824215
67.470 17.255085
67.475 17.356436
67.480 17.858458
67.485 17.965258
67.490 18.364918
67.495 18.528431
67.500 18.918135
67.505 19.010128
67.510 18.551439
67.515 18.28891
67.520 18.406866
67.525 18.510422
67.530 18.369347
67.535 18.043896
67.540 18.196848
67.545 18.379093
67.550 17.929522
67.555 17.568645
67.560 17.277441
67.565 17.198587
67.570 17.12554
67.575 17.188824
67.580 17.053656
67.585 17.419579
67.590 17.721428
67.595 18.028992
67.600 18.268217
67.605 18.181198
67.610 17.898304
67.615 18.542255
67.620 19.4112
67.625 19.64583
67.630 20.325638
67.635 20.685362
67.640 21.191244
67.645 21.069553
67.650 20.635811
67.655 19.93803
67.660 19.67914
67.665 19.50526
67.670 19.496471
67.675 19.022741
67.680 18.88443
67.685 18.781273
67.690 18.838646
67.695 18.77944
67.700 18.809902
67.705 18.758467
67.710 18.943911
67.715 19.198919
67.720 18.975685
67.725 18.965006
67.730 18.921692
67.735 18.060072
67.740 18.072033
67.745 18.134314
67.750 18.17996
67.755 17.978737
67.760 17.39139
67.765 17.087917
67.770 17.197428
67.775 17.26119
67.780 17.456144
67.785 17.339245
67.790 17.128876
67.795 17.494617
67.800 17.519192
67.805 17.432415
67.810 17.220776
67.815 17.003262
67.820 17.36651
67.825 18.216049
67.830 18.112398
67.835 17.46471
67.840 17.382549
67.845 17.630613
67.850 17.594225
67.855 17.712143
67.860 17.612188
67.865 18.274076
67.870 18.920992
67.875 19.081787
67.880 18.975304
67.885 19.168657
67.890 19.291456
67.895 19.573656
67.900 19.306961
67.905 19.674213
67.910 19.538437
67.915 19.131319
67.920 18.995449
67.925 18.563387
67.930 18.650942
67.935 18.47949
67.940 18.510418
67.945 18.525963
67.950 18.982237
67.955 18.878199
67.960 18.43165
67.965 18.265984
67.970 18.83728
67.975 18.798948
67.980 18.880083
67.985 19.040922
67.990 19.070196
67.995 19.155489
68.000 19.046936
68.005 18.525877
68.010 18.954165
68.015 18.719254
68.020 18.13163
68.025 17.975567
68.030 18.225615
68.035 18.15296
68.040 18.236025
68.045 18.234413
68.050 18.439463
68.055 18.980907
68.060 19.342339
68.065 19.164253
68.070 18.562157
68.075 18.654396
68.080 18.838879
68.085 19.149797
68.090 18.827021
68.095 18.783754
68.100 19.209753
68.105 19.776451
68.110 19.807793
68.115 19.45108
68.120 19.941422
68.125 20.268105
68.130 20.276844
68.135 20.194212
68.140 20.16449
68.145 20.815727
68.150 21.278893
68.155 20.96907
68.160 21.196581
68.165 21.412245
68.170 21.150711
68.175 21.052427
68.180 20.028004
68.185 20.191965
68.190 20.455309
68.195 20.34646
68.200 20.307598
68.205 21.103548
68.210 21.71241
68.215 21.962555
68.220 22.065258
68.225 22.339802
68.230 23.258795
68.235 24.404558
68.240 24.571821
68.245 24.687815
68.250 25.277702
68.255 25.1989
68.260 24.866793
68.265 24.581957
68.270 24.156193
68.275 24.307484
68.280 24.496449
68.285 24.533792
68.290 24.31168
68.295 25.299797
68.300 25.393087
68.305 25.613564
68.310 26.159323
68.315 27.461859
68.320 27.747786
68.325 28.070402
68.330 27.777182
68.335 28.032959
68.340 28.499968
68.345 28.632286
68.350 27.651011
68.355 28.284742
68.360 28.496813
68.365 28.632267
68.370 28.844572
68.375 28.60174
68.380 28.328775
68.385 28.642263
68.390 28.94519
68.395 29.338308
68.400 29.287479
68.405 29.056412
68.410 29.553698
68.415 29.910004
68.420 30.372215
68.425 29.509809
68.430 29.417349
68.435 29.50909
68.440 30.132723
68.445 30.867203
68.450 31.261974
68.455 31.44285
68.460 32.177574
68.465 32.549786
68.470 33.258217
68.475 32.961689
68.480 32.737606
68.485 33.341698
68.490 33.459938
68.495 33.613834
68.500 33.784691
68.505 33.692322
68.510 33.641621
68.515 33.449184
68.520 34.076641
68.525 34.334599
68.530 35.274784
68.535 35.370495
68.540 36.158459
68.545 36.55722
68.550 36.463345
68.555 35.721672
68.560 36.123489
68.565 36.361488
68.570 36.366192
68.575 36.97155
68.580 37.282406
68.585 37.90506
68.590 38.480263
68.595 38.003159
68.600 37.749645
68.605 37.367699
68.610 36.686237
68.615 35.812199
68.620 36.069244
68.625 36.56049
68.630 36.514874
68.635 36.553711
68.640 36.909622
68.645 36.791245
68.650 37.89109
68.655 37.603065
68.660 37.460495
68.665 37.870033
68.670 37.319565
68.675 36.924541
68.680 37.064377
68.685 36.888321
68.690 36.700134
68.695 36.133511
68.700 36.111313
68.705 36.990417
68.710 37.602531
68.715 37.785919
68.720 37.678822
68.725 37.59906
68.730 37.731152
68.735 36.969807
68.740 35.986401
68.745 35.428616
68.750 34.553501
68.755 34.026184
68.760 35.087719
68.765 35.50238
68.770 35.858528
68.775 35.898064
68.780 35.93713
68.785 36.176323
68.790 36.115086
68.795 34.496853
68.800 33.342751
68.805 32.772305
68.810 33.248856
68.815 33.010365
68.820 33.045326
68.825 32.908016
68.830 33.538311
68.835 34.111271
68.840 33.80246
68.845 33.380348
68.850 33.912949
68.855 33.799622
68.860 32.865124
68.865 31.729864
68.870 31.325254
68.875 31.124258
68.880 30.642464
68.885 30.40345
68.890 30.324884
68.895 30.78511
68.900 30.773205
68.905 30.415733
68.910 30.568933
68.915 30.603336
68.920 29.583794
68.925 29.576307
68.930 29.580103
68.935 29.790899
68.940 30.014446
68.945 29.706736
68.950 29.83674
68.955 30.365728
68.960 29.638668
68.965 29.627413
68.970 29.702629
68.975 30.235788
68.980 30.283453
68.985 30.043581
68.990 30.164015
68.995 30.131289
69.000 30.46669
69.005 30.086571
69.010 29.331516
69.015 29.102978
69.020 28.547241
69.025 28.428825
69.030 28.695097
69.035 27.614094
69.040 27.450336
69.045 26.941469
69.050 26.924381
69.055 26.39682
69.060 25.931414
69.065 25.386974
69.070 25.565643
69.075 25.373169
69.080 24.829988
69.085 25.377903
69.090 25.511127
69.095 25.217567
69.100 25.988331
69.105 25.532282
69.110 25.981102
69.115 26.111744
69.120 25.206224
69.125 25.015636
69.130 24.841562
69.135 24.250013
69.140 25.148836
69.145 24.675276
69.150 24.487362
69.155 24.547338
69.160 24.748074
69.165 24.715748
69.170 24.740675
69.175 23.990702
69.180 23.911589
69.185 24.028431
69.190 23.831743
69.195 23.453272
69.200 23.4694
69.205 22.886915
69.210 22.701239
69.215 21.571489
69.220 21.746618
69.225 22.143927
69.230 22.368708
69.235 22.166693
69.240 22.48254
69.245 22.542662
69.250 22.930138
69.255 22.388983
69.260 22.060959
69.265 21.992001
69.270 21.768934
69.275 21.149424
69.280 20.715292
69.285 20.531321
69.290 20.116596
69.295 19.72278
69.300 19.67552
69.305 19.913147
69.310 20.082792
69.315 19.882051
69.320 19.888018
69.325 20.215151
69.330 20.277973
69.335 19.990944
69.340 19.773293
69.345 19.120829
69.350 19.174051
69.355 18.732735
69.360 18.676418
69.365 18.770985
69.370 19.054192
69.375 18.976517
69.380 18.874386
69.385 19.026587
69.390 19.393148
69.395 19.554344
69.400 19.579283
69.405 19.398016
69.410 19.500669
69.415 19.719566
69.420 19.748699
69.425 19.469997
69.430 18.896435
69.435 18.627363
69.440 18.48753
69.445 18.802692
69.450 19.105453
69.455 19.297743
69.460 19.521231
69.465 19.645954
69.470 19.243458
69.475 18.661453
69.480 18.344461
69.485 18.315701
69.490 17.823261
69.495 17.782064
69.500 18.124685
69.505 18.157148
69.510 18.2651
69.515 18.403999
69.520 18.565653
69.525 18.502728
69.530 17.920746
69.535 17.891169
69.540 18.109129
69.545 17.991898
69.550 17.866796
69.555 17.573027
69.560 18.141258
69.565 18.408861
69.570 18.31295
69.575 18.719036
69.580 19.118355
69.585 18.445108
69.590 17.742519
69.595 17.887995
69.600 17.952225
69.605 18.216402
69.610 18.04735
69.615 18.353844
69.620 19.099495
69.625 19.492872
69.630 18.814409
69.635 19.187792
69.640 19.316593
69.645 19.246714
69.650 18.920614
69.655 19.000601
69.660 19.168985
69.665 19.163193
69.670 18.821175
69.675 18.774729
69.680 18.859106
69.685 18.557528
69.690 18.697569
69.695 18.941231
69.700 19.153399
69.705 18.331345
69.710 17.877256
69.715 18.019438
69.720 18.436453
69.725 17.813482
69.730 17.53982
69.735 17.488178
69.740 18.539768
69.745 18.741905
69.750 18.362318
69.755 17.99276
69.760 18.087008
69.765 17.820082
69.770 17.752275
69.775 17.330494
69.780 17.265215
69.785 17.553944
69.790 17.718382
69.795 18.221399
69.800 18.185911
69.805 18.192308
69.810 18.101809
69.815 17.918051
69.820 17.755352
69.825 17.66341
69.830 17.274075
69.835 17.36541
69.840 17.49131
69.845 17.348265
69.850 17.522554
69.855 18.168247
69.860 18.47069
69.865 18.630453
69.870 18.563845
69.875 18.866539
69.880 19.307869
69.885 19.522011
69.890 19.165695
69.895 19.099051
69.900 18.980068
69.905 19.250502
69.910 19.282169
69.915 18.764254
69.920 18.447151
69.925 17.865
69.930 17.921494
69.935 18.476789
69.940 17.905615
69.945 17.443634
69.950 17.301252
69.955 17.52442
69.960 17.691549
69.965 16.970778
69.970 16.609304
69.975 16.854082
69.980 17.406378
69.985 17.751019
69.990 17.547974
69.995 18.088957
70.000 19.674372
70.005 19.788162
70.010 19.365364
70.015 19.001482
70.020 18.865271
70.025 19.02216
70.030 19.214394
70.035 18.379396
70.040 18.832859
70.045 19.421331
70.050 19.566868
70.055 19.934752
70.060 19.76432
70.065 19.252958
70.070 19.352837
70.075 19.121342
70.080 18.785006
70.085 19.001564
70.090 18.73247
70.095 18.423742
70.100 18.124973
70.105 17.764229
70.110 17.567339
70.115 17.625937
70.120 17.222185
70.125 17.207577
70.130 17.115194
70.135 17.389151
70.140 17.930925
70.145 18.228662
70.150 18.708893
70.155 19.007401
70.160 19.276175
70.165 19.416279
70.170 18.922609
70.175 19.109186
70.180 19.097641
70.185 18.496937
70.190 18.088278
70.195 17.826483
70.200 18.245302
70.205 18.570234
70.210 18.29636
70.215 18.645489
70.220 18.524189
70.225 18.467066
70.230 18.460012
70.235 18.638723
70.240 18.525579
70.245 18.569357
70.250 18.54495
70.255 19.092272
70.260 19.445789
70.265 19.539024
70.270 19.430468
70.275 18.999138
70.280 19.023586
70.285 18.648722
70.290 17.786926
70.295 17.879108
70.300 17.829372
70.305 17.995205
70.310 17.628069
70.315 17.532356
70.320 17.950109
70.325 18.210699
70.330 17.828972
70.335 17.515146
70.340 16.87211
70.345 17.283562
70.350 16.90304
70.355 17.411631
70.360 17.515514
70.365 17.521074
70.370 17.757704
70.375 18.345352
70.380 18.290216
70.385 18.507929
70.390 18.277542
70.395 18.195858
70.400 18.111433
70.405 17.856499
70.410 17.507288
70.415 17.243107
70.420 17.213793
70.425 17.182146
70.430 17.375568
70.435 17.247799
70.440 17.446392
70.445 17.674667
70.450 17.446678
70.455 16.853743
70.460 16.446703
70.465 16.552925
70.470 16.617668
70.475 16.661121
70.480 16.636812
70.485 17.352472
70.490 18.238205
70.495 18.14472
70.500 18.16305
70.505 18.331501
70.510 18.591074
70.515 19.118563
70.520 18.747612
70.525 18.542864
70.530 19.15729
70.535 19.266294
70.540 19.394238
70.545 19.477098
70.550 19.05092
70.555 19.384514
70.560 19.490295
70.565 19.441349
70.570 18.95797
70.575 18.561115
70.580 18.582178
70.585 18.7941
70.590 18.738899
70.595 18.496443
70.600 18.716299
70.605 18.818918
70.610 18.747437
70.615 18.032204
70.620 17.652699
70.625 17.608749
70.630 17.322971
70.635 17.215569
70.640 17.433474
70.645 17.916113
70.650 18.145855
70.655 18.524294
70.660 18.17728
70.665 18.029074
70.670 18.382677
70.675 18.437555
70.680 18.035942
70.685 18.093021
70.690 18.441008
70.695 18.909849
70.700 18.763885
70.705 18.02207
70.710 18.295689
70.715 18.626099
70.720 18.601295
70.725 18.013746
70.730 17.894529
70.735 17.813084
70.740 17.267429
70.745 16.926752
70.750 16.985279
70.755 17.551205
70.760 17.849289
70.765 18.125589
70.770 18.735695
70.775 19.511271
70.780 19.508394
70.785 19.196028
70.790 18.864189
70.795 18.824732
70.800 18.912977
70.805 19.097292
70.810 18.876392
70.815 18.906931
70.820 19.476046
70.825 19.11764
70.830 19.109373
70.835 18.835592
70.840 18.430943
70.845 18.422621
70.850 18.390211
70.855 18.855476
70.860 19.094688
70.865 19.41478
70.870 20.093178
70.875 20.081621
70.880 20.531414
70.885 20.69482
70.890 20.241297
70.895 20.26561
70.900 19.451624
70.905 19.191795
70.910 19.11446
70.915 18.135054
70.920 17.662083
70.925 17.867636
70.930 17.892172
70.935 17.865608
70.940 17.85626
70.945 18.747477
70.950 19.136751
70.955 18.574762
70.960 18.291248
70.965 18.431646
70.970 18.403765
70.975 18.040127
70.980 17.784113
70.985 17.650856
70.990 17.562632
70.995 17.184944
71.000 17.177067
71.005 17.179907
71.010 17.111788
71.015 16.744713
71.020 17.41338
71.025 17.541988
71.030 17.644333
71.035 17.48712
71.040 17.395554
71.045 17.67334
71.050 17.3892
71.055 16.808702
71.060 17.058712
71.065 16.768452
71.070 16.843655
71.075 16.850235
71.080 17.057846
71.085 17.207773
71.090 17.302734
71.095 17.474176
71.100 18.018301
71.105 18.057959
71.110 17.899101
71.115 18.463974
71.120 19.117186
71.125 19.799324
71.130 19.981581
71.135 20.067808
71.140 20.155985
71.145 19.565594
71.150 18.713215
71.155 18.542692
71.160 18.108589
71.165 18.416914
71.170 18.905096
71.175 19.162142
71.180 19.599806
71.185 19.641584
71.190 19.747637
71.195 18.677841
71.200 18.571331
71.205 18.308855
71.210 18.986729
71.215 18.798777
71.220 18.491619
71.225 17.870611
71.230 18.535084
71.235 18.136929
71.240 17.750408
71.245 17.358448
71.250 17.499533
71.255 18.173796
71.260 18.697206
71.265 18.683952
71.270 18.463388
71.275 18.145149
71.280 18.300274
71.285 18.45388
71.290 18.159021
71.295 17.680813
71.300 16.732845
71.305 17.234739
71.310 17.297132
71.315 17.488302
71.320 17.322937
71.325 17.543552
71.330 18.086109
71.335 18.492296
71.340 18.474176
71.345 18.375929
71.350 18.150171
71.355 18.606617
71.360 18.86755
71.365 18.726955
71.370 18.278547
71.375 18.436823
71.380 18.339495
71.385 18.133709
71.390 17.588028
71.395 17.551903
71.400 18.387373
71.405 19.429132
71.410 19.883184
71.415 20.037155
71.420 20.000492
71.425 19.756021
71.430 19.838825
71.435 18.905743
71.440 18.239214
71.445 17.883604
71.450 17.820936
71.455 17.818136
71.460 18.267365
71.465 18.565674
71.470 18.77174
71.475 18.618736
71.480 18.335054
71.485 17.770575
71.490 17.611429
71.495 16.956074
71.500 16.816275
71.505 17.316088
71.510 17.271544
71.515 17.826242
71.520 18.729891
71.525 18.87797
71.530 19.049044
71.535 19.004295
71.540 19.234892
71.545 18.969305
71.550 18.832972
71.555 18.13748
71.560 18.1831
71.565 17.250122
71.570 16.105341
71.575 15.874734
71.580 16.127226
71.585 16.131063
71.590 16.35075
71.595 16.600151
71.600 18.217045
71.605 19.196222
71.610 18.940388
71.615 18.412895
71.620 18.373711
71.625 18.082354
71.630 18.072845
71.635 16.900478
71.640 15.859108
71.645 16.008907
71.650 16.883537
71.655 16.869431
71.660 17.291349
71.665 17.113396
71.670 17.867229
71.675 19.008747
71.680 19.168631
71.685 19.225845
71.690 18.872068
71.695 19.118578
71.700 19.565155
71.705 19.216558
71.710 18.636993
71.715 18.384207
71.720 18.798779
71.725 19.241146
71.730 18.817627
71.735 18.43704
71.740 18.791052
71.745 18.984703
71.750 18.595209
71.755 17.832827
71.760 17.811598
71.765 17.479544
71.770 17.116905
71.775 16.697084
71.780 16.453812
71.785 16.807812
71.790 17.088959
71.795 17.285126
71.800 17.808414
71.805 17.822271
71.810 17.928144
71.815 17.853779
71.820 17.673418
71.825 17.330017
71.830 17.434778
71.835 17.536909
71.840 18.281013
71.845 19.085133
71.850 19.562286
71.855 19.514156
71.860 19.61606
71.865 19.406054
71.870 19.505888
71.875 19.385738
71.880 18.395418
71.885 18.911877
71.890 19.303064
71.895 19.590496
71.900 20.032887
71.905 19.516682
71.910 18.7187
71.915 18.75182
71.920 18.147186
71.925 18.154203
71.930 17.427671
71.935 17.604465
71.940 17.8813
71.945 17.474957
71.950 17.058661
71.955 16.111515
71.960 16.284628
71.965 16.334913
71.970 16.646852
71.975 16.733994
71.980 17.526251
71.985 18.047754
71.990 18.964228
71.995 18.721535
72.000 18.47436
72.005 17.864649
72.010 18.290539
72.015 18.210733
72.020 18.394077
72.025 17.499798
72.030 17.458202
72.035 17.771032
72.040 17.936483
72.045 17.860033
72.050 17.827244
72.055 18.018538
72.060 18.526291
72.065 18.741661
72.070 18.441563
72.075 18.332415
72.080 18.212955
72.085 18.573027
72.090 18.747025
72.095 18.716164
72.100 18.518435
72.105 18.645784
72.110 18.344378
72.115 18.500799
72.120 17.927153
72.125 17.631233
72.130 17.628923
72.135 17.388374
72.140 17.547392
72.145 17.490278
72.150 16.905754
72.155 17.227663
72.160 17.19968
72.165 17.11816
72.170 16.770002
72.175 16.295671
72.180 16.18857
72.185 15.796064
72.190 15.54652
72.195 15.538824
72.200 15.71153
72.205 15.929028
72.210 16.45179
72.215 16.991056
72.220 17.343266
72.225 17.658421
72.230 17.486889
72.235 17.570641
72.240 17.99262
72.245 18.259104
72.250 18.38586
72.255 18.655043
72.260 19.075235
72.265 19.104095
72.270 18.897642
72.275 18.535036
72.280 18.170292
72.285 18.046967
72.290 17.839811
72.295 17.605392
72.300 17.723476
72.305 17.796886
72.310 17.786528
72.315 18.467276
72.320 19.042686
72.325 18.836609
72.330 19.025503
72.335 19.511717
72.340 19.478977
72.345 18.921238
72.350 18.432295
72.355 18.80397
72.360 19.146452
72.365 18.834126
72.370 19.288065
72.375 19.909222
72.380 20.385612
72.385 19.993382
72.390 19.821894
72.395 20.04283
72.400 20.107187
72.405 20.072002
72.410 20.144739
72.415 20.226212
72.420 19.724802
72.425 19.018658
72.430 18.41823
72.435 18.097548
72.440 17.279968
72.445 17.312931
72.450 17.319004
72.455 17.074268
72.460 16.88007
72.465 16.900188
72.470 16.47732
72.475 16.266382
72.480 15.696693
72.485 15.965978
72.490 16.28758
72.495 16.458878
72.500 16.61338
72.505 17.064404
72.510 17.571859
72.515 17.665854
72.520 17.895935
72.525 17.867708
72.530 18.093414
72.535 18.016514
72.540 17.844982
72.545 17.891397
72.550 18.424055
72.555 18.15443
72.560 18.308437
72.565 17.824806
72.570 17.864288
72.575 17.616245
72.580 17.195213
72.585 16.926907
72.590 16.901094
72.595 17.146267
72.600 17.406769
72.605 17.609877
72.610 17.414551
72.615 17.58123
72.620 17.526787
72.625 16.88168
72.630 16.972759
72.635 16.602472
72.640 16.089294
72.645 15.902018
72.650 15.476212
72.655 15.395063
72.660 15.469671
72.665 15.641701
72.670 16.5536
72.675 16.935101
72.680 17.399738
72.685 17.628826
72.690 17.852734
72.695 18.192682
72.700 17.609243
72.705 16.876856
72.710 17.167772
72.715 16.756737
72.720 17.065815
72.725 17.350876
72.730 17.370571
72.735 17.395983
72.740 17.639782
72.745 17.318918
72.750 17.332659
72.755 17.134251
72.760 16.828381
72.765 16.98525
72.770 16.781977
72.775 16.737587
72.780 16.661034
72.785 16.974092
72.790 17.048716
72.795 16.955305
72.800 16.74354
72.805 17.038378
72.810 17.697262
72.815 18.2721
72.820 18.23955
72.825 17.770903
72.830 17.979383
72.835 18.735483
72.840 18.412588
72.845 17.934391
72.850 17.935606
72.855 17.898291
72.860 17.80751
72.865 17.462503
72.870 17.212772
72.875 17.340305
72.880 17.013685
72.885 16.639973
72.890 16.700846
72.895 16.995064
72.900 16.961004
72.905 16.930872
72.910 16.719416
72.915 16.847851
72.920 17.09062
72.925 16.79957
72.930 16.779478
72.935 16.270998
72.940 16.353933
72.945 16.301371
72.950 16.168032
72.955 16.729019
72.960 17.069008
72.965 16.766808
72.970 16.467154
72.975 16.480375
72.980 16.850836
72.985 17.272997
72.990 17.180775
72.995 16.508776
73.000 16.598293
