!@!!GADDS PLOTSO FILE: Chi integration type
!@!!Title/SampleName: map-189
!@!!Comment: ?
!@!!User: Bruker Instrument Administrator
!@!!Site: University of Illinois Chicago
!@!!Frame: map-189_01_000.gfrm
!@!!Wavelengths    1.54184   1.54056   1.54439
!@!!Frame angles: 2Theta: 63.000 Omega: 50.000 Phi: 0.000 Chi: 90.000
!@!!Integration range: 2Theta: 53.000 to 73.000  Gamma: -105.000 to -75.000
!@!!Integration method: bin normalized
!@!N
!@!SS
!@!M
!@!L 0.0 0.0 0.0 0.0
!@!XDegrees
!@!YCounts
53.000 8.961075
53.005 9.551251
53.010 9.644943
53.015 9.925442
53.020 10.175238
53.025 10.186383
53.030 10.582169
53.035 10.62819
53.040 10.204589
53.045 9.707516
53.050 9.135441
53.055 9.043
53.060 9.052989
53.065 9.046697
53.070 8.589192
53.075 8.699987
53.080 9.088196
53.085 9.532849
53.090 9.595566
53.095 9.341569
53.100 9.460763
53.105 9.688485
53.110 9.820333
53.115 9.749074
53.120 9.489255
53.125 9.419205
53.130 9.484129
53.135 9.416413
53.140 9.307846
53.145 8.994951
53.150 8.936584
53.155 9.024471
53.160 8.856537
53.165 8.930153
53.170 8.786755
53.175 8.683059
53.180 8.96622
53.185 9.102598
53.190 9.029769
53.195 8.818296
53.200 9.111609
53.205 9.60242
53.210 9.713175
53.215 8.801221
53.220 9.051467
53.225 9.147264
53.230 9.250304
53.235 9.017243
53.240 8.704175
53.245 9.100924
53.250 9.357343
53.255 8.912821
53.260 9.081099
53.265 9.126579
53.270 9.087602
53.275 8.796995
53.280 8.667305
53.285 9.154188
53.290 9.540314
53.295 9.485191
53.300 9.643753
53.305 9.700608
53.310 9.937478
53.315 9.625495
53.320 9.15505
53.325 8.879798
53.330 8.682056
53.335 8.539228
53.340 8.446845
53.345 8.616793
53.350 9.314745
53.355 9.684074
53.360 9.634474
53.365 9.649016
53.370 9.857327
53.375 9.90946
53.380 9.876911
53.385 9.732585
53.390 9.907011
53.395 9.853174
53.400 9.507921
53.405 9.821278
53.410 10.237279
53.415 10.463931
53.420 9.972318
53.425 10.075443
53.430 10.67206
53.435 10.860246
53.440 10.677847
53.445 10.754281
53.450 10.713605
53.455 10.710875
53.460 10.663554
53.465 10.146031
53.470 9.642685
53.475 9.523259
53.480 9.081641
53.485 8.899315
53.490 9.163291
53.495 9.253847
53.500 10.148664
53.505 10.370785
53.510 10.50514
53.515 10.639432
53.520 10.562911
53.525 10.253785
53.530 10.090142
53.535 10.39378
53.540 9.951765
53.545 9.594894
53.550 9.612401
53.555 9.776053
53.560 9.647003
53.565 9.529389
53.570 9.307116
53.575 9.59803
53.580 9.761416
53.585 9.61315
53.590 9.612803
53.595 10.017179
53.600 10.037202
53.605 9.796629
53.610 9.6066
53.615 9.485523
53.620 9.227685
53.625 9.195385
53.630 9.007374
53.635 8.903481
53.640 8.709696
53.645 8.568501
53.650 8.374187
53.655 8.727479
53.660 8.922437
53.665 8.951779
53.670 8.97535
53.675 9.29083
53.680 9.741791
53.685 10.015002
53.690 9.955819
53.695 10.082365
53.700 10.524399
53.705 10.771778
53.710 10.96228
53.715 10.859002
53.720 10.617931
53.725 10.261671
53.730 10.28284
53.735 10.640727
53.740 11.146
53.745 11.168839
53.750 11.115442
53.755 10.885218
53.760 10.860502
53.765 10.278864
53.770 9.549484
53.775 9.413821
53.780 9.97241
53.785 10.498902
53.790 11.362423
53.795 11.642238
53.800 12.309361
53.805 12.052786
53.810 11.577485
53.815 11.528021
53.820 11.360766
53.825 10.847361
53.830 10.719355
53.835 10.256126
53.840 10.718536
53.845 10.397525
53.850 9.933008
53.855 9.515835
53.860 9.247396
53.865 9.187219
53.870 9.104177
53.875 8.751859
53.880 9.01969
53.885 9.434143
53.890 9.844739
53.895 10.539834
53.900 10.265903
53.905 10.169285
53.910 10.375981
53.915 9.894869
53.920 9.457674
53.925 9.147254
53.930 8.64407
53.935 9.180515
53.940 9.405697
53.945 9.118941
53.950 9.593843
53.955 9.882968
53.960 9.783256
53.965 9.561828
53.970 9.2564
53.975 8.883988
53.980 9.243524
53.985 9.176635
53.990 9.322428
53.995 9.899677
54.000 10.338181
54.005 10.437558
54.010 10.532887
54.015 10.377976
54.020 10.426484
54.025 10.248542
54.030 10.150575
54.035 9.723737
54.040 10.438323
54.045 10.828877
54.050 10.296195
54.055 10.179148
54.060 9.924912
54.065 9.744353
54.070 9.6647
54.075 8.905159
54.080 9.123382
54.085 9.48634
54.090 9.361229
54.095 9.577955
54.100 9.930377
54.105 10.430573
54.110 10.337936
54.115 9.953845
54.120 9.763445
54.125 9.60875
54.130 9.366326
54.135 8.85431
54.140 8.665304
54.145 8.9187
54.150 9.395102
54.155 9.955103
54.160 10.406301
54.165 10.581882
54.170 10.409025
54.175 9.860792
54.180 9.730306
54.185 9.55488
54.190 9.374331
54.195 9.292242
54.200 10.050313
54.205 10.595747
54.210 10.954067
54.215 10.835278
54.220 10.589512
54.225 10.489934
54.230 10.256854
54.235 10.339088
54.240 10.046394
54.245 9.898082
54.250 9.781482
54.255 10.200255
54.260 10.399666
54.265 10.31471
54.270 10.029605
54.275 10.003803
54.280 10.301689
54.285 10.555214
54.290 10.432894
54.295 10.244431
54.300 10.407905
54.305 10.640476
54.310 10.868518
54.315 10.642183
54.320 10.341084
54.325 9.850327
54.330 10.600518
54.335 10.467135
54.340 10.299157
54.345 10.888462
54.350 10.803713
54.355 11.11384
54.360 11.105769
54.365 10.632395
54.370 10.838855
54.375 10.62483
54.380 10.409944
54.385 10.517216
54.390 10.330761
54.395 10.506123
54.400 10.525385
54.405 10.24227
54.410 10.406628
54.415 10.651397
54.420 10.671326
54.425 10.486212
54.430 10.174589
54.435 10.383974
54.440 10.464033
54.445 9.793492
54.450 9.357621
54.455 9.174558
54.460 9.432564
54.465 9.552843
54.470 9.566712
54.475 9.183599
54.480 9.476609
54.485 9.721212
54.490 10.229095
54.495 10.435925
54.500 10.139882
54.505 9.970777
54.510 10.464494
54.515 10.161267
54.520 9.724481
54.525 9.273726
54.530 8.96108
54.535 8.922446
54.540 8.73842
54.545 8.997401
54.550 9.445886
54.555 9.724247
54.560 9.978504
54.565 10.578255
54.570 10.957354
54.575 11.139397
54.580 10.596968
54.585 10.652592
54.590 10.685808
54.595 10.692446
54.600 10.419592
54.605 10.353047
54.610 10.150441
54.615 10.240117
54.620 10.461355
54.625 10.480607
54.630 10.878361
54.635 10.593239
54.640 10.618504
54.645 11.154412
54.650 11.241347
54.655 10.933219
54.660 10.734569
54.665 10.593501
54.670 10.706558
54.675 11.402061
54.680 11.382538
54.685 11.548002
54.690 12.181862
54.695 12.059453
54.700 11.600765
54.705 11.644587
54.710 11.059977
54.715 11.082321
54.720 10.507162
54.725 10.055282
54.730 9.98546
54.735 10.262666
54.740 10.345763
54.745 10.146853
54.750 10.094168
54.755 10.28863
54.760 10.535257
54.765 10.689307
54.770 10.305975
54.775 10.078864
54.780 10.07326
54.785 10.022115
54.790 10.312998
54.795 10.837478
54.800 11.415241
54.805 11.637386
54.810 11.626177
54.815 11.920461
54.820 12.082273
54.825 11.909706
54.830 11.500959
54.835 10.714939
54.840 10.670536
54.845 10.878154
54.850 11.4208
54.855 11.65542
54.860 11.20779
54.865 11.332796
54.870 11.931533
54.875 12.093812
54.880 11.828924
54.885 11.19868
54.890 11.279954
54.895 11.868431
54.900 11.877004
54.905 11.527213
54.910 11.391736
54.915 11.583822
54.920 11.421663
54.925 11.430047
54.930 11.12274
54.935 11.200152
54.940 11.44938
54.945 11.934875
54.950 12.357441
54.955 12.220098
54.960 12.083758
54.965 12.180587
54.970 12.49919
54.975 12.76317
54.980 12.475421
54.985 12.363768
54.990 12.510715
54.995 12.46699
55.000 12.086393
55.005 11.832073
55.010 11.522721
55.015 11.166467
55.020 10.975911
55.025 10.999584
55.030 10.911129
55.035 10.889235
55.040 10.515842
55.045 10.538485
55.050 10.760536
55.055 10.872902
55.060 10.51679
55.065 10.060488
55.070 9.974533
55.075 10.223681
55.080 10.131897
55.085 9.719133
55.090 9.837111
55.095 10.259845
55.100 10.673837
55.105 11.053481
55.110 10.593902
55.115 10.773253
55.120 11.264269
55.125 11.497349
55.130 11.834138
55.135 12.177762
55.140 11.942672
55.145 12.438828
55.150 12.105167
55.155 11.54427
55.160 11.346715
55.165 11.21324
55.170 10.687217
55.175 10.443449
55.180 10.382038
55.185 10.942234
55.190 11.294569
55.195 10.885887
55.200 11.04163
55.205 11.201189
55.210 11.409575
55.215 11.566448
55.220 11.138277
55.225 11.055067
55.230 11.17364
55.235 10.864528
55.240 10.758874
55.245 11.004978
55.250 11.218469
55.255 11.469994
55.260 12.119411
55.265 12.380624
55.270 12.58155
55.275 12.605494
55.280 11.97251
55.285 11.758837
55.290 11.763994
55.295 11.480558
55.300 11.498904
55.305 11.280989
55.310 11.200279
55.315 11.197028
55.320 11.201902
55.325 11.233984
55.330 11.158888
55.335 11.073011
55.340 11.044232
55.345 10.949062
55.350 10.950955
55.355 10.803257
55.360 10.578569
55.365 10.364287
55.370 10.230646
55.375 10.442449
55.380 10.509077
55.385 10.547257
55.390 10.132738
55.395 9.990111
55.400 10.020578
55.405 10.12575
55.410 10.321015
55.415 10.253447
55.420 10.600989
55.425 10.5888
55.430 10.571905
55.435 10.643903
55.440 10.470247
55.445 10.091147
55.450 10.279651
55.455 9.92132
55.460 9.630404
55.465 9.696283
55.470 9.40888
55.475 9.548886
55.480 9.782095
55.485 9.630831
55.490 9.931883
55.495 10.195001
55.500 10.464396
55.505 11.117822
55.510 11.194084
55.515 10.965859
55.520 10.971172
55.525 10.991761
55.530 10.655641
55.535 10.271575
55.540 9.902618
55.545 10.351871
55.550 10.514051
55.555 10.452013
55.560 10.333109
55.565 10.655267
55.570 10.778963
55.575 10.560083
55.580 10.175284
55.585 10.31552
55.590 10.324673
55.595 10.574425
55.600 10.514793
55.605 10.50288
55.610 10.873372
55.615 11.097056
55.620 11.517608
55.625 11.875249
55.630 12.284374
55.635 12.143728
55.640 11.785028
55.645 11.450949
55.650 11.087718
55.655 11.006868
55.660 10.550874
55.665 10.869814
55.670 11.476795
55.675 11.490176
55.680 11.499384
55.685 11.324944
55.690 11.50021
55.695 11.816369
55.700 11.546598
55.705 11.506641
55.710 11.568604
55.715 11.916399
55.720 12.24159
55.725 11.914905
55.730 11.614243
55.735 11.263168
55.740 11.099074
55.745 10.649899
55.750 10.345161
55.755 10.465296
55.760 10.121245
55.765 9.788218
55.770 9.986548
55.775 10.481164
55.780 11.030178
55.785 10.479337
55.790 9.897068
55.795 10.278115
55.800 10.106186
55.805 9.388601
55.810 9.106537
55.815 9.125903
55.820 9.875286
55.825 10.321827
55.830 10.447716
55.835 10.738346
55.840 11.019297
55.845 11.105766
55.850 11.486597
55.855 11.874959
55.860 11.625583
55.865 11.363899
55.870 11.254844
55.875 11.532751
55.880 11.258698
55.885 10.519238
55.890 9.913565
55.895 9.895981
55.900 10.100555
55.905 10.223961
55.910 10.619133
55.915 10.950934
55.920 11.291718
55.925 11.499737
55.930 11.561458
55.935 12.309621
55.940 12.502984
55.945 12.135711
55.950 11.747887
55.955 11.709422
55.960 12.058575
55.965 12.267984
55.970 11.615376
55.975 11.263188
55.980 11.137342
55.985 11.31479
55.990 11.225651
55.995 10.438319
56.000 10.045712
56.005 10.222749
56.010 10.477683
56.015 10.760404
56.020 10.617727
56.025 10.443961
56.030 10.802301
56.035 11.161634
56.040 11.159542
56.045 11.316274
56.050 10.915854
56.055 10.793584
56.060 10.659875
56.065 10.649806
56.070 10.565296
56.075 10.504011
56.080 10.326436
56.085 10.374546
56.090 10.308445
56.095 10.576501
56.100 10.788942
56.105 10.80101
56.110 10.734433
56.115 10.777989
56.120 10.791865
56.125 11.244993
56.130 10.882792
56.135 10.537777
56.140 10.63201
56.145 10.51654
56.150 10.434773
56.155 10.851037
56.160 10.657279
56.165 11.00796
56.170 11.079033
56.175 11.436771
56.180 11.65099
56.185 11.909011
56.190 12.231068
56.195 12.609858
56.200 12.577468
56.205 12.371846
56.210 11.965232
56.215 12.547061
56.220 12.10643
56.225 12.082641
56.230 12.221741
56.235 12.449383
56.240 12.572192
56.245 12.446736
56.250 11.908107
56.255 12.190104
56.260 11.992548
56.265 11.761927
56.270 11.425978
56.275 11.378369
56.280 11.904145
56.285 12.056343
56.290 12.202474
56.295 12.099975
56.300 11.872243
56.305 12.301116
56.310 12.189197
56.315 11.7193
56.320 11.381661
56.325 11.381636
56.330 11.595769
56.335 12.070603
56.340 11.862415
56.345 11.619026
56.350 11.530118
56.355 11.474288
56.360 11.105637
56.365 10.728557
56.370 10.738235
56.375 10.71358
56.380 10.662879
56.385 11.039344
56.390 10.777859
56.395 10.792862
56.400 10.993885
56.405 10.642389
56.410 10.764669
56.415 11.162801
56.420 11.061181
56.425 11.920208
56.430 12.225912
56.435 12.52555
56.440 12.989966
56.445 13.259256
56.450 13.608186
56.455 14.557846
56.460 14.435368
56.465 14.506275
56.470 14.346216
56.475 13.930646
56.480 13.705424
56.485 13.272331
56.490 13.081894
56.495 13.316922
56.500 13.134964
56.505 13.577661
56.510 13.893066
56.515 13.720652
56.520 13.568807
56.525 13.010492
56.530 12.662815
56.535 12.848211
56.540 12.352966
56.545 12.423732
56.550 12.524858
56.555 12.838933
56.560 12.939284
56.565 12.843287
56.570 12.535025
56.575 12.428702
56.580 12.51166
56.585 12.279755
56.590 11.49024
56.595 11.216024
56.600 11.433638
56.605 11.431207
56.610 11.162306
56.615 11.286054
56.620 11.517073
56.625 12.180593
56.630 12.142683
56.635 11.965544
56.640 12.056598
56.645 11.548818
56.650 11.516552
56.655 11.641876
56.660 11.721551
56.665 12.285343
56.670 12.039117
56.675 12.593089
56.680 12.95857
56.685 12.963134
56.690 13.109378
56.695 12.741767
56.700 12.358227
56.705 12.512375
56.710 12.257324
56.715 12.565767
56.720 12.414978
56.725 12.396276
56.730 12.485622
56.735 12.383346
56.740 12.497595
56.745 12.534297
56.750 12.699641
56.755 12.686145
56.760 12.443003
56.765 12.058813
56.770 12.175614
56.775 12.05534
56.780 11.837218
56.785 11.216244
56.790 10.979439
56.795 11.167587
56.800 11.545862
56.805 11.304733
56.810 11.132688
56.815 11.551024
56.820 11.975286
56.825 12.147889
56.830 11.542475
56.835 11.359469
56.840 11.618028
56.845 12.045296
56.850 11.920579
56.855 11.820495
56.860 11.922809
56.865 12.554022
56.870 12.737783
56.875 12.672931
56.880 12.168674
56.885 11.974812
56.890 11.553568
56.895 11.495591
56.900 11.727566
56.905 11.610231
56.910 11.918826
56.915 11.708752
56.920 11.66383
56.925 11.831391
56.930 11.759056
56.935 11.555837
56.940 11.699418
56.945 11.882406
56.950 11.947119
56.955 12.095704
56.960 12.641138
56.965 12.709847
56.970 12.715945
56.975 12.896551
56.980 12.226654
56.985 12.407599
56.990 12.220364
56.995 12.020503
57.000 12.208483
57.005 12.537035
57.010 12.215128
57.015 12.992252
57.020 13.399558
57.025 13.319411
57.030 13.047105
57.035 12.427255
57.040 11.708366
57.045 11.392201
57.050 10.801434
57.055 10.521062
57.060 10.098682
57.065 10.216469
57.070 10.590484
57.075 10.650384
57.080 11.021825
57.085 10.669671
57.090 10.576451
57.095 11.470634
57.100 11.957758
57.105 12.339643
57.110 12.45521
57.115 12.323638
57.120 12.678221
57.125 12.516439
57.130 11.939471
57.135 11.210897
57.140 10.810014
57.145 10.76954
57.150 10.734729
57.155 10.353949
57.160 10.445539
57.165 10.215226
57.170 10.510798
57.175 10.78594
57.180 11.039342
57.185 11.385135
57.190 11.502297
57.195 11.432412
57.200 11.452508
57.205 11.293487
57.210 10.95867
57.215 11.082672
57.220 11.208868
57.225 11.465136
57.230 11.953127
57.235 11.867428
57.240 11.91533
57.245 12.022274
57.250 11.521975
57.255 11.18546
57.260 11.194169
57.265 11.332359
57.270 12.123242
57.275 12.60295
57.280 12.441586
57.285 12.52428
57.290 12.851771
57.295 12.474096
57.300 11.953267
57.305 11.233094
57.310 10.704858
57.315 10.430756
57.320 10.782571
57.325 10.574098
57.330 10.952089
57.335 11.398059
57.340 11.768695
57.345 12.338994
57.350 12.604301
57.355 11.918041
57.360 11.651881
57.365 11.551572
57.370 11.440134
57.375 11.180088
57.380 11.205894
57.385 10.907667
57.390 11.253872
57.395 11.57785
57.400 11.513439
57.405 11.159531
57.410 10.954865
57.415 10.777497
57.420 11.015524
57.425 10.846833
57.430 10.831856
57.435 10.843494
57.440 11.241169
57.445 11.230403
57.450 10.846872
57.455 11.039835
57.460 11.123274
57.465 10.985438
57.470 11.050057
57.475 10.570704
57.480 10.92827
57.485 11.406207
57.490 11.375857
57.495 11.037806
57.500 10.851953
57.505 11.052737
57.510 11.527273
57.515 11.990878
57.520 11.793393
57.525 11.755992
57.530 12.074855
57.535 12.177732
57.540 12.143891
57.545 12.158344
57.550 11.576118
57.555 12.096295
57.560 11.835966
57.565 11.954062
57.570 12.24769
57.575 11.622872
57.580 11.036126
57.585 10.741785
57.590 10.312766
57.595 10.115091
57.600 10.0419
57.605 10.082665
57.610 10.555495
57.615 10.637979
57.620 10.812842
57.625 10.951197
57.630 11.338649
57.635 10.955518
57.640 10.83522
57.645 11.19851
57.650 11.241144
57.655 11.246557
57.660 11.08203
57.665 11.261343
57.670 11.808308
57.675 11.702478
57.680 11.795378
57.685 11.96446
57.690 12.225122
57.695 12.515131
57.700 12.532207
57.705 12.037671
57.710 11.492023
57.715 11.084009
57.720 10.895058
57.725 10.449399
57.730 10.667927
57.735 10.854641
57.740 11.180481
57.745 11.336267
57.750 11.70653
57.755 11.787762
57.760 11.852153
57.765 11.461151
57.770 10.957696
57.775 10.998301
57.780 11.124867
57.785 11.262151
57.790 11.54521
57.795 11.810393
57.800 11.940804
57.805 12.286154
57.810 12.267631
57.815 12.447516
57.820 12.464326
57.825 12.442581
57.830 12.434014
57.835 12.393286
57.840 12.651039
57.845 12.603502
57.850 12.212985
57.855 11.971856
57.860 11.613185
57.865 11.458138
57.870 11.865074
57.875 11.718187
57.880 12.042154
57.885 12.012414
57.890 11.786908
57.895 11.913065
57.900 11.907404
57.905 10.979641
57.910 10.476015
57.915 10.40788
57.920 10.968437
57.925 11.36615
57.930 11.521062
57.935 11.552681
57.940 11.850609
57.945 11.906076
57.950 11.530853
57.955 11.220895
57.960 10.791774
57.965 10.667959
57.970 10.436307
57.975 10.623202
57.980 10.423514
57.985 10.030158
57.990 9.708562
57.995 10.013299
58.000 10.42566
58.005 11.045769
58.010 11.172014
58.015 11.598303
58.020 12.038852
58.025 12.46878
58.030 12.477373
58.035 12.327239
58.040 12.06398
58.045 12.087217
58.050 12.424323
58.055 12.854231
58.060 12.71543
58.065 13.083187
58.070 13.126622
58.075 12.750113
58.080 13.031898
58.085 13.095134
58.090 12.691389
58.095 12.041693
58.100 11.496988
58.105 11.389466
58.110 11.134973
58.115 10.69905
58.120 10.535541
58.125 10.903773
58.130 11.384555
58.135 11.428613
58.140 11.658229
58.145 12.354939
58.150 11.949059
58.155 11.666712
58.160 11.375995
58.165 11.906365
58.170 12.337097
58.175 12.469227
58.180 12.071848
58.185 12.457205
58.190 12.662807
58.195 12.611552
58.200 12.544097
58.205 12.210705
58.210 11.856099
58.215 12.085639
58.220 12.315013
58.225 12.085135
58.230 11.725958
58.235 11.344087
58.240 11.130533
58.245 11.343195
58.250 11.051079
58.255 10.458633
58.260 10.736998
58.265 11.33385
58.270 11.202785
58.275 11.968032
58.280 12.369395
58.285 12.159425
58.290 12.10788
58.295 12.420753
58.300 12.638663
58.305 12.523341
58.310 12.521125
58.315 12.819412
58.320 13.70524
58.325 14.019688
58.330 13.142795
58.335 12.916348
58.340 13.112103
58.345 12.878915
58.350 12.49294
58.355 12.252569
58.360 12.335876
58.365 12.868961
58.370 13.088471
58.375 13.394217
58.380 13.407075
58.385 13.254521
58.390 13.034895
58.395 13.052906
58.400 13.049969
58.405 12.987041
58.410 12.73938
58.415 12.523946
58.420 12.422763
58.425 13.103865
58.430 13.584329
58.435 13.516649
58.440 13.699106
58.445 13.881272
58.450 14.022641
58.455 14.698596
58.460 14.626384
58.465 14.767111
58.470 14.738194
58.475 14.435881
58.480 14.643188
58.485 14.928203
58.490 14.684319
58.495 14.121131
58.500 13.25011
58.505 13.142946
58.510 13.217854
58.515 13.020971
58.520 12.756925
58.525 13.285615
58.530 14.095751
58.535 14.580669
58.540 14.466461
58.545 14.606844
58.550 14.163349
58.555 13.587368
58.560 12.683635
58.565 12.324543
58.570 13.006723
58.575 13.185628
58.580 12.479897
58.585 12.887465
58.590 13.890693
58.595 14.891897
58.600 14.782248
58.605 13.944942
58.610 14.485669
58.615 15.151417
58.620 15.090232
58.625 14.350976
58.630 13.786474
58.635 13.72951
58.640 13.691361
58.645 13.470974
58.650 13.644566
58.655 13.805864
58.660 14.457381
58.665 14.422208
58.670 15.1966
58.675 15.324541
58.680 15.193221
58.685 15.152929
58.690 15.757312
58.695 15.846468
58.700 15.777781
58.705 14.966208
58.710 14.620812
58.715 14.603414
58.720 14.019381
58.725 13.711946
58.730 13.371799
58.735 13.318282
58.740 13.843298
58.745 14.681502
58.750 14.888378
58.755 14.807281
58.760 14.362628
58.765 14.563
58.770 14.171092
58.775 13.773506
58.780 13.118153
58.785 12.725079
58.790 12.39647
58.795 12.552537
58.800 12.812944
58.805 13.006368
58.810 13.321507
58.815 13.076101
58.820 13.25443
58.825 13.341344
58.830 12.730397
58.835 12.088044
58.840 12.552473
58.845 12.55396
58.850 12.989173
58.855 13.012456
58.860 12.968339
58.865 13.024076
58.870 13.16017
58.875 13.142571
58.880 13.371488
58.885 13.282091
58.890 13.248228
58.895 13.332282
58.900 13.717433
58.905 13.729556
58.910 13.887572
58.915 13.606701
58.920 13.649016
58.925 13.8144
58.930 14.102074
58.935 14.138241
58.940 14.741023
58.945 14.357897
58.950 14.239192
58.955 14.91148
58.960 15.254445
58.965 15.012171
58.970 14.701756
58.975 14.550747
58.980 14.65153
58.985 15.003345
58.990 14.306873
58.995 14.221812
59.000 14.634392
59.005 15.394716
59.010 15.538583
59.015 15.91913
59.020 15.818902
59.025 15.9662
59.030 15.955186
59.035 15.281757
59.040 14.369461
59.045 13.963729
59.050 13.656591
59.055 13.383384
59.060 13.000442
59.065 12.801373
59.070 13.058297
59.075 13.858382
59.080 14.258099
59.085 14.380425
59.090 14.426082
59.095 14.661342
59.100 14.911038
59.105 15.201128
59.110 15.044411
59.115 15.159125
59.120 14.878297
59.125 14.889823
59.130 15.086331
59.135 15.38733
59.140 15.431112
59.145 15.361697
59.150 15.17446
59.155 15.604868
59.160 15.94679
59.165 15.497439
59.170 15.608899
59.175 15.471752
59.180 15.030922
59.185 14.561454
59.190 14.087938
59.195 13.936674
59.200 13.733733
59.205 13.413569
59.210 13.581516
59.215 13.876072
59.220 13.689658
59.225 13.64514
59.230 14.078528
59.235 14.058841
59.240 13.783493
59.245 13.291429
59.250 13.109941
59.255 13.088262
59.260 13.013841
59.265 12.881185
59.270 13.312483
59.275 13.283826
59.280 13.255827
59.285 13.269505
59.290 13.381305
59.295 13.310616
59.300 13.131371
59.305 13.21961
59.310 13.36365
59.315 13.290004
59.320 13.774101
59.325 14.142531
59.330 14.327339
59.335 14.544781
59.340 13.964563
59.345 14.127638
59.350 14.547993
59.355 14.648614
59.360 14.771789
59.365 14.657025
59.370 14.134276
59.375 14.629925
59.380 14.341753
59.385 13.942819
59.390 14.006497
59.395 13.93515
59.400 13.857739
59.405 14.117407
59.410 13.943474
59.415 14.241117
59.420 14.288328
59.425 14.003649
59.430 13.787757
59.435 13.906323
59.440 14.317318
59.445 14.246546
59.450 14.285226
59.455 14.378946
59.460 14.581766
59.465 14.721533
59.470 14.631928
59.475 14.551385
59.480 14.604199
59.485 14.386899
59.490 13.900333
59.495 13.53363
59.500 13.848933
59.505 14.108706
59.510 14.240845
59.515 14.168816
59.520 14.356112
59.525 14.979525
59.530 15.062109
59.535 14.98559
59.540 14.542983
59.545 14.466927
59.550 14.673711
59.555 14.142976
59.560 13.870497
59.565 13.320443
59.570 12.660018
59.575 12.974461
59.580 12.822457
59.585 13.281653
59.590 13.819736
59.595 13.970662
59.600 14.138235
59.605 14.357489
59.610 14.228665
59.615 14.450813
59.620 14.002097
59.625 13.460887
59.630 13.943544
59.635 14.711348
59.640 14.628663
59.645 14.709013
59.650 14.556356
59.655 14.779413
59.660 15.393762
59.665 15.067868
59.670 14.739304
59.675 14.800383
59.680 14.758563
59.685 14.560878
59.690 14.790225
59.695 14.183693
59.700 14.289983
59.705 14.158167
59.710 14.02596
59.715 14.241852
59.720 14.220341
59.725 13.803784
59.730 14.044807
59.735 13.588537
59.740 13.752401
59.745 13.674838
59.750 13.814241
59.755 13.56568
59.760 13.53269
59.765 13.448847
59.770 13.218705
59.775 13.284342
59.780 13.517175
59.785 13.355429
59.790 13.881905
59.795 13.680297
59.800 13.791797
59.805 14.664191
59.810 14.811244
59.815 14.460432
59.820 14.223612
59.825 14.375328
59.830 14.669823
59.835 14.316904
59.840 13.854696
59.845 13.80858
59.850 13.810773
59.855 13.54017
59.860 13.613413
59.865 13.468127
59.870 13.064552
59.875 13.36924
59.880 13.809804
59.885 13.995411
59.890 14.33724
59.895 14.222033
59.900 14.204367
59.905 14.728663
59.910 14.097255
59.915 13.782308
59.920 13.311523
59.925 12.844272
59.930 12.419127
59.935 12.958444
59.940 12.9599
59.945 13.30031
59.950 13.080635
59.955 13.506316
59.960 13.421554
59.965 13.647678
59.970 12.862812
59.975 12.759711
59.980 12.466669
59.985 12.622458
59.990 12.618408
59.995 13.080824
60.000 13.334248
60.005 14.052636
60.010 14.018596
60.015 13.600262
60.020 13.396767
60.025 13.305325
60.030 12.921432
60.035 12.793816
60.040 12.388103
60.045 12.696091
60.050 12.953826
60.055 13.131915
60.060 12.816731
60.065 12.495665
60.070 12.287996
60.075 12.255973
60.080 11.844447
60.085 11.46875
60.090 11.640457
60.095 11.851451
60.100 12.116662
60.105 12.106048
60.110 11.770392
60.115 11.597201
60.120 11.494187
60.125 11.109089
60.130 10.890285
60.135 11.591769
60.140 12.105359
60.145 12.487415
60.150 12.885034
60.155 13.207577
60.160 13.128637
60.165 13.298371
60.170 12.837119
60.175 12.852376
60.180 13.060209
60.185 13.376797
60.190 13.90905
60.195 14.545005
60.200 14.335462
60.205 13.867293
60.210 13.586816
60.215 13.365698
60.220 12.873048
60.225 12.490152
60.230 12.332817
60.235 12.732266
60.240 12.802237
60.245 12.657475
60.250 12.415394
60.255 11.988464
60.260 11.570478
60.265 11.122577
60.270 10.688778
60.275 10.802511
60.280 11.066895
60.285 11.240577
60.290 11.516745
60.295 12.099575
60.300 12.45713
60.305 12.466928
60.310 12.458151
60.315 12.63613
60.320 12.544251
60.325 12.687761
60.330 12.11104
60.335 11.691332
60.340 11.742167
60.345 11.426447
60.350 11.430419
60.355 11.839539
60.360 11.259556
60.365 11.398412
60.370 11.959956
60.375 12.14157
60.380 12.195518
60.385 11.896611
60.390 11.935179
60.395 12.753132
60.400 12.859984
60.405 12.313619
60.410 12.465921
60.415 12.494289
60.420 12.766352
60.425 12.430423
60.430 12.485702
60.435 12.212667
60.440 12.267957
60.445 12.295159
60.450 12.275973
60.455 11.797851
60.460 11.784349
60.465 11.556894
60.470 11.738562
60.475 11.803329
60.480 11.429329
60.485 11.171692
60.490 11.316642
60.495 12.059044
60.500 12.758533
60.505 13.443141
60.510 13.290603
60.515 13.134556
60.520 13.167268
60.525 13.116479
60.530 12.558398
60.535 11.569921
60.540 10.814774
60.545 11.032722
60.550 11.46714
60.555 11.696117
60.560 11.517702
60.565 11.136238
60.570 11.421783
60.575 11.749601
60.580 11.711905
60.585 11.242002
60.590 11.045695
60.595 11.160074
60.600 11.851363
60.605 12.10357
60.610 12.604822
60.615 12.979635
60.620 13.425865
60.625 13.821506
60.630 13.55789
60.635 13.018355
60.640 12.941833
60.645 12.507455
60.650 12.15613
60.655 11.921391
60.660 11.917576
60.665 11.863843
60.670 11.898324
60.675 11.79498
60.680 11.962311
60.685 12.151217
60.690 12.190474
60.695 12.049022
60.700 12.175927
60.705 12.320182
60.710 12.099921
60.715 12.123578
60.720 12.344672
60.725 12.977409
60.730 13.696475
60.735 13.752943
60.740 13.306324
60.745 13.081419
60.750 13.015116
60.755 12.33033
60.760 11.725029
60.765 11.222822
60.770 11.260839
60.775 11.889563
60.780 11.861046
60.785 12.351082
60.790 12.793726
60.795 12.787162
60.800 12.858067
60.805 12.724779
60.810 12.356823
60.815 12.387077
60.820 11.786924
60.825 12.312302
60.830 12.025334
60.835 12.012746
60.840 12.011618
60.845 12.28563
60.850 12.478186
60.855 12.154585
60.860 11.460906
60.865 11.624485
60.870 11.560571
60.875 11.449232
60.880 11.43525
60.885 11.240877
60.890 11.606848
60.895 12.026193
60.900 12.227045
60.905 12.335008
60.910 12.740292
60.915 12.727525
60.920 12.862616
60.925 12.882954
60.930 12.923742
60.935 12.763304
60.940 12.468099
60.945 12.337873
60.950 12.603598
60.955 12.070831
60.960 11.790267
60.965 11.336375
60.970 11.275679
60.975 11.282894
60.980 10.815291
60.985 10.557428
60.990 11.19918
60.995 11.434773
61.000 11.871113
61.005 11.952087
61.010 12.098254
61.015 12.449537
61.020 12.994485
61.025 12.380937
61.030 12.233095
61.035 12.189681
61.040 12.337546
61.045 12.599413
61.050 12.29952
61.055 11.925581
61.060 11.95582
61.065 11.637512
61.070 11.64562
61.075 11.41898
61.080 11.383324
61.085 11.556889
61.090 11.806159
61.095 12.302663
61.100 12.744493
61.105 12.935546
61.110 12.598673
61.115 12.378019
61.120 12.180022
61.125 11.618468
61.130 11.563902
61.135 11.724489
61.140 11.848493
61.145 12.161002
61.150 11.964908
61.155 11.897941
61.160 12.505215
61.165 12.305795
61.170 12.04601
61.175 11.666557
61.180 11.652705
61.185 11.46392
61.190 11.778648
61.195 11.279756
61.200 11.589424
61.205 12.000065
61.210 12.089579
61.215 12.693639
61.220 13.249258
61.225 13.184398
61.230 13.502529
61.235 13.650091
61.240 13.396111
61.245 13.311633
61.250 13.126032
61.255 13.121469
61.260 12.993169
61.265 12.744887
61.270 12.611534
61.275 12.828788
61.280 12.842437
61.285 12.563484
61.290 12.247598
61.295 11.786952
61.300 11.498075
61.305 10.863658
61.310 10.229579
61.315 10.016407
61.320 9.743526
61.325 10.257518
61.330 11.130949
61.335 11.147126
61.340 11.560971
61.345 11.857191
61.350 11.910386
61.355 12.183233
61.360 11.948199
61.365 11.247929
61.370 11.842163
61.375 11.680938
61.380 11.756587
61.385 12.33189
61.390 12.196703
61.395 12.253366
61.400 12.282876
61.405 11.681168
61.410 12.370917
61.415 12.601136
61.420 12.223089
61.425 12.19641
61.430 12.669415
61.435 12.747316
61.440 12.841267
61.445 12.892052
61.450 13.137537
61.455 13.65012
61.460 13.604642
61.465 13.046035
61.470 13.258334
61.475 13.662855
61.480 13.690027
61.485 13.427314
61.490 13.35878
61.495 13.175026
61.500 13.573668
61.505 13.32876
61.510 12.869766
61.515 12.596825
61.520 12.342978
61.525 12.478195
61.530 12.845256
61.535 12.84998
61.540 13.285427
61.545 13.550995
61.550 13.610703
61.555 13.73846
61.560 13.703164
61.565 13.38162
61.570 13.483273
61.575 13.435296
61.580 12.948867
61.585 12.911215
61.590 12.88846
61.595 13.113411
61.600 13.437894
61.605 13.111782
61.610 13.01831
61.615 13.045649
61.620 12.754968
61.625 12.887635
61.630 12.936214
61.635 13.297699
61.640 13.96047
61.645 14.154412
61.650 14.468294
61.655 14.575175
61.660 14.684523
61.665 14.499599
61.670 14.468775
61.675 13.874778
61.680 13.945218
61.685 13.770056
61.690 13.909699
61.695 13.823338
61.700 13.84904
61.705 13.150475
61.710 12.814939
61.715 12.825834
61.720 12.822432
61.725 12.694819
61.730 12.512265
61.735 12.45566
61.740 12.746395
61.745 12.630517
61.750 12.389368
61.755 12.272213
61.760 12.592758
61.765 13.101082
61.770 13.295671
61.775 13.593284
61.780 13.87671
61.785 13.99536
61.790 14.193753
61.795 13.766256
61.800 12.937064
61.805 12.495995
61.810 12.525989
61.815 13.000253
61.820 12.629379
61.825 12.428705
61.830 12.786874
61.835 13.191062
61.840 13.452468
61.845 13.53234
61.850 13.269488
61.855 13.781009
61.860 13.987508
61.865 13.740703
61.870 13.660859
61.875 13.536648
61.880 13.573388
61.885 13.608361
61.890 13.408875
61.895 13.160194
61.900 13.289817
61.905 13.464724
61.910 13.227992
61.915 13.230083
61.920 12.80029
61.925 12.622694
61.930 12.346352
61.935 12.224661
61.940 12.02371
61.945 11.672036
61.950 11.528476
61.955 11.862331
61.960 12.427943
61.965 12.673388
61.970 12.139046
61.975 12.175795
61.980 12.657212
61.985 12.596081
61.990 12.678806
61.995 12.107736
62.000 12.064494
62.005 12.16022
62.010 12.474484
62.015 12.169004
62.020 11.8374
62.025 11.712338
62.030 12.049678
62.035 11.742917
62.040 12.001012
62.045 11.797582
62.050 11.74948
62.055 11.948265
62.060 11.838536
62.065 11.691363
62.070 12.050717
62.075 12.173358
62.080 12.510503
62.085 12.957609
62.090 13.671765
62.095 13.757694
62.100 13.616616
62.105 13.442378
62.110 13.318416
62.115 13.172471
62.120 12.92935
62.125 12.359488
62.130 12.558499
62.135 13.083937
62.140 13.401261
62.145 13.243581
62.150 12.786444
62.155 12.825853
62.160 12.926851
62.165 13.037004
62.170 13.198457
62.175 13.585494
62.180 13.591328
62.185 13.647971
62.190 13.588395
62.195 13.106543
62.200 13.348252
62.205 13.209481
62.210 13.038373
62.215 13.136116
62.220 13.281316
62.225 13.329637
62.230 13.16446
62.235 12.557436
62.240 12.278119
62.245 11.958409
62.250 12.194126
62.255 12.710414
62.260 13.392496
62.265 13.973888
62.270 13.868361
62.275 14.064051
62.280 14.500324
62.285 14.137639
62.290 13.583433
62.295 12.771409
62.300 12.230658
62.305 12.306479
62.310 11.828033
62.315 11.057131
62.320 11.171318
62.325 11.264761
62.330 11.651597
62.335 12.1353
62.340 12.374792
62.345 12.622193
62.350 12.764736
62.355 12.624594
62.360 12.440806
62.365 12.437517
62.370 12.376079
62.375 12.057261
62.380 12.132819
62.385 12.598701
62.390 12.70452
62.395 13.004427
62.400 13.021851
62.405 12.805182
62.410 13.438457
62.415 13.367184
62.420 12.937785
62.425 12.973094
62.430 12.465013
62.435 12.118873
62.440 12.013574
62.445 12.102664
62.450 12.898983
62.455 13.170193
62.460 13.213695
62.465 13.991017
62.470 14.504637
62.475 14.619036
62.480 14.853874
62.485 14.265741
62.490 14.01096
62.495 14.335035
62.500 14.152309
62.505 13.937176
62.510 13.780541
62.515 13.267838
62.520 13.418816
62.525 13.834696
62.530 13.518701
62.535 13.470446
62.540 13.33381
62.545 13.340644
62.550 13.613279
62.555 13.575667
62.560 13.315205
62.565 13.018127
62.570 13.172543
62.575 13.212873
62.580 13.369634
62.585 12.795532
62.590 13.047063
62.595 13.15311
62.600 13.507598
62.605 13.56971
62.610 13.54744
62.615 13.760891
62.620 13.63625
62.625 12.855219
62.630 12.510235
62.635 12.364461
62.640 11.679079
62.645 11.452541
62.650 11.214697
62.655 11.475477
62.660 11.940481
62.665 12.5503
62.670 13.205539
62.675 14.079503
62.680 14.175195
62.685 14.324251
62.690 14.684016
62.695 14.885371
62.700 14.155951
62.705 14.035213
62.710 14.086899
62.715 14.060153
62.720 13.881453
62.725 13.594856
62.730 13.06879
62.735 13.432585
62.740 12.666931
62.745 12.441161
62.750 12.567032
62.755 12.667704
62.760 13.182966
62.765 13.864188
62.770 13.540882
62.775 13.454655
62.780 13.698162
62.785 13.653521
62.790 13.511994
62.795 13.507771
62.800 13.259747
62.805 13.438924
62.810 13.504474
62.815 13.18602
62.820 13.313023
62.825 13.769937
62.830 13.408705
62.835 13.538868
62.840 13.547374
62.845 14.229157
62.850 14.617422
62.855 14.534364
62.860 14.157675
62.865 14.058619
62.870 14.140389
62.875 14.120137
62.880 13.622869
62.885 13.324469
62.890 13.369885
62.895 13.165316
62.900 13.111053
62.905 12.929599
62.910 13.195491
62.915 13.164523
62.920 13.096294
62.925 12.808832
62.930 13.041561
62.935 13.144734
62.940 13.12333
62.945 12.810266
62.950 12.960279
62.955 13.2095
62.960 13.267294
62.965 13.286963
62.970 13.317286
62.975 13.703772
62.980 14.063785
62.985 14.026999
62.990 14.226704
62.995 14.924904
63.000 15.216295
63.005 14.940968
63.010 14.398721
63.015 14.355736
63.020 14.938685
63.025 14.689513
63.030 13.82921
63.035 13.863361
63.040 14.108391
63.045 14.420763
63.050 13.851027
63.055 12.914745
63.060 12.567684
63.065 12.558589
63.070 12.241147
63.075 12.006427
63.080 12.163462
63.085 12.292728
63.090 12.020951
63.095 11.967186
63.100 11.920397
63.105 12.003071
63.110 11.882686
63.115 11.971763
63.120 12.231928
63.125 13.011012
63.130 13.434775
63.135 13.536687
63.140 13.196596
63.145 13.18776
63.150 12.946195
63.155 12.79726
63.160 12.523259
63.165 12.663605
63.170 13.043894
63.175 13.807107
63.180 14.405657
63.185 14.015844
63.190 13.827559
63.195 13.510428
63.200 13.188887
63.205 12.89201
63.210 12.215554
63.215 11.850563
63.220 12.165083
63.225 12.6352
63.230 13.086975
63.235 12.693768
63.240 12.285417
63.245 12.418512
63.250 12.693976
63.255 12.726914
63.260 12.698428
63.265 12.303891
63.270 12.71485
63.275 13.220666
63.280 13.472481
63.285 13.085855
63.290 12.961427
63.295 13.237948
63.300 13.916183
63.305 13.899262
63.310 14.126774
63.315 14.108487
63.320 14.565021
63.325 14.803026
63.330 14.504954
63.335 14.285667
63.340 14.387678
63.345 14.435812
63.350 14.404133
63.355 13.930685
63.360 13.827431
63.365 13.87741
63.370 13.577629
63.375 13.333389
63.380 13.060883
63.385 12.78143
63.390 13.116051
63.395 13.3888
63.400 13.519051
63.405 13.54257
63.410 13.434385
63.415 13.509696
63.420 13.613065
63.425 12.838268
63.430 12.552406
63.435 12.065213
63.440 11.919207
63.445 12.182227
63.450 12.005862
63.455 11.904931
63.460 12.144381
63.465 12.114814
63.470 12.516068
63.475 12.616531
63.480 12.168928
63.485 12.313551
63.490 12.172433
63.495 12.163228
63.500 12.518283
63.505 12.752816
63.510 13.226665
63.515 13.511353
63.520 13.736274
63.525 14.177201
63.530 14.433055
63.535 14.04932
63.540 14.185155
63.545 14.180172
63.550 14.555974
63.555 14.618072
63.560 14.342348
63.565 14.382194
63.570 14.518747
63.575 14.084484
63.580 13.367765
63.585 12.840281
63.590 12.468125
63.595 12.106339
63.600 12.094325
63.605 12.335547
63.610 12.393804
63.615 12.528113
63.620 12.903079
63.625 13.567942
63.630 14.076769
63.635 14.178891
63.640 13.822739
63.645 13.9062
63.650 14.449273
63.655 14.473612
63.660 14.424888
63.665 14.210093
63.670 13.954716
63.675 14.022233
63.680 14.036075
63.685 14.181878
63.690 14.283925
63.695 13.710049
63.700 13.195835
63.705 13.041118
63.710 12.831198
63.715 12.701818
63.720 12.103519
63.725 11.621345
63.730 11.936381
63.735 12.52408
63.740 12.759587
63.745 12.591918
63.750 12.136053
63.755 12.50693
63.760 12.716907
63.765 12.679907
63.770 12.588328
63.775 12.190144
63.780 12.013026
63.785 12.461574
63.790 12.687865
63.795 12.552477
63.800 12.997897
63.805 13.610425
63.810 14.201476
63.815 14.773968
63.820 14.492706
63.825 13.854924
63.830 13.653938
63.835 13.155491
63.840 12.904809
63.845 12.597525
63.850 12.535299
63.855 12.577728
63.860 12.945202
63.865 13.294217
63.870 13.254248
63.875 13.444983
63.880 13.742093
63.885 13.829402
63.890 14.151536
63.895 14.377746
63.900 14.511672
63.905 14.767127
63.910 14.800391
63.915 14.850008
63.920 14.953932
63.925 14.370272
63.930 13.645044
63.935 13.595387
63.940 13.060116
63.945 12.909143
63.950 13.14714
63.955 13.327551
63.960 13.991028
63.965 14.638197
63.970 14.62451
63.975 14.581015
63.980 14.671309
63.985 14.931903
63.990 14.5662
63.995 14.187219
64.000 13.892648
64.005 14.361028
64.010 15.402134
64.015 15.636212
64.020 15.589641
64.025 16.093786
64.030 16.169481
64.035 16.326275
64.040 16.104721
64.045 15.486509
64.050 14.809896
64.055 14.410232
64.060 14.153699
64.065 14.228984
64.070 14.279778
64.075 14.424802
64.080 14.43064
64.085 14.535588
64.090 14.924765
64.095 14.827324
64.100 14.822808
64.105 14.437957
64.110 14.209401
64.115 14.934029
64.120 15.306747
64.125 15.134353
64.130 14.884318
64.135 15.166591
64.140 15.367768
64.145 15.807735
64.150 15.275457
64.155 15.027192
64.160 14.85973
64.165 15.35516
64.170 15.192135
64.175 14.522599
64.180 13.700053
64.185 13.269351
64.190 13.241505
64.195 13.597383
64.200 13.468497
64.205 13.456417
64.210 14.291601
64.215 14.740706
64.220 15.316714
64.225 15.474109
64.230 15.788858
64.235 16.142679
64.240 16.164715
64.245 15.900302
64.250 15.872344
64.255 16.207645
64.260 16.028603
64.265 15.522646
64.270 15.214314
64.275 15.080975
64.280 15.471119
64.285 15.674139
64.290 15.789751
64.295 15.692526
64.300 15.451618
64.305 15.627187
64.310 15.646604
64.315 15.105403
64.320 14.874495
64.325 14.212526
64.330 13.596991
64.335 13.689439
64.340 13.890763
64.345 14.012119
64.350 14.050665
64.355 13.877352
64.360 15.095542
64.365 15.55907
64.370 15.728519
64.375 15.845505
64.380 15.974465
64.385 16.046019
64.390 16.0632
64.395 15.052214
64.400 15.35544
64.405 15.537264
64.410 15.641546
64.415 15.644273
64.420 15.393671
64.425 15.621993
64.430 16.191648
64.435 16.390619
64.440 16.02038
64.445 15.663445
64.450 15.740122
64.455 15.85572
64.460 15.415319
64.465 15.017248
64.470 15.190848
64.475 15.388474
64.480 15.780086
64.485 15.752979
64.490 15.762854
64.495 16.041857
64.500 16.472395
64.505 16.162794
64.510 16.015419
64.515 16.036108
64.520 16.573921
64.525 16.273418
64.530 16.009501
64.535 15.350139
64.540 15.450164
64.545 15.21269
64.550 14.806496
64.555 14.67738
64.560 15.279119
64.565 16.052471
64.570 16.682285
64.575 17.278803
64.580 17.690666
64.585 17.620155
64.590 17.542074
64.595 17.062254
64.600 16.527304
64.605 15.967702
64.610 15.51771
64.615 15.435669
64.620 15.51298
64.625 15.327546
64.630 15.497615
64.635 15.233843
64.640 15.326607
64.645 15.147295
64.650 14.907739
64.655 15.0082
64.660 15.459971
64.665 15.845713
64.670 15.943588
64.675 15.514578
64.680 15.693993
64.685 16.565233
64.690 16.934608
64.695 16.536753
64.700 16.676979
64.705 17.0261
64.710 17.818882
64.715 17.480944
64.720 16.913595
64.725 16.354893
64.730 16.484901
64.735 15.92855
64.740 15.747815
64.745 15.556472
64.750 15.813622
64.755 16.175615
64.760 16.364876
64.765 16.724791
64.770 17.391497
64.775 17.038448
64.780 16.867817
64.785 16.468224
64.790 16.410852
64.795 16.462748
64.800 16.624252
64.805 16.792252
64.810 17.132532
64.815 17.442263
64.820 17.242134
64.825 17.505436
64.830 17.65213
64.835 18.004204
64.840 17.880989
64.845 17.963579
64.850 18.199427
64.855 18.607275
64.860 18.59638
64.865 18.436644
64.870 17.962259
64.875 17.825565
64.880 18.053143
64.885 18.242105
64.890 18.600075
64.895 18.55797
64.900 18.763037
64.905 18.720528
64.910 19.055336
64.915 19.397543
64.920 19.543839
64.925 19.474066
64.930 19.221615
64.935 19.291754
64.940 19.384195
64.945 19.034012
64.950 18.888573
64.955 19.09053
64.960 18.982965
64.965 19.369144
64.970 19.728264
64.975 20.262768
64.980 21.047964
64.985 21.544926
64.990 21.787687
64.995 21.839792
65.000 21.478617
65.005 21.048952
65.010 20.420963
65.015 19.668325
65.020 20.377773
65.025 20.640068
65.030 21.265652
65.035 21.993582
65.040 22.525188
65.045 23.101601
65.050 23.467157
65.055 22.368685
65.060 22.282646
65.065 21.607264
65.070 21.233448
65.075 20.790651
65.080 21.378086
65.085 21.737925
65.090 22.153675
65.095 21.433767
65.100 21.429926
65.105 21.352217
65.110 21.420874
65.115 21.077614
65.120 20.461481
65.125 20.087597
65.130 20.89238
65.135 20.782799
65.140 20.637711
65.145 19.887918
65.150 19.341011
65.155 19.47278
65.160 19.009691
65.165 19.016579
65.170 19.124783
65.175 19.655815
65.180 20.6276
65.185 20.508017
65.190 20.366575
65.195 20.299006
65.200 20.23432
65.205 20.245171
65.210 19.478359
65.215 18.396986
65.220 17.934311
65.225 17.830673
65.230 18.037992
65.235 18.247383
65.240 18.460188
65.245 18.955568
65.250 19.456789
65.255 19.671534
65.260 19.37805
65.265 19.148066
65.270 18.005707
65.275 17.536575
65.280 16.971003
65.285 16.911095
65.290 17.298573
65.295 17.534935
65.300 18.091516
65.305 18.845634
65.310 18.836092
65.315 19.47356
65.320 19.379261
65.325 19.039875
65.330 18.577105
65.335 18.217287
65.340 17.40592
65.345 17.194309
65.350 16.40358
65.355 16.410362
65.360 16.445272
65.365 16.57309
65.370 16.548819
65.375 16.824467
65.380 16.793137
65.385 16.84963
65.390 17.204266
65.395 17.51948
65.400 17.118036
65.405 16.653452
65.410 16.600651
65.415 16.816645
65.420 16.942564
65.425 16.922878
65.430 17.170845
65.435 17.293486
65.440 17.763004
65.445 17.759857
65.450 17.599531
65.455 17.277702
65.460 17.064381
65.465 16.610935
65.470 16.79598
65.475 16.306929
65.480 16.085657
65.485 16.264772
65.490 16.685606
65.495 16.713978
65.500 16.915129
65.505 17.346714
65.510 17.576569
65.515 17.924761
65.520 18.010286
65.525 17.614176
65.530 17.436308
65.535 17.106432
65.540 17.048391
65.545 17.317127
65.550 17.337143
65.555 17.452234
65.560 17.538397
65.565 17.455694
65.570 17.46804
65.575 16.604639
65.580 16.376394
65.585 16.078402
65.590 16.239664
65.595 16.141808
65.600 15.855453
65.605 15.88256
65.610 16.432957
65.615 16.692015
65.620 17.197815
65.625 16.876642
65.630 17.019609
65.635 17.271513
65.640 17.479445
65.645 18.003952
65.650 17.441734
65.655 17.41913
65.660 17.479904
65.665 17.44574
65.670 17.510933
65.675 17.497808
65.680 17.140303
65.685 17.86381
65.690 17.812111
65.695 17.905506
65.700 18.351381
65.705 18.353523
65.710 17.888727
65.715 17.689058
65.720 17.382448
65.725 17.472954
65.730 16.999643
65.735 16.758377
65.740 16.947075
65.745 17.370781
65.750 17.511951
65.755 17.825924
65.760 17.990398
65.765 18.367922
65.770 18.384153
65.775 18.911591
65.780 19.063074
65.785 19.425159
65.790 19.287146
65.795 18.837301
65.800 18.803932
65.805 18.753344
65.810 18.067467
65.815 17.892492
65.820 17.387444
65.825 17.126066
65.830 17.408066
65.835 17.352341
65.840 17.151533
65.845 17.046974
65.850 16.751125
65.855 16.749582
65.860 17.236624
65.865 17.055094
65.870 17.014688
65.875 17.24752
65.880 17.515205
65.885 17.934727
65.890 18.086946
65.895 18.186747
65.900 18.997389
65.905 19.798071
65.910 20.005087
65.915 20.402023
65.920 20.640751
65.925 20.598301
65.930 20.811945
65.935 20.565472
65.940 19.759363
65.945 19.66651
65.950 19.619709
65.955 19.735701
65.960 20.407932
65.965 20.792933
65.970 21.406698
65.975 21.340843
65.980 21.501564
65.985 21.127621
65.990 20.833141
65.995 19.890987
66.000 19.113699
66.005 18.558266
66.010 18.872854
66.015 18.769093
66.020 18.693968
66.025 19.147814
66.030 19.650719
66.035 20.014803
66.040 20.441578
66.045 20.515051
66.050 20.631081
66.055 20.586649
66.060 20.767889
66.065 21.278578
66.070 21.438986
66.075 21.233034
66.080 20.989819
66.085 21.265339
66.090 21.389938
66.095 21.222675
66.100 21.009914
66.105 21.039541
66.110 21.296249
66.115 21.266758
66.120 21.73065
66.125 21.931664
66.130 21.895164
66.135 21.581352
66.140 22.252916
66.145 22.205603
66.150 22.312695
66.155 22.134052
66.160 22.206352
66.165 22.382292
66.170 22.70908
66.175 21.900208
66.180 22.053843
66.185 22.067598
66.190 21.881306
66.195 21.596785
66.200 21.123199
66.205 21.181097
66.210 21.171114
66.215 20.945162
66.220 20.689613
66.225 20.618383
66.230 20.967421
66.235 21.064621
66.240 20.889288
66.245 20.810768
66.250 21.057858
66.255 21.130182
66.260 21.378119
66.265 21.713009
66.270 22.253756
66.275 21.970554
66.280 22.006174
66.285 21.482412
66.290 21.383604
66.295 21.050587
66.300 20.942614
66.305 21.162882
66.310 21.939837
66.315 22.251791
66.320 22.630184
66.325 22.41872
66.330 22.232929
66.335 21.906113
66.340 21.138577
66.345 21.037455
66.350 20.743555
66.355 20.852905
66.360 21.237947
66.365 20.92815
66.370 20.841503
66.375 20.536058
66.380 19.728319
66.385 19.540895
66.390 19.003256
66.395 19.027567
66.400 19.293245
66.405 19.511189
66.410 19.63534
66.415 19.587212
66.420 19.456085
66.425 19.68487
66.430 19.596825
66.435 19.643843
66.440 19.591309
66.445 19.268696
66.450 19.950514
66.455 20.733162
66.460 21.06485
66.465 20.926086
66.470 20.668358
66.475 20.131908
66.480 19.738201
66.485 19.253155
66.490 18.681019
66.495 18.652605
66.500 18.793627
66.505 18.732517
66.510 18.865931
66.515 19.563927
66.520 20.067959
66.525 19.904711
66.530 19.391058
66.535 18.704372
66.540 19.049526
66.545 18.838337
66.550 18.136831
66.555 17.177187
66.560 16.911436
66.565 16.721088
66.570 16.716665
66.575 16.069353
66.580 16.536476
66.585 16.292038
66.590 16.445599
66.595 16.225695
66.600 16.323807
66.605 16.702747
66.610 17.100492
66.615 16.757742
66.620 16.736845
66.625 16.805983
66.630 16.602203
66.635 16.025543
66.640 15.95357
66.645 15.360364
66.650 15.487369
66.655 15.772707
66.660 15.504294
66.665 15.586249
66.670 16.020281
66.675 15.723155
66.680 16.322708
66.685 16.537905
66.690 16.767132
66.695 16.64629
66.700 16.604027
66.705 16.816801
66.710 16.289021
66.715 15.202249
66.720 15.003984
66.725 14.801699
66.730 14.889926
66.735 14.663021
66.740 14.745385
66.745 15.03281
66.750 15.491835
66.755 15.062781
66.760 15.148382
66.765 15.011971
66.770 15.478167
66.775 15.405742
66.780 15.492971
66.785 15.374043
66.790 15.025936
66.795 14.593687
66.800 14.46514
66.805 13.750938
66.810 13.559479
66.815 13.632755
66.820 13.157111
66.825 13.148504
66.830 13.356721
66.835 13.79218
66.840 13.956888
66.845 14.31557
66.850 14.300018
66.855 14.810787
66.860 14.84182
66.865 14.584354
66.870 14.419013
66.875 14.09406
66.880 13.876235
66.885 14.231271
66.890 14.012732
66.895 13.936522
66.900 13.33179
66.905 13.353743
66.910 13.806861
66.915 13.419797
66.920 12.836318
66.925 12.798736
66.930 12.859394
66.935 13.453225
66.940 13.344594
66.945 13.089907
66.950 13.25978
66.955 13.571821
66.960 13.688781
66.965 14.056414
66.970 13.772883
66.975 13.989088
66.980 13.953088
66.985 14.440742
66.990 15.012027
66.995 15.218498
67.000 14.936558
67.005 15.197128
67.010 15.020862
67.015 14.979532
67.020 13.837116
67.025 13.311004
67.030 13.160763
67.035 13.338487
67.040 13.348061
67.045 13.174801
67.050 13.318698
67.055 13.674827
67.060 13.566436
67.065 13.462571
67.070 13.736695
67.075 13.928986
67.080 14.153641
67.085 14.313554
67.090 14.308738
67.095 14.321293
67.100 14.384376
67.105 14.523659
67.110 14.443536
67.115 14.118142
67.120 14.110935
67.125 14.490133
67.130 14.575994
67.135 14.228523
67.140 14.194004
67.145 14.114463
67.150 14.17899
67.155 14.041445
67.160 14.355619
67.165 14.46379
67.170 14.641569
67.175 13.97499
67.180 14.060746
67.185 14.073133
67.190 14.294733
67.195 13.689175
67.200 13.862423
67.205 14.426448
67.210 14.491319
67.215 14.98914
67.220 14.863103
67.225 14.510215
67.230 14.412239
67.235 13.869995
67.240 13.784795
67.245 14.230172
67.250 13.348606
67.255 13.156286
67.260 13.196917
67.265 13.615376
67.270 13.465993
67.275 13.238085
67.280 13.443337
67.285 14.345987
67.290 14.805359
67.295 15.067732
67.300 15.067514
67.305 15.16161
67.310 15.040045
67.315 14.347899
67.320 13.825839
67.325 13.232029
67.330 12.611561
67.335 12.112375
67.340 12.597719
67.345 13.079551
67.350 13.529661
67.355 13.796253
67.360 13.965087
67.365 14.239059
67.370 14.857579
67.375 14.608924
67.380 13.74103
67.385 13.282502
67.390 13.008318
67.395 13.1705
67.400 13.191442
67.405 12.335661
67.410 12.253498
67.415 12.754052
67.420 13.209993
67.425 14.078634
67.430 13.653905
67.435 14.008075
67.440 14.922025
67.445 15.129417
67.450 15.224966
67.455 14.778329
67.460 14.25631
67.465 13.955141
67.470 13.608842
67.475 13.328394
67.480 13.194444
67.485 12.933547
67.490 13.239177
67.495 13.680353
67.500 14.646627
67.505 14.67497
67.510 14.785182
67.515 14.915642
67.520 15.222778
67.525 14.877158
67.530 14.497601
67.535 14.535284
67.540 14.449187
67.545 14.445172
67.550 13.983235
67.555 13.448632
67.560 12.890977
67.565 13.247143
67.570 12.866757
67.575 12.608114
67.580 12.171849
67.585 12.568356
67.590 13.335382
67.595 14.20977
67.600 14.132826
67.605 14.747802
67.610 15.182813
67.615 14.990733
67.620 14.818143
67.625 14.688874
67.630 14.297221
67.635 13.803002
67.640 13.316179
67.645 13.193557
67.650 13.679688
67.655 14.343637
67.660 14.327394
67.665 14.480673
67.670 14.53202
67.675 14.255427
67.680 14.003983
67.685 13.89908
67.690 13.371066
67.695 13.058503
67.700 12.859312
67.705 12.815177
67.710 13.551978
67.715 14.018637
67.720 13.937625
67.725 13.804482
67.730 13.835599
67.735 13.775242
67.740 13.741629
67.745 13.159237
67.750 13.00935
67.755 12.445061
67.760 12.286675
67.765 12.427687
67.770 12.537656
67.775 12.714119
67.780 12.689166
67.785 12.463884
67.790 13.312242
67.795 13.581365
67.800 13.805952
67.805 14.235066
67.810 14.347811
67.815 15.095962
67.820 15.530449
67.825 15.265874
67.830 15.573827
67.835 15.719697
67.840 15.864752
67.845 15.702827
67.850 15.792894
67.855 15.770938
67.860 15.900267
67.865 15.769419
67.870 15.185857
67.875 14.71343
67.880 14.506275
67.885 14.247565
67.890 14.474114
67.895 14.671201
67.900 14.609321
67.905 15.13905
67.910 15.632155
67.915 15.441876
67.920 15.17434
67.925 14.801342
67.930 14.428714
67.935 14.120084
67.940 14.27129
67.945 14.052664
67.950 14.070178
67.955 14.125836
67.960 14.261876
67.965 14.40397
67.970 14.626502
67.975 14.483824
67.980 14.374016
67.985 14.226649
67.990 13.706183
67.995 13.283495
68.000 13.593252
68.005 13.306227
68.010 12.842512
68.015 13.13971
68.020 13.445719
68.025 14.151632
68.030 14.689908
68.035 14.39917
68.040 14.623149
68.045 14.526423
68.050 14.280739
68.055 14.116668
68.060 14.180575
68.065 14.066901
68.070 14.745822
68.075 14.552795
68.080 14.849127
68.085 14.786116
68.090 14.93445
68.095 14.594193
68.100 14.455711
68.105 13.317819
68.110 12.879852
68.115 12.762076
68.120 12.976144
68.125 13.01094
68.130 13.009895
68.135 13.439481
68.140 13.285641
68.145 13.64948
68.150 13.660578
68.155 13.396605
68.160 13.165383
68.165 12.871611
68.170 12.080964
68.175 13.20499
68.180 13.147731
68.185 13.489428
68.190 13.891205
68.195 13.866813
68.200 14.249849
68.205 14.974585
68.210 15.222861
68.215 15.921527
68.220 15.322079
68.225 14.993336
68.230 15.308939
68.235 15.010859
68.240 15.115711
68.245 14.68171
68.250 14.024266
68.255 14.345464
68.260 14.352835
68.265 14.427198
68.270 14.595837
68.275 13.766151
68.280 13.192476
68.285 13.155292
68.290 12.970671
68.295 12.673747
68.300 12.679626
68.305 12.934556
68.310 13.422255
68.315 14.20209
68.320 15.127327
68.325 15.357732
68.330 15.400812
68.335 14.908604
68.340 15.039493
68.345 15.040889
68.350 14.576078
68.355 14.262678
68.360 14.170582
68.365 13.984534
68.370 13.839176
68.375 13.942766
68.380 14.2001
68.385 13.740872
68.390 13.286228
68.395 13.475275
68.400 13.953936
68.405 13.922087
68.410 13.659798
68.415 13.039102
68.420 13.123975
68.425 13.528964
68.430 13.575109
68.435 13.303546
68.440 13.100991
68.445 12.918162
68.450 12.933055
68.455 12.453045
68.460 12.148184
68.465 11.91502
68.470 12.853121
68.475 13.468167
68.480 13.706572
68.485 14.207519
68.490 14.457493
68.495 14.820249
68.500 14.698973
68.505 13.874093
68.510 13.65645
68.515 13.827454
68.520 13.467482
68.525 13.76001
68.530 13.855629
68.535 14.307615
68.540 14.809825
68.545 15.046197
68.550 15.052921
68.555 15.283962
68.560 15.146328
68.565 14.981733
68.570 14.349818
68.575 13.990806
68.580 13.509485
68.585 13.451166
68.590 13.523486
68.595 13.566777
68.600 13.798174
68.605 13.838667
68.610 13.963831
68.615 14.222062
68.620 14.617053
68.625 14.987983
68.630 14.84538
68.635 14.636039
68.640 14.914536
68.645 14.820851
68.650 14.622693
68.655 14.082301
68.660 14.273647
68.665 13.956561
68.670 13.864318
68.675 13.961051
68.680 14.526058
68.685 14.965913
68.690 14.96044
68.695 14.715547
68.700 14.83559
68.705 15.196775
68.710 15.289145
68.715 14.729074
68.720 14.591504
68.725 14.05577
68.730 14.189203
68.735 14.389754
68.740 13.934963
68.745 14.164836
68.750 14.534334
68.755 14.503453
68.760 15.18293
68.765 14.8576
68.770 14.742048
68.775 14.797655
68.780 14.429608
68.785 13.850477
68.790 13.947669
68.795 13.993357
68.800 13.875013
68.805 13.982553
68.810 13.92974
68.815 13.599525
68.820 13.553086
68.825 13.394232
68.830 13.897405
68.835 14.787987
68.840 15.17688
68.845 15.529046
68.850 16.185772
68.855 16.630558
68.860 16.498055
68.865 16.272129
68.870 16.15963
68.875 16.04233
68.880 15.988301
68.885 15.728537
68.890 15.647343
68.895 15.706591
68.900 15.207762
68.905 14.823906
68.910 15.10105
68.915 15.310224
68.920 15.628697
68.925 15.483601
68.930 15.419333
68.935 15.155232
68.940 14.88813
68.945 14.294635
68.950 13.92587
68.955 14.128499
68.960 14.426996
68.965 14.978361
68.970 15.60082
68.975 15.870943
68.980 16.530285
68.985 16.618826
68.990 16.184875
68.995 15.999935
69.000 16.095028
69.005 16.210686
69.010 15.923552
69.015 15.178111
69.020 14.942321
69.025 15.914607
69.030 16.420397
69.035 16.039925
69.040 16.112408
69.045 16.136992
69.050 16.241364
69.055 16.166553
69.060 15.485096
69.065 15.154873
69.070 15.482215
69.075 15.611972
69.080 15.753202
69.085 15.940928
69.090 16.402868
69.095 16.785606
69.100 17.553558
69.105 17.736095
69.110 17.788223
69.115 18.571939
69.120 18.622684
69.125 18.380043
69.130 17.915657
69.135 17.243322
69.140 17.137154
69.145 16.63479
69.150 16.146292
69.155 16.409428
69.160 16.141607
69.165 15.902233
69.170 16.106546
69.175 15.557627
69.180 15.852284
69.185 16.016823
69.190 15.714781
69.195 16.214241
69.200 16.896561
69.205 16.921267
69.210 17.524576
69.215 17.794857
69.220 17.807484
69.225 18.240568
69.230 18.492706
69.235 18.258892
69.240 18.505281
69.245 18.352848
69.250 17.636074
69.255 17.460232
69.260 16.965857
69.265 16.411539
69.270 16.505482
69.275 16.714542
69.280 17.005701
69.285 17.352377
69.290 17.521545
69.295 17.439123
69.300 17.689898
69.305 17.903345
69.310 18.135216
69.315 18.320169
69.320 18.667894
69.325 18.813444
69.330 19.382929
69.335 19.477758
69.340 18.853834
69.345 18.843369
69.350 19.300499
69.355 19.184416
69.360 19.528255
69.365 19.700327
69.370 19.839617
69.375 20.216883
69.380 20.049946
69.385 20.296898
69.390 20.860338
69.395 20.767517
69.400 20.653923
69.405 20.464956
69.410 20.005579
69.415 19.765524
69.420 19.704838
69.425 19.448788
69.430 19.700811
69.435 19.859581
69.440 20.244766
69.445 20.728085
69.450 20.750839
69.455 20.275513
69.460 20.01696
69.465 19.657055
69.470 20.335684
69.475 20.411016
69.480 20.409874
69.485 20.14562
69.490 20.370361
69.495 20.849037
69.500 21.516796
69.505 21.188223
69.510 20.815374
69.515 21.202383
69.520 21.013447
69.525 20.899691
69.530 20.548489
69.535 20.090906
69.540 20.611464
69.545 20.89534
69.550 20.750113
69.555 20.627607
69.560 20.559938
69.565 20.216251
69.570 20.297272
69.575 20.124643
69.580 19.455734
69.585 19.674149
69.590 20.463753
69.595 20.393373
69.600 20.739733
69.605 20.2463
69.610 20.330647
69.615 20.24604
69.620 20.49193
69.625 20.270634
69.630 20.445208
69.635 20.001858
69.640 20.067379
69.645 20.029671
69.650 20.032961
69.655 19.848055
69.660 19.335644
69.665 19.141838
69.670 19.28632
69.675 19.093866
69.680 19.330975
69.685 19.133408
69.690 19.079445
69.695 19.230721
69.700 19.477139
69.705 19.226685
69.710 18.512157
69.715 18.255278
69.720 18.561993
69.725 18.264761
69.730 18.083979
69.735 17.914425
69.740 18.425577
69.745 18.517096
69.750 18.079985
69.755 17.711838
69.760 18.14464
69.765 18.401937
69.770 17.929306
69.775 17.59156
69.780 17.379572
69.785 17.419167
69.790 17.062963
69.795 17.019594
69.800 16.732662
69.805 16.919277
69.810 16.62652
69.815 17.06986
69.820 17.209538
69.825 17.380005
69.830 17.22435
69.835 16.88504
69.840 16.639324
69.845 17.058424
69.850 16.606403
69.855 16.489355
69.860 15.657204
69.865 15.545035
69.870 15.655721
69.875 15.629592
69.880 15.179565
69.885 15.523185
69.890 15.315915
69.895 15.111993
69.900 15.137638
69.905 15.448079
69.910 15.471929
69.915 15.397087
69.920 15.358642
69.925 15.40615
69.930 15.649916
69.935 15.933794
69.940 15.520309
69.945 15.340556
69.950 15.646477
69.955 15.440337
69.960 15.509054
69.965 15.372696
69.970 14.900537
69.975 14.756727
69.980 14.694548
69.985 14.794616
69.990 15.230003
69.995 15.348178
70.000 15.981118
70.005 16.382544
70.010 17.001778
70.015 16.802816
70.020 16.443228
70.025 15.815708
70.030 15.594299
70.035 13.955366
70.040 13.43771
70.045 13.397104
70.050 13.306274
70.055 13.135856
70.060 13.366624
70.065 13.559268
70.070 14.552732
70.075 14.274006
70.080 13.761642
70.085 14.020742
70.090 14.065885
70.095 13.942925
70.100 13.969239
70.105 13.82927
70.110 14.09395
70.115 14.072909
70.120 14.36605
70.125 14.394934
70.130 14.145416
70.135 13.741639
70.140 13.363042
70.145 13.232882
70.150 13.079346
70.155 12.804975
70.160 13.02853
70.165 12.875715
70.170 13.157557
70.175 13.257253
70.180 13.432152
70.185 14.080804
70.190 14.148272
70.195 14.315001
70.200 14.802157
70.205 14.888011
70.210 15.422232
70.215 14.933823
70.220 14.963262
70.225 14.992911
70.230 14.82822
70.235 14.658899
70.240 14.813575
70.245 14.768976
70.250 15.17097
70.255 14.810709
70.260 14.473368
70.265 14.704068
70.270 14.669642
70.275 14.362022
70.280 13.916672
70.285 13.698692
70.290 13.528317
70.295 13.616315
70.300 12.893605
70.305 12.403223
70.310 12.053288
70.315 12.165346
70.320 12.400467
70.325 12.22128
70.330 12.596664
70.335 12.585732
70.340 13.29451
70.345 13.529062
70.350 13.301381
70.355 13.16707
70.360 13.01954
70.365 13.090853
70.370 13.389567
70.375 13.219453
70.380 13.319901
70.385 13.473957
70.390 13.399861
70.395 13.972961
70.400 13.96077
70.405 13.580331
70.410 13.482358
70.415 13.569994
70.420 13.606752
70.425 13.510416
70.430 13.439322
70.435 13.820954
70.440 14.383582
70.445 14.532633
70.450 14.545909
70.455 14.729134
70.460 14.917562
70.465 14.866362
70.470 14.941712
70.475 14.922551
70.480 14.976261
70.485 15.22096
70.490 15.064701
70.495 14.556425
70.500 14.018719
70.505 13.762798
70.510 13.743817
70.515 13.886865
70.520 14.018787
70.525 14.319219
70.530 14.89906
70.535 14.808165
70.540 14.677378
70.545 14.951602
70.550 14.738121
70.555 14.299408
70.560 13.94777
70.565 14.180179
70.570 14.825738
70.575 15.02955
70.580 14.592632
70.585 14.711702
70.590 14.847449
70.595 14.813659
70.600 14.585384
70.605 14.054292
70.610 14.039865
70.615 14.109139
70.620 14.11073
70.625 14.030122
70.630 13.860482
70.635 14.171351
70.640 14.601234
70.645 14.238904
70.650 13.355865
70.655 12.931208
70.660 13.199246
70.665 13.065695
70.670 12.394188
70.675 12.196216
70.680 12.409109
70.685 12.655834
70.690 12.749634
70.695 12.824433
70.700 12.903374
70.705 12.986636
70.710 12.859222
70.715 12.596099
70.720 12.506275
70.725 12.752501
70.730 12.516433
70.735 12.287078
70.740 12.237135
70.745 12.132936
70.750 12.710685
70.755 12.716681
70.760 12.366013
70.765 12.635929
70.770 13.330609
70.775 13.787892
70.780 13.829213
70.785 13.720306
70.790 14.198659
70.795 14.207056
70.800 13.876736
70.805 12.996464
70.810 12.348652
70.815 12.484618
70.820 12.820642
70.825 12.810437
70.830 13.175445
70.835 13.205506
70.840 13.809133
70.845 14.145262
70.850 14.177277
70.855 14.117117
70.860 13.965711
70.865 13.540265
70.870 13.287715
70.875 13.423774
70.880 13.590816
70.885 13.087666
70.890 13.026758
70.895 12.996938
70.900 13.043877
70.905 13.289827
70.910 13.091668
70.915 12.977076
70.920 12.898038
70.925 13.123562
70.930 13.053932
70.935 13.304846
70.940 13.10139
70.945 13.167543
70.950 13.413487
70.955 13.60222
70.960 13.568534
70.965 13.489275
70.970 13.406913
70.975 13.093836
70.980 13.058283
70.985 13.019559
70.990 13.118198
70.995 12.788844
71.000 12.999708
71.005 12.984121
71.010 13.307866
71.015 13.12289
71.020 12.664502
71.025 12.51524
71.030 12.964494
71.035 13.269225
71.040 13.011324
71.045 12.897747
71.050 13.17908
71.055 13.619363
71.060 14.172072
71.065 13.81823
71.070 13.72196
71.075 13.984602
71.080 13.653793
71.085 13.58034
71.090 13.465755
71.095 12.490927
71.100 12.209623
71.105 12.619727
71.110 12.878173
71.115 13.079879
71.120 13.511014
71.125 13.307701
71.130 13.676679
71.135 13.835388
71.140 13.456998
71.145 13.197779
71.150 12.739632
71.155 12.477426
71.160 12.915577
71.165 12.972977
71.170 12.613544
71.175 12.570699
71.180 12.793129
71.185 12.803524
71.190 13.05554
71.195 12.94694
71.200 13.026716
71.205 13.597053
71.210 13.885992
71.215 14.073525
71.220 14.094746
71.225 14.171784
71.230 14.441908
71.235 14.371499
71.240 13.790783
71.245 13.537916
71.250 13.875128
71.255 13.774362
71.260 13.265518
71.265 13.529503
71.270 14.053065
71.275 14.363515
71.280 14.380388
71.285 14.279107
71.290 14.473895
71.295 14.350648
71.300 13.663403
71.305 13.755308
71.310 14.012958
71.315 13.515124
71.320 13.452425
71.325 13.36904
71.330 13.466274
71.335 13.67093
71.340 13.475105
71.345 13.216468
71.350 13.582455
71.355 13.374929
71.360 13.344807
71.365 13.223151
71.370 12.568488
71.375 12.277848
71.380 12.028154
71.385 11.51104
71.390 11.527771
71.395 11.684985
71.400 11.92909
71.405 12.464834
71.410 12.688966
71.415 12.89476
71.420 12.969357
71.425 12.618055
71.430 12.693544
71.435 12.297559
71.440 11.995939
71.445 11.97239
71.450 12.053897
71.455 12.546712
71.460 13.208239
71.465 13.274097
71.470 13.349812
71.475 13.116948
71.480 13.269428
71.485 13.902658
71.490 13.522402
71.495 12.949295
71.500 13.068823
71.505 12.848795
71.510 12.869137
71.515 12.280241
71.520 11.964041
71.525 11.86205
71.530 12.069856
71.535 11.445189
71.540 12.019528
71.545 12.305328
71.550 12.547176
71.555 12.669211
71.560 12.949604
71.565 13.114266
71.570 13.649383
71.575 13.900554
71.580 13.75388
71.585 13.720343
71.590 13.757557
71.595 13.835851
71.600 13.659403
71.605 13.672305
71.610 13.816346
71.615 14.212503
71.620 14.511422
71.625 14.261667
71.630 14.13756
71.635 13.859242
71.640 13.100454
71.645 12.722532
71.650 12.386845
71.655 12.045377
71.660 12.323303
71.665 12.243614
71.670 12.517338
71.675 12.712001
71.680 12.943097
71.685 13.200166
71.690 13.201488
71.695 12.906685
71.700 12.815728
71.705 12.642237
71.710 12.201041
71.715 12.092846
71.720 12.603751
71.725 12.610183
71.730 12.667884
71.735 12.614021
71.740 12.74314
71.745 12.607258
71.750 12.369848
71.755 11.510545
71.760 11.382756
71.765 11.67736
71.770 12.401992
71.775 12.832797
71.780 13.127739
71.785 13.473518
71.790 13.426628
71.795 13.827724
71.800 13.454728
71.805 13.309743
71.810 13.435812
71.815 12.926952
71.820 13.176229
71.825 13.233758
71.830 12.821771
71.835 12.901611
71.840 12.388759
71.845 12.21733
71.850 11.952793
71.855 11.551319
71.860 11.430077
71.865 11.420376
71.870 11.654676
71.875 12.400797
71.880 12.75019
71.885 12.87428
71.890 13.153524
71.895 13.224878
71.900 13.48929
71.905 13.165092
71.910 13.326344
71.915 13.565566
71.920 13.20492
71.925 13.047859
71.930 12.805644
71.935 12.770638
71.940 12.423113
71.945 12.2907
71.950 12.293275
71.955 12.627388
71.960 12.36963
71.965 12.676707
71.970 12.593909
71.975 12.17095
71.980 11.252934
71.985 11.474152
71.990 11.595594
71.995 11.961087
72.000 11.971175
72.005 12.03125
72.010 12.831466
72.015 13.127447
72.020 12.879002
72.025 13.2633
72.030 12.889481
72.035 12.842917
72.040 12.639386
72.045 12.628
72.050 12.535402
72.055 12.136997
72.060 11.609355
72.065 11.604309
72.070 11.87822
72.075 12.246804
72.080 12.303156
72.085 12.362243
72.090 12.891313
72.095 13.339331
72.100 13.236981
72.105 12.849916
72.110 12.865357
72.115 12.788289
72.120 12.924448
72.125 12.300147
72.130 12.299384
72.135 12.279934
72.140 12.590624
72.145 12.129617
72.150 11.875011
72.155 12.150893
72.160 12.767233
72.165 12.751925
72.170 12.789716
72.175 12.739148
72.180 13.488121
72.185 13.77049
72.190 13.659943
72.195 13.404262
72.200 13.511696
72.205 13.345428
72.210 13.259983
72.215 12.932833
72.220 12.885417
72.225 12.624205
72.230 12.744137
72.235 12.775259
72.240 12.866609
72.245 12.582667
72.250 12.024882
72.255 12.038601
72.260 12.312912
72.265 12.386148
72.270 12.214956
72.275 12.078162
72.280 12.386707
72.285 12.914627
72.290 13.002486
72.295 13.137002
72.300 13.334932
72.305 13.74122
72.310 13.699542
72.315 13.952225
72.320 14.101871
72.325 14.153453
72.330 14.260981
72.335 14.287111
72.340 14.466619
72.345 14.81709
72.350 14.278189
72.355 14.006634
72.360 13.569715
72.365 13.372686
72.370 13.071487
72.375 12.864346
72.380 12.805593
72.385 13.47139
72.390 13.250668
72.395 12.869341
72.400 12.633473
72.405 12.703658
72.410 12.294527
72.415 12.059954
72.420 11.518251
72.425 11.505013
72.430 11.72929
72.435 11.709247
72.440 12.021036
72.445 12.364501
72.450 11.992447
72.455 12.426515
72.460 12.704389
72.465 13.019455
72.470 13.108189
72.475 13.413224
72.480 13.676396
72.485 14.133354
72.490 14.114757
72.495 13.551033
72.500 13.132385
72.505 12.748054
72.510 12.241078
72.515 12.317227
72.520 11.601573
72.525 12.072898
72.530 12.184703
72.535 12.427679
72.540 12.803075
72.545 12.62152
72.550 12.769747
72.555 13.319777
72.560 13.420521
72.565 13.829228
72.570 13.629073
72.575 12.990584
72.580 13.181421
72.585 13.200143
72.590 12.743248
72.595 12.632912
72.600 12.243601
72.605 12.796124
72.610 13.135249
72.615 13.049762
72.620 12.855412
72.625 12.908213
72.630 12.806075
72.635 12.853356
72.640 12.798712
72.645 13.420492
72.650 12.855102
72.655 13.156415
72.660 13.140051
72.665 13.415098
72.670 13.886194
72.675 13.349108
72.680 12.806832
72.685 12.814855
72.690 12.780551
72.695 12.230268
72.700 11.724147
72.705 11.533259
72.710 11.33651
72.715 11.377516
72.720 11.197752
72.725 10.560087
72.730 10.845325
72.735 10.939068
72.740 10.785079
72.745 10.658691
72.750 10.851566
72.755 11.034736
72.760 11.672807
72.765 11.570512
72.770 11.245156
72.775 11.860644
72.780 11.974895
72.785 12.038112
72.790 12.129252
72.795 11.686493
72.800 11.553977
72.805 11.804476
72.810 11.480194
72.815 11.432289
72.820 11.26345
72.825 11.742075
72.830 12.066626
72.835 12.612188
72.840 12.500446
72.845 12.7543
72.850 12.618331
72.855 12.406777
72.860 11.750685
72.865 12.219198
72.870 12.44786
72.875 12.501301
72.880 12.527379
72.885 12.329805
72.890 13.447256
72.895 14.103209
72.900 13.640576
72.905 13.082208
72.910 12.855829
72.915 13.113956
72.920 13.41782
72.925 11.915852
72.930 11.471971
72.935 11.884205
72.940 12.270557
72.945 12.33275
72.950 11.790371
72.955 11.883428
72.960 12.595923
72.965 12.701682
72.970 12.745859
72.975 12.746701
72.980 13.472249
72.985 14.075363
72.990 14.55573
72.995 13.83388
73.000 13.425207
