!@!!GADDS PLOTSO FILE: Chi integration type
!@!!Title/SampleName: map-41
!@!!Comment: ?
!@!!User: Bruker Instrument Administrator
!@!!Site: University of Illinois Chicago
!@!!Frame: map-41_01_000.gfrm
!@!!Wavelengths    1.54184   1.54056   1.54439
!@!!Frame angles: 2Theta: 63.000 Omega: 50.000 Phi: 0.000 Chi: 90.000
!@!!Integration range: 2Theta: 53.000 to 73.000  Gamma: -105.000 to -75.000
!@!!Integration method: bin normalized
!@!N
!@!SS
!@!M
!@!L 0.0 0.0 0.0 0.0
!@!XDegrees
!@!YCounts
53.000 8.09339
53.005 8.29134
53.010 8.046247
53.015 7.29915
53.020 7.112334
53.025 7.342861
53.030 6.968684
53.035 7.071571
53.040 7.180508
53.045 7.546386
53.050 7.807692
53.055 7.784225
53.060 7.724504
53.065 7.597144
53.070 7.354803
53.075 7.337353
53.080 7.406261
53.085 7.557143
53.090 7.74205
53.095 7.934803
53.100 8.503155
53.105 8.601974
53.110 8.624976
53.115 8.519547
53.120 8.292326
53.125 8.429646
53.130 8.368162
53.135 7.650936
53.140 7.391435
53.145 7.201951
53.150 7.366747
53.155 7.109929
53.160 6.940981
53.165 7.067724
53.170 7.29644
53.175 7.422535
53.180 7.276317
53.185 7.234166
53.190 7.544611
53.195 7.040151
53.200 7.147963
53.205 7.010521
53.210 7.325589
53.215 7.273478
53.220 7.648555
53.225 8.111759
53.230 8.64895
53.235 8.555952
53.240 8.695877
53.245 8.256946
53.250 8.131174
53.255 8.114369
53.260 8.329473
53.265 8.41707
53.270 8.603779
53.275 8.700371
53.280 8.804621
53.285 9.045483
53.290 8.828091
53.295 8.261053
53.300 8.230758
53.305 8.083918
53.310 7.936719
53.315 8.360478
53.320 8.399382
53.325 8.434953
53.330 8.515002
53.335 8.205393
53.340 8.336001
53.345 8.526106
53.350 8.018196
53.355 7.587571
53.360 7.379499
53.365 7.518183
53.370 7.805175
53.375 7.698129
53.380 7.569364
53.385 7.286933
53.390 7.73779
53.395 7.979639
53.400 7.883909
53.405 7.830458
53.410 8.129692
53.415 8.302121
53.420 8.371132
53.425 8.003741
53.430 7.740841
53.435 7.437484
53.440 7.228729
53.445 6.97311
53.450 6.991114
53.455 7.08937
53.460 7.007371
53.465 7.194889
53.470 7.305109
53.475 7.42933
53.480 7.379673
53.485 7.441732
53.490 7.476029
53.495 7.101654
53.500 7.45401
53.505 7.966286
53.510 8.217469
53.515 8.509724
53.520 8.464837
53.525 8.734648
53.530 8.912919
53.535 8.537106
53.540 7.698972
53.545 7.514544
53.550 7.885561
53.555 8.221797
53.560 8.250045
53.565 8.273845
53.570 8.574202
53.575 8.826507
53.580 8.547968
53.585 7.836674
53.590 7.484414
53.595 7.561007
53.600 7.782287
53.605 7.766979
53.610 8.197668
53.615 8.466259
53.620 8.703638
53.625 8.973253
53.630 9.486666
53.635 9.096028
53.640 9.123002
53.645 9.014492
53.650 8.729309
53.655 8.567802
53.660 8.051294
53.665 7.711339
53.670 7.843132
53.675 7.695842
53.680 7.931072
53.685 8.269392
53.690 8.502438
53.695 8.691836
53.700 8.799965
53.705 8.704129
53.710 8.455973
53.715 8.126494
53.720 8.146486
53.725 8.122086
53.730 7.637141
53.735 7.389958
53.740 7.690629
53.745 8.088907
53.750 8.20022
53.755 8.310684
53.760 8.368865
53.765 8.670284
53.770 8.798552
53.775 8.335151
53.780 8.138371
53.785 8.264274
53.790 8.308273
53.795 8.230364
53.800 8.00255
53.805 8.234334
53.810 8.643947
53.815 8.768995
53.820 8.324005
53.825 8.417793
53.830 8.703455
53.835 8.54732
53.840 8.271917
53.845 8.273267
53.850 8.652685
53.855 9.120031
53.860 9.312045
53.865 9.291355
53.870 9.81764
53.875 10.269467
53.880 10.061388
53.885 10.072948
53.890 9.596498
53.895 9.021995
53.900 8.739455
53.905 8.222637
53.910 7.835666
53.915 7.505195
53.920 7.495656
53.925 7.634324
53.930 7.583817
53.935 7.924358
53.940 8.037007
53.945 8.115203
53.950 8.550682
53.955 8.790183
53.960 8.878335
53.965 8.970439
53.970 8.864179
53.975 9.046992
53.980 9.275119
53.985 8.814562
53.990 8.809634
53.995 9.5554
54.000 9.552308
54.005 9.662282
54.010 9.908207
54.015 10.212628
54.020 10.433422
54.025 10.246504
54.030 9.796266
54.035 9.984725
54.040 9.97504
54.045 9.812534
54.050 9.415062
54.055 8.998957
54.060 8.949239
54.065 9.100796
54.070 8.951005
54.075 8.761264
54.080 8.741515
54.085 8.776505
54.090 8.78574
54.095 8.949451
54.100 8.785828
54.105 8.378859
54.110 8.216271
54.115 8.160604
54.120 8.614671
54.125 9.377086
54.130 9.199702
54.135 9.408527
54.140 9.845044
54.145 9.87743
54.150 9.898376
54.155 9.765916
54.160 9.299351
54.165 9.422698
54.170 9.280561
54.175 9.114559
54.180 8.992412
54.185 8.742134
54.190 8.572143
54.195 8.695708
54.200 9.066529
54.205 9.583918
54.210 9.585715
54.215 9.767833
54.220 10.093336
54.225 9.824365
54.230 9.593307
54.235 9.434362
54.240 9.311417
54.245 9.471809
54.250 9.430662
54.255 9.071234
54.260 9.184106
54.265 9.14107
54.270 9.065578
54.275 8.692163
54.280 8.322168
54.285 8.362387
54.290 8.844982
54.295 9.016438
54.300 9.1057
54.305 9.100528
54.310 9.272734
54.315 9.627425
54.320 8.992099
54.325 8.920077
54.330 8.797526
54.335 8.380531
54.340 8.500276
54.345 8.295738
54.350 8.316051
54.355 8.528848
54.360 8.199044
54.365 8.60943
54.370 9.001195
54.375 9.181561
54.380 9.572138
54.385 9.642223
54.390 10.150957
54.395 10.731161
54.400 10.574219
54.405 10.730003
54.410 10.486166
54.415 10.290878
54.420 9.864622
54.425 9.118356
54.430 8.496224
54.435 8.482553
54.440 8.497617
54.445 9.114449
54.450 9.291142
54.455 9.897692
54.460 10.22956
54.465 10.494766
54.470 10.563761
54.475 10.141937
54.480 9.811072
54.485 9.597311
54.490 9.657763
54.495 9.439368
54.500 9.131636
54.505 9.122652
54.510 8.969801
54.515 8.718038
54.520 8.91648
54.525 8.867669
54.530 9.278663
54.535 9.211118
54.540 8.7132
54.545 8.819026
54.550 8.77871
54.555 8.317511
54.560 8.400788
54.565 8.33909
54.570 8.660096
54.575 9.112676
54.580 9.287231
54.585 9.540971
54.590 9.910295
54.595 9.724005
54.600 9.822043
54.605 9.912983
54.610 9.775288
54.615 9.492513
54.620 9.082095
54.625 9.001291
54.630 9.093056
54.635 8.878083
54.640 9.09964
54.645 9.410501
54.650 9.719341
54.655 10.170208
54.660 9.845075
54.665 9.641141
54.670 9.583949
54.675 9.696038
54.680 9.710339
54.685 9.625653
54.690 9.453474
54.695 9.662055
54.700 9.636293
54.705 9.522351
54.710 9.399799
54.715 9.132892
54.720 9.012528
54.725 8.770496
54.730 8.83949
54.735 9.175124
54.740 9.050914
54.745 9.284335
54.750 9.581641
54.755 9.604548
54.760 9.739801
54.765 9.815133
54.770 9.993238
54.775 9.695195
54.780 9.398308
54.785 9.282344
54.790 9.566148
54.795 9.918568
54.800 10.270135
54.805 10.040936
54.810 10.563976
54.815 10.845246
54.820 11.12729
54.825 10.604235
54.830 10.540275
54.835 10.497228
54.840 10.33217
54.845 9.977943
54.850 10.447294
54.855 10.329172
54.860 10.716193
54.865 10.153032
54.870 10.235178
54.875 10.432069
54.880 10.557996
54.885 10.207651
54.890 10.769151
54.895 10.911975
54.900 11.077356
54.905 10.925423
54.910 11.39434
54.915 11.186944
54.920 11.180573
54.925 10.589148
54.930 10.298948
54.935 10.434515
54.940 10.410876
54.945 10.347287
54.950 10.359116
54.955 9.98654
54.960 9.870034
54.965 9.752058
54.970 9.830134
54.975 10.049823
54.980 10.146533
54.985 10.237314
54.990 10.281754
54.995 10.280772
55.000 10.420892
55.005 9.947164
55.010 9.786975
55.015 9.328325
55.020 9.475342
55.025 9.763194
55.030 10.164909
55.035 10.140002
55.040 10.128428
55.045 9.83747
55.050 10.034054
55.055 9.583568
55.060 9.668192
55.065 9.337271
55.070 9.505102
55.075 9.749698
55.080 9.522706
55.085 8.874867
55.090 9.02127
55.095 9.424597
55.100 9.67939
55.105 9.441436
55.110 9.06567
55.115 9.016593
55.120 9.525043
55.125 9.223991
55.130 8.858719
55.135 9.030326
55.140 9.231743
55.145 9.658605
55.150 10.181671
55.155 10.149866
55.160 10.101064
55.165 10.047211
55.170 9.674815
55.175 10.01146
55.180 10.360577
55.185 10.612641
55.190 11.033167
55.195 10.975789
55.200 11.248803
55.205 11.851441
55.210 11.790061
55.215 11.442711
55.220 11.285872
55.225 11.07795
55.230 11.047
55.235 10.201342
55.240 9.104079
55.245 8.637385
55.250 8.357255
55.255 8.396472
55.260 8.512425
55.265 8.818171
55.270 9.581185
55.275 9.894552
55.280 9.833623
55.285 9.879608
55.290 9.913844
55.295 9.854866
55.300 10.03783
55.305 9.774883
55.310 9.852835
55.315 9.945561
55.320 9.835594
55.325 9.628743
55.330 9.263165
55.335 8.626698
55.340 8.524282
55.345 9.05628
55.350 9.266014
55.355 9.322672
55.360 9.659192
55.365 10.300324
55.370 10.705081
55.375 10.975229
55.380 11.36421
55.385 11.479715
55.390 11.35164
55.395 11.809751
55.400 11.392064
55.405 11.776604
55.410 11.371388
55.415 10.857213
55.420 11.006517
55.425 11.280038
55.430 11.25527
55.435 11.554345
55.440 10.985676
55.445 11.229332
55.450 11.133522
55.455 10.857306
55.460 10.129513
55.465 9.713048
55.470 9.763695
55.475 9.973869
55.480 9.902266
55.485 9.979364
55.490 9.805382
55.495 10.53308
55.500 10.873311
55.505 11.23715
55.510 11.370824
55.515 11.079463
55.520 11.591666
55.525 12.067335
55.530 11.530355
55.535 11.223229
55.540 10.695034
55.545 10.730958
55.550 11.247007
55.555 10.769152
55.560 10.225595
55.565 10.27677
55.570 10.452585
55.575 10.325991
55.580 10.023359
55.585 9.939602
55.590 10.148419
55.595 11.066111
55.600 11.611438
55.605 11.82584
55.610 12.746512
55.615 12.923254
55.620 13.074023
55.625 12.853326
55.630 12.526721
55.635 12.240534
55.640 11.773275
55.645 11.412471
55.650 11.335968
55.655 11.207634
55.660 11.307614
55.665 11.451344
55.670 11.255187
55.675 11.070838
55.680 11.031032
55.685 10.855001
55.690 10.766794
55.695 10.444647
55.700 9.953506
55.705 10.433418
55.710 10.506297
55.715 10.455814
55.720 10.548285
55.725 10.501451
55.730 10.814587
55.735 11.231992
55.740 11.041846
55.745 11.363775
55.750 11.682819
55.755 11.905747
55.760 12.062387
55.765 11.710374
55.770 11.281886
55.775 11.098517
55.780 10.605206
55.785 10.213909
55.790 10.335794
55.795 10.430902
55.800 10.828876
55.805 10.799443
55.810 11.234354
55.815 11.536694
55.820 11.471949
55.825 10.822412
55.830 10.459165
55.835 10.715578
55.840 10.970806
55.845 10.844618
55.850 10.718044
55.855 11.430746
55.860 12.519037
55.865 13.087642
55.870 12.861431
55.875 12.516815
55.880 12.631645
55.885 12.535076
55.890 12.051541
55.895 11.628914
55.900 11.25536
55.905 11.182783
55.910 11.288018
55.915 11.712078
55.920 12.290453
55.925 11.933074
55.930 11.879776
55.935 11.60815
55.940 12.486965
55.945 12.802071
55.950 12.853589
55.955 12.2992
55.960 12.543804
55.965 12.837754
55.970 12.82329
55.975 12.140923
55.980 11.903872
55.985 11.687706
55.990 11.598505
55.995 11.454017
56.000 11.433846
56.005 11.422396
56.010 11.026359
56.015 10.304702
56.020 10.006587
56.025 9.936635
56.030 10.096096
56.035 10.320375
56.040 10.530823
56.045 10.777061
56.050 11.234324
56.055 11.8993
56.060 11.787154
56.065 11.054574
56.070 10.816702
56.075 10.755048
56.080 10.732031
56.085 10.897336
56.090 10.57594
56.095 11.08811
56.100 11.141227
56.105 10.994304
56.110 11.213651
56.115 11.36606
56.120 11.160493
56.125 11.36212
56.130 11.166232
56.135 11.481579
56.140 12.20607
56.145 12.104938
56.150 12.069416
56.155 12.193187
56.160 12.307409
56.165 12.185678
56.170 12.578557
56.175 12.270255
56.180 11.906654
56.185 11.793769
56.190 11.676469
56.195 11.533113
56.200 11.920476
56.205 11.281659
56.210 11.243135
56.215 11.907447
56.220 11.493953
56.225 11.452866
56.230 11.649949
56.235 11.271163
56.240 11.464188
56.245 11.642138
56.250 11.344753
56.255 11.358113
56.260 11.126006
56.265 10.661074
56.270 10.584397
56.275 10.325966
56.280 10.201074
56.285 10.710244
56.290 11.306563
56.295 11.293767
56.300 11.55682
56.305 11.797031
56.310 12.034374
56.315 11.981152
56.320 11.853952
56.325 11.699665
56.330 11.768764
56.335 11.925587
56.340 11.919076
56.345 11.411474
56.350 11.146279
56.355 11.058513
56.360 11.045719
56.365 11.515084
56.370 11.515046
56.375 11.325413
56.380 11.390218
56.385 11.384775
56.390 11.559472
56.395 11.250363
56.400 10.818705
56.405 10.525859
56.410 10.640985
56.415 10.871929
56.420 10.898108
56.425 10.660177
56.430 10.621781
56.435 10.717904
56.440 10.960885
56.445 11.136246
56.450 11.42142
56.455 11.568565
56.460 11.776733
56.465 11.718184
56.470 11.811485
56.475 11.498816
56.480 11.19899
56.485 10.828278
56.490 11.027806
56.495 11.013329
56.500 10.808459
56.505 10.802777
56.510 10.870469
56.515 11.535999
56.520 11.787753
56.525 11.674449
56.530 12.325389
56.535 12.701981
56.540 12.357594
56.545 12.16038
56.550 11.83223
56.555 12.141339
56.560 12.35622
56.565 12.708482
56.570 12.849996
56.575 13.52101
56.580 13.516253
56.585 13.123445
56.590 12.411178
56.595 11.545195
56.600 11.098701
56.605 11.24052
56.610 10.838757
56.615 11.150361
56.620 11.347507
56.625 11.97275
56.630 12.341853
56.635 11.726359
56.640 11.141462
56.645 11.139713
56.650 11.041618
56.655 10.879418
56.660 10.602169
56.665 10.976827
56.670 11.648019
56.675 12.048539
56.680 12.182995
56.685 12.086528
56.690 12.291584
56.695 12.273025
56.700 12.18695
56.705 12.429624
56.710 12.456528
56.715 13.063233
56.720 13.322274
56.725 13.293158
56.730 13.495058
56.735 13.274652
56.740 13.256431
56.745 13.147841
56.750 12.574099
56.755 12.493547
56.760 12.714946
56.765 13.039228
56.770 13.083495
56.775 13.336341
56.780 13.935494
56.785 13.959239
56.790 13.901892
56.795 13.852988
56.800 13.259025
56.805 12.692633
56.810 12.900298
56.815 12.239485
56.820 12.303562
56.825 12.421181
56.830 12.397367
56.835 12.708994
56.840 12.681624
56.845 11.890385
56.850 12.129934
56.855 12.127529
56.860 12.011088
56.865 11.838761
56.870 11.849898
56.875 12.663054
56.880 13.157681
56.885 13.174891
56.890 13.317576
56.895 13.568733
56.900 13.799402
56.905 13.709901
56.910 13.307491
56.915 13.214766
56.920 12.948795
56.925 12.593953
56.930 12.267013
56.935 12.128607
56.940 12.141988
56.945 12.062385
56.950 12.100728
56.955 12.569119
56.960 12.325405
56.965 12.624977
56.970 12.903659
56.975 13.309101
56.980 13.252398
56.985 13.149155
56.990 13.048488
56.995 12.9822
57.000 13.01258
57.005 12.948125
57.010 12.971603
57.015 13.029584
57.020 13.197696
57.025 13.564861
57.030 13.98174
57.035 13.795332
57.040 13.079438
57.045 12.152559
57.050 12.083092
57.055 12.081911
57.060 11.692429
57.065 11.100008
57.070 11.349453
57.075 12.4466
57.080 13.071339
57.085 12.929159
57.090 12.727777
57.095 13.094152
57.100 13.69625
57.105 13.101
57.110 12.447328
57.115 12.090706
57.120 12.376108
57.125 12.23871
57.130 12.075235
57.135 11.736341
57.140 11.857395
57.145 11.785722
57.150 11.673808
57.155 11.492723
57.160 11.457239
57.165 11.310999
57.170 11.377881
57.175 11.613243
57.180 11.934569
57.185 12.618387
57.190 13.259083
57.195 13.888535
57.200 14.074065
57.205 14.124622
57.210 13.694124
57.215 13.280442
57.220 13.001882
57.225 12.40548
57.230 12.139504
57.235 11.971358
57.240 11.79099
57.245 12.124095
57.250 12.293412
57.255 12.604807
57.260 12.596106
57.265 12.6995
57.270 13.037862
57.275 13.401571
57.280 13.612556
57.285 13.155469
57.290 13.075432
57.295 13.253111
57.300 13.264977
57.305 12.814278
57.310 12.923194
57.315 13.527949
57.320 14.493819
57.325 14.989707
57.330 15.352294
57.335 14.920649
57.340 15.102027
57.345 15.072944
57.350 14.611663
57.355 13.751473
57.360 13.11428
57.365 12.962378
57.370 13.025249
57.375 13.096753
57.380 13.083434
57.385 13.604143
57.390 13.370582
57.395 13.03281
57.400 12.702811
57.405 12.65136
57.410 12.243674
57.415 11.711816
57.420 10.97788
57.425 11.471263
57.430 12.045031
57.435 12.1922
57.440 12.289825
57.445 12.685923
57.450 13.079887
57.455 13.056031
57.460 12.873
57.465 12.612017
57.470 12.87299
57.475 12.659385
57.480 12.124221
57.485 12.385191
57.490 13.077706
57.495 13.315159
57.500 13.497152
57.505 13.533637
57.510 13.994875
57.515 13.866329
57.520 13.285079
57.525 12.875099
57.530 12.551758
57.535 12.584675
57.540 12.540814
57.545 11.995495
57.550 12.491213
57.555 12.748948
57.560 13.08836
57.565 12.462051
57.570 12.465971
57.575 12.491395
57.580 13.025484
57.585 12.998253
57.590 12.870719
57.595 12.749396
57.600 13.616504
57.605 13.682316
57.610 13.792694
57.615 13.854748
57.620 14.279359
57.625 13.953793
57.630 13.803395
57.635 13.381423
57.640 13.194456
57.645 13.133255
57.650 12.726397
57.655 12.120181
57.660 11.877977
57.665 11.895869
57.670 11.935765
57.675 12.010573
57.680 12.168414
57.685 12.032384
57.690 12.274938
57.695 12.590407
57.700 12.430161
57.705 12.213929
57.710 12.085932
57.715 12.061163
57.720 12.472458
57.725 12.635937
57.730 12.565458
57.735 12.818691
57.740 12.938393
57.745 12.839133
57.750 12.779585
57.755 12.712642
57.760 12.863508
57.765 13.336578
57.770 13.187689
57.775 13.235845
57.780 13.20289
57.785 13.561435
57.790 13.801048
57.795 13.862084
57.800 14.018221
57.805 14.213041
57.810 14.596354
57.815 14.995331
57.820 14.634807
57.825 14.871496
57.830 15.051007
57.835 15.022647
57.840 14.710386
57.845 14.641905
57.850 14.706949
57.855 14.499046
57.860 13.607033
57.865 13.044795
57.870 12.827956
57.875 13.185225
57.880 13.046333
57.885 12.791791
57.890 13.088935
57.895 13.500992
57.900 13.571517
57.905 14.051098
57.910 14.112305
57.915 14.556548
57.920 14.621249
57.925 14.426724
57.930 14.398422
57.935 14.00641
57.940 13.460089
57.945 13.099695
57.950 12.653381
57.955 12.560774
57.960 12.620921
57.965 12.480968
57.970 13.100289
57.975 13.408905
57.980 13.800071
57.985 14.107984
57.990 14.242837
57.995 14.262688
58.000 14.581168
58.005 14.407499
58.010 14.184031
58.015 13.780805
58.020 13.607525
58.025 14.003585
58.030 14.06737
58.035 14.037799
58.040 13.842123
58.045 13.51285
58.050 13.81866
58.055 13.613441
58.060 13.072581
58.065 12.945959
58.070 12.934218
58.075 13.323966
58.080 13.859838
58.085 13.655089
58.090 13.453892
58.095 13.411067
58.100 13.490862
58.105 13.862223
58.110 14.01059
58.115 13.514877
58.120 13.78067
58.125 14.352558
58.130 14.080816
58.135 14.214275
58.140 13.953135
58.145 13.297528
58.150 13.061763
58.155 12.849768
58.160 12.641543
58.165 13.09166
58.170 12.847625
58.175 12.710615
58.180 13.267802
58.185 13.902281
58.190 13.484154
58.195 13.751392
58.200 13.699827
58.205 13.940775
58.210 14.239289
58.215 14.275577
58.220 14.192737
58.225 14.93833
58.230 14.835752
58.235 14.917562
58.240 15.237273
58.245 15.320365
58.250 14.772223
58.255 14.452742
58.260 14.108881
58.265 14.296077
58.270 14.349446
58.275 13.994345
58.280 13.225077
58.285 13.312052
58.290 13.505065
58.295 13.673799
58.300 13.446681
58.305 13.660296
58.310 13.646771
58.315 14.162583
58.320 14.548087
58.325 14.64606
58.330 14.712564
58.335 15.48117
58.340 15.33335
58.345 14.964874
58.350 15.327331
58.355 14.82102
58.360 14.677091
58.365 14.380189
58.370 13.527096
58.375 13.479194
58.380 13.627291
58.385 13.720906
58.390 13.877497
58.395 13.96939
58.400 13.908732
58.405 13.810611
58.410 14.032515
58.415 14.21962
58.420 14.555253
58.425 15.063062
58.430 14.982286
58.435 15.241808
58.440 15.431478
58.445 15.07898
58.450 14.707717
58.455 14.574358
58.460 14.53735
58.465 14.582064
58.470 14.479484
58.475 14.308223
58.480 14.963747
58.485 15.620846
58.490 15.833164
58.495 16.100842
58.500 16.352076
58.505 16.542221
58.510 16.730129
58.515 16.460304
58.520 16.045246
58.525 15.410038
58.530 15.285359
58.535 14.935516
58.540 14.552826
58.545 14.459178
58.550 13.829214
58.555 13.110476
58.560 13.447988
58.565 13.251023
58.570 13.231207
58.575 13.667664
58.580 13.299908
58.585 13.673895
58.590 14.152941
58.595 13.729585
58.600 13.860781
58.605 14.62681
58.610 14.486723
58.615 14.609113
58.620 14.548889
58.625 14.46549
58.630 14.984786
58.635 15.043964
58.640 14.542658
58.645 14.166558
58.650 14.291347
58.655 14.337037
58.660 14.139465
58.665 13.871076
58.670 13.385026
58.675 13.025884
58.680 12.716136
58.685 12.612685
58.690 12.506082
58.695 13.083422
58.700 13.000555
58.705 13.026846
58.710 13.502653
58.715 13.788507
58.720 13.935877
58.725 14.144983
58.730 13.412662
58.735 13.190411
58.740 13.810507
58.745 13.969515
58.750 14.290084
58.755 14.543694
58.760 15.129845
58.765 15.586637
58.770 15.411835
58.775 14.720007
58.780 14.438476
58.785 14.027342
58.790 13.565443
58.795 12.966431
58.800 13.29762
58.805 13.488554
58.810 14.047246
58.815 14.246619
58.820 14.540359
58.825 14.707037
58.830 14.777564
58.835 14.462195
58.840 14.359859
58.845 14.324996
58.850 14.215776
58.855 14.109674
58.860 13.847687
58.865 13.858751
58.870 13.682921
58.875 13.814648
58.880 13.704797
58.885 13.673145
58.890 13.773686
58.895 13.509496
58.900 13.235439
58.905 13.219331
58.910 12.841167
58.915 12.782343
58.920 12.894376
58.925 13.033162
58.930 13.472493
58.935 13.89981
58.940 14.104963
58.945 14.857993
58.950 14.514898
58.955 14.089403
58.960 14.184439
58.965 14.000491
58.970 14.019542
58.975 13.784034
58.980 12.951499
58.985 13.352119
58.990 13.412754
58.995 13.60458
59.000 13.643382
59.005 13.707932
59.010 14.349902
59.015 15.21324
59.020 15.282584
59.025 15.859874
59.030 15.929833
59.035 16.176922
59.040 16.210253
59.045 15.722477
59.050 15.559512
59.055 15.801469
59.060 15.794716
59.065 16.01355
59.070 16.644899
59.075 17.143845
59.080 17.28533
59.085 16.979233
59.090 16.906103
59.095 16.839754
59.100 16.789726
59.105 16.161734
59.110 15.419349
59.115 15.182337
59.120 15.145925
59.125 14.852304
59.130 14.63031
59.135 14.732402
59.140 14.896459
59.145 15.29413
59.150 15.320363
59.155 15.065272
59.160 15.367056
59.165 15.383909
59.170 15.287237
59.175 15.176282
59.180 15.039754
59.185 15.007756
59.190 15.098825
59.195 15.283092
59.200 14.982964
59.205 14.687201
59.210 15.02514
59.215 14.894716
59.220 15.175791
59.225 15.451793
59.230 15.27807
59.235 15.657938
59.240 15.826926
59.245 15.804672
59.250 15.921242
59.255 15.681272
59.260 15.65268
59.265 15.806923
59.270 16.054768
59.275 15.961495
59.280 15.726821
59.285 15.425495
59.290 15.282321
59.295 15.754163
59.300 15.485569
59.305 15.29051
59.310 15.420837
59.315 15.54371
59.320 15.975052
59.325 16.169538
59.330 15.856776
59.335 15.887764
59.340 15.618267
59.345 15.388998
59.350 15.411622
59.355 15.376944
59.360 15.633153
59.365 15.586242
59.370 15.504026
59.375 16.130163
59.380 16.292488
59.385 16.362484
59.390 17.231413
59.395 17.074846
59.400 17.012926
59.405 16.871124
59.410 16.581057
59.415 16.790077
59.420 16.727318
59.425 16.048481
59.430 16.406641
59.435 16.42494
59.440 17.035976
59.445 16.81954
59.450 16.617262
59.455 16.657745
59.460 16.912437
59.465 17.314188
59.470 17.47163
59.475 16.878168
59.480 17.085644
59.485 16.836397
59.490 16.921412
59.495 16.719934
59.500 16.367834
59.505 16.283453
59.510 16.384634
59.515 16.296921
59.520 16.446968
59.525 16.295387
59.530 15.862981
59.535 15.70438
59.540 16.220171
59.545 16.585783
59.550 16.644485
59.555 16.705849
59.560 16.616598
59.565 16.894503
59.570 16.553478
59.575 16.335438
59.580 15.979419
59.585 16.106174
59.590 16.136553
59.595 16.184616
59.600 16.501596
59.605 16.551826
59.610 16.4687
59.615 16.440317
59.620 16.588545
59.625 17.045727
59.630 17.04306
59.635 16.843987
59.640 17.277073
59.645 17.397848
59.650 17.996946
59.655 17.912483
59.660 17.769907
59.665 18.083828
59.670 18.13905
59.675 17.93256
59.680 18.60499
59.685 18.847902
59.690 19.485451
59.695 19.809324
59.700 20.360767
59.705 20.708813
59.710 20.918798
59.715 20.262417
59.720 19.600456
59.725 19.426458
59.730 19.553236
59.735 19.069147
59.740 18.651958
59.745 18.644743
59.750 19.348053
59.755 19.659084
59.760 19.13133
59.765 19.105679
59.770 19.285215
59.775 19.424662
59.780 19.243877
59.785 19.369526
59.790 19.617233
59.795 19.550037
59.800 19.362844
59.805 19.124918
59.810 19.356842
59.815 20.139772
59.820 19.771238
59.825 19.825243
59.830 20.5306
59.835 20.452316
59.840 20.986481
59.845 21.179989
59.850 20.901026
59.855 20.865789
59.860 20.401995
59.865 19.89526
59.870 19.747908
59.875 19.937098
59.880 20.190086
59.885 19.659475
59.890 20.03639
59.895 20.385418
59.900 20.548357
59.905 21.067348
59.910 21.073353
59.915 21.625023
59.920 22.460838
59.925 22.32737
59.930 22.76936
59.935 22.717678
59.940 22.089815
59.945 21.330229
59.950 20.14341
59.955 19.787605
59.960 19.86434
59.965 19.968548
59.970 19.95137
59.975 20.265993
59.980 20.929611
59.985 21.453665
59.990 21.08655
59.995 21.001425
60.000 21.225742
60.005 21.659466
60.010 22.350138
60.015 22.293657
60.020 22.090467
60.025 22.381193
60.030 21.83268
60.035 20.678629
60.040 20.872005
60.045 20.98337
60.050 20.926857
60.055 20.961527
60.060 20.957338
60.065 20.967951
60.070 21.506208
60.075 20.888842
60.080 19.953438
60.085 20.23769
60.090 20.0345
60.095 20.117876
60.100 20.3451
60.105 20.174057
60.110 20.725567
60.115 20.424314
60.120 20.126638
60.125 20.67136
60.130 21.246607
60.135 21.101923
60.140 20.737452
60.145 20.766031
60.150 21.850904
60.155 22.028954
60.160 21.281212
60.165 20.724157
60.170 20.896339
60.175 21.129604
60.180 20.873564
60.185 20.88006
60.190 21.151419
60.195 21.075674
60.200 21.521946
60.205 21.566166
60.210 21.378494
60.215 21.495584
60.220 20.477512
60.225 19.927891
60.230 20.494379
60.235 20.057964
60.240 20.451906
60.245 20.867411
60.250 20.756212
60.255 21.904757
60.260 22.891792
60.265 22.582426
60.270 23.075731
60.275 22.699953
60.280 22.158766
60.285 22.011377
60.290 21.012465
60.295 20.01985
60.300 20.207386
60.305 19.871716
60.310 19.870016
60.315 19.912275
60.320 19.397051
60.325 19.304079
60.330 18.911112
60.335 18.697239
60.340 19.10627
60.345 19.455627
60.350 19.5037
60.355 19.63236
60.360 19.646202
60.365 19.783016
60.370 20.017479
60.375 19.865799
60.380 19.910278
60.385 19.879143
60.390 20.012096
60.395 20.412794
60.400 20.850977
60.405 20.354176
60.410 20.379833
60.415 20.182819
60.420 19.948378
60.425 19.951683
60.430 19.7626
60.435 19.439329
60.440 18.933098
60.445 18.565891
60.450 19.03096
60.455 19.389021
60.460 19.301237
60.465 18.760279
60.470 18.639387
60.475 19.181038
60.480 18.869932
60.485 18.467085
60.490 18.52627
60.495 18.881891
60.500 20.374292
60.505 21.149681
60.510 20.75375
60.515 20.527466
60.520 20.760881
60.525 20.715548
60.530 20.348391
60.535 19.362476
60.540 19.444921
60.545 19.452358
60.550 19.425655
60.555 19.396378
60.560 19.350996
60.565 19.478895
60.570 19.434059
60.575 18.960011
60.580 19.246902
60.585 19.314981
60.590 19.119835
60.595 19.243866
60.600 19.281246
60.605 19.073236
60.610 18.944122
60.615 18.356409
60.620 17.662655
60.625 17.228897
60.630 16.959066
60.635 16.33116
60.640 16.010862
60.645 15.740655
60.650 15.859841
60.655 16.568581
60.660 16.756487
60.665 16.792831
60.670 16.869972
60.675 16.872774
60.680 16.828098
60.685 17.201847
60.690 17.136951
60.695 16.900852
60.700 17.168268
60.705 17.841354
60.710 18.13727
60.715 18.387213
60.720 18.067953
60.725 17.816332
60.730 18.212763
60.735 17.992031
60.740 17.435505
60.745 17.474115
60.750 17.342911
60.755 17.643501
60.760 17.859621
60.765 18.013094
60.770 17.623608
60.775 17.213297
60.780 16.556835
60.785 16.631804
60.790 16.273983
60.795 15.481979
60.800 15.01594
60.805 15.168853
60.810 15.195769
60.815 15.18601
60.820 14.593521
60.825 14.354139
60.830 14.580845
60.835 14.4729
60.840 14.869738
60.845 15.489048
60.850 15.854523
60.855 16.702187
60.860 16.951368
60.865 17.463671
60.870 17.664783
60.875 17.472263
60.880 17.01544
60.885 16.746296
60.890 16.481091
60.895 16.786022
60.900 16.866863
60.905 16.86191
60.910 16.778585
60.915 17.066116
60.920 17.287237
60.925 17.517014
60.930 17.352089
60.935 17.215698
60.940 17.287437
60.945 17.786131
60.950 17.996775
60.955 17.877306
60.960 17.292112
60.965 17.254234
60.970 17.164871
60.975 16.634363
60.980 15.85062
60.985 15.288699
60.990 15.493787
60.995 15.613457
61.000 15.898613
61.005 16.362312
61.010 17.046915
61.015 17.686411
61.020 18.856779
61.025 18.599012
61.030 18.839771
61.035 18.71463
61.040 18.337614
61.045 17.727665
61.050 17.193861
61.055 16.057922
61.060 16.221413
61.065 16.25906
61.070 15.879551
61.075 15.710996
61.080 15.945681
61.085 16.187845
61.090 15.923091
61.095 15.593537
61.100 15.535995
61.105 15.688084
61.110 15.834032
61.115 15.935122
61.120 15.786226
61.125 16.122833
61.130 16.194757
61.135 15.995064
61.140 16.068796
61.145 15.464519
61.150 14.946353
61.155 14.616377
61.160 14.592684
61.165 14.999572
61.170 15.227201
61.175 14.934223
61.180 15.256776
61.185 16.066082
61.190 16.650898
61.195 16.815437
61.200 16.639608
61.205 16.780891
61.210 17.263493
61.215 17.001881
61.220 16.838081
61.225 17.009399
61.230 17.473091
61.235 17.34461
61.240 17.145575
61.245 17.132061
61.250 17.40661
61.255 17.127298
61.260 16.835348
61.265 16.264513
61.270 16.548223
61.275 16.138119
61.280 16.214941
61.285 16.532093
61.290 16.319809
61.295 16.43465
61.300 16.648216
61.305 16.213167
61.310 16.606741
61.315 16.608145
61.320 16.906773
61.325 17.269604
61.330 16.916924
61.335 16.733297
61.340 17.156004
61.345 16.964123
61.350 17.075422
61.355 16.619415
61.360 16.533134
61.365 16.449272
61.370 16.269497
61.375 15.930018
61.380 15.675218
61.385 16.029074
61.390 16.496716
61.395 16.401506
61.400 16.588322
61.405 16.953793
61.410 17.048527
61.415 17.302835
61.420 16.460197
61.425 16.616285
61.430 16.741552
61.435 16.404547
61.440 15.59471
61.445 15.559814
61.450 15.8274
61.455 15.937277
61.460 15.315118
61.465 15.24691
61.470 15.015198
61.475 15.465161
61.480 15.435576
61.485 14.910514
61.490 14.77581
61.495 15.038635
61.500 15.502795
61.505 15.945878
61.510 16.042324
61.515 16.397537
61.520 16.345844
61.525 16.727171
61.530 17.048859
61.535 16.923731
61.540 17.103445
61.545 16.418694
61.550 16.244818
61.555 16.663092
61.560 16.492517
61.565 16.094589
61.570 16.037594
61.575 16.103916
61.580 16.270271
61.585 16.40383
61.590 16.016855
61.595 15.619864
61.600 15.784798
61.605 15.306137
61.610 15.617516
61.615 15.585636
61.620 15.210646
61.625 15.365877
61.630 15.841832
61.635 15.582351
61.640 15.752085
61.645 15.618995
61.650 15.820884
61.655 15.732149
61.660 15.880257
61.665 15.473842
61.670 15.536033
61.675 15.588587
61.680 15.515495
61.685 15.53049
61.690 15.816963
61.695 15.864682
61.700 15.702779
61.705 15.913178
61.710 16.240036
61.715 16.765823
61.720 17.01086
61.725 17.419456
61.730 17.785368
61.735 18.036539
61.740 17.872402
61.745 17.388811
61.750 16.85718
61.755 16.983183
61.760 16.249887
61.765 15.701871
61.770 15.6618
61.775 15.760238
61.780 16.204227
61.785 15.761755
61.790 15.577008
61.795 15.530916
61.800 16.572857
61.805 17.24608
61.810 17.440718
61.815 17.475262
61.820 18.084949
61.825 18.533127
61.830 19.30406
61.835 18.799067
61.840 18.163132
61.845 17.73604
61.850 17.55036
61.855 16.877478
61.860 16.152411
61.865 15.856772
61.870 15.908517
61.875 16.346704
61.880 16.844845
61.885 17.128605
61.890 17.586704
61.895 17.271545
61.900 17.004126
61.905 16.538837
61.910 16.69244
61.915 16.692633
61.920 16.093796
61.925 16.015293
61.930 16.003334
61.935 16.077068
61.940 16.140501
61.945 16.029259
61.950 15.915213
61.955 16.021608
61.960 16.23373
61.965 16.012428
61.970 16.136301
61.975 16.553198
61.980 16.184986
61.985 15.977118
61.990 16.277792
61.995 16.063387
62.000 16.800648
62.005 17.135162
62.010 16.530716
62.015 16.621286
62.020 16.224663
62.025 16.273926
62.030 16.85285
62.035 16.617418
62.040 16.209044
62.045 16.405495
62.050 16.485693
62.055 17.085899
62.060 16.376602
62.065 15.743783
62.070 15.785764
62.075 15.573227
62.080 15.733413
62.085 16.132095
62.090 16.182068
62.095 16.367846
62.100 16.503414
62.105 16.511572
62.110 16.865374
62.115 16.963448
62.120 16.562019
62.125 17.0002
62.130 17.31822
62.135 17.461973
62.140 17.706467
62.145 17.73613
62.150 17.438919
62.155 17.607035
62.160 17.384184
62.165 17.281363
62.170 16.949657
62.175 17.147383
62.180 17.090731
62.185 17.396505
62.190 17.176762
62.195 17.171827
62.200 17.576021
62.205 17.69832
62.210 16.711588
62.215 16.780783
62.220 16.53462
62.225 16.605555
62.230 16.431643
62.235 16.382952
62.240 16.619854
62.245 16.605659
62.250 16.376797
62.255 15.875031
62.260 15.945775
62.265 16.018198
62.270 15.81103
62.275 15.678591
62.280 15.333568
62.285 15.515268
62.290 15.380309
62.295 14.6041
62.300 14.102594
62.305 14.380777
62.310 14.92394
62.315 15.481314
62.320 15.734403
62.325 16.280365
62.330 16.546844
62.335 16.785769
62.340 16.705154
62.345 16.695934
62.350 16.488272
62.355 16.476353
62.360 16.693518
62.365 17.521492
62.370 17.847078
62.375 17.306858
62.380 17.338903
62.385 17.712835
62.390 17.643164
62.395 17.584372
62.400 17.067619
62.405 16.680855
62.410 16.884493
62.415 16.719646
62.420 16.486284
62.425 16.253559
62.430 15.918928
62.435 16.062614
62.440 16.310381
62.445 16.599045
62.450 17.171761
62.455 16.890339
62.460 16.667217
62.465 16.871231
62.470 16.997046
62.475 17.331005
62.480 16.887501
62.485 16.664272
62.490 16.82979
62.495 16.631895
62.500 16.561253
62.505 16.221989
62.510 16.204557
62.515 16.559811
62.520 15.9842
62.525 16.132215
62.530 16.643379
62.535 16.479017
62.540 16.103601
62.545 15.772151
62.550 15.112407
62.555 15.589308
62.560 15.023002
62.565 14.875725
62.570 14.96546
62.575 14.941189
62.580 14.702782
62.585 15.146552
62.590 15.06192
62.595 15.848712
62.600 16.17094
62.605 16.154064
62.610 16.252966
62.615 16.656269
62.620 16.443035
62.625 16.30547
62.630 16.30686
62.635 15.964868
62.640 16.427145
62.645 16.46101
62.650 16.342436
62.655 16.327402
62.660 16.52457
62.665 16.178764
62.670 16.031256
62.675 15.671301
62.680 15.806496
62.685 15.834436
62.690 16.19788
62.695 15.854249
62.700 15.868083
62.705 16.06259
62.710 16.392694
62.715 16.56813
62.720 16.573744
62.725 16.398117
62.730 16.51848
62.735 16.543346
62.740 16.759192
62.745 16.752928
62.750 16.733341
62.755 16.732586
62.760 17.163786
62.765 17.771719
62.770 17.960884
62.775 17.548651
62.780 17.236305
62.785 17.641205
62.790 17.440166
62.795 16.907047
62.800 17.253593
62.805 17.299366
62.810 17.760895
62.815 18.213585
62.820 18.073889
62.825 17.65811
62.830 17.338366
62.835 17.319172
62.840 17.420586
62.845 16.740553
62.850 16.405224
62.855 15.945377
62.860 16.244602
62.865 16.927879
62.870 16.972719
62.875 17.492704
62.880 17.799475
62.885 17.619747
62.890 18.017376
62.895 17.712585
62.900 17.058756
62.905 15.790691
62.910 14.884116
62.915 15.157291
62.920 15.689052
62.925 15.243265
62.930 15.16591
62.935 15.813302
62.940 16.698887
62.945 17.052723
62.950 17.288446
62.955 17.578255
62.960 18.546932
62.965 18.87295
62.970 18.908672
62.975 19.031878
62.980 18.917219
62.985 18.296505
62.990 17.818714
62.995 17.331192
63.000 17.543282
63.005 17.0891
63.010 16.50765
63.015 16.354017
63.020 16.439617
63.025 16.022236
63.030 15.466409
63.035 15.754519
63.040 16.180984
63.045 16.291779
63.050 16.808083
63.055 16.64953
63.060 16.70084
63.065 17.375925
63.070 17.09973
63.075 16.878786
63.080 17.223869
63.085 17.004021
63.090 16.876808
63.095 17.341715
63.100 17.470724
63.105 17.589224
63.110 17.73918
63.115 17.270967
63.120 17.439322
63.125 18.269781
63.130 18.048851
63.135 17.284582
63.140 17.035965
63.145 17.315571
63.150 17.35767
63.155 17.346737
63.160 17.053024
63.165 17.085823
63.170 17.295345
63.175 17.752356
63.180 17.348278
63.185 17.545103
63.190 17.107157
63.195 16.55538
63.200 16.269285
63.205 16.136833
63.210 16.088629
63.215 16.430592
63.220 16.378532
63.225 16.834343
63.230 17.252024
63.235 17.286444
63.240 17.119699
63.245 17.008755
63.250 17.186296
63.255 17.678881
63.260 17.448439
63.265 17.238895
63.270 17.55504
63.275 17.598654
63.280 16.999138
63.285 16.952307
63.290 16.573143
63.295 16.625263
63.300 17.121582
63.305 17.537054
63.310 17.92469
63.315 18.700787
63.320 18.667896
63.325 18.706354
63.330 18.686543
63.335 18.389761
63.340 18.089455
63.345 17.82555
63.350 17.415579
63.355 17.271681
63.360 17.377012
63.365 17.379322
63.370 17.287575
63.375 17.347973
63.380 17.423639
63.385 16.857206
63.390 16.070011
63.395 16.175631
63.400 16.442188
63.405 16.431587
63.410 16.736691
63.415 16.75905
63.420 16.958574
63.425 17.071362
63.430 17.069557
63.435 17.215357
63.440 16.956491
63.445 16.198011
63.450 16.292791
63.455 17.062113
63.460 17.772715
63.465 17.546122
63.470 17.160017
63.475 17.488787
63.480 17.887695
63.485 17.919392
63.490 17.40456
63.495 16.919708
63.500 16.899654
63.505 17.149799
63.510 17.395994
63.515 17.532188
63.520 17.542538
63.525 17.333727
63.530 16.993626
63.535 16.600985
63.540 16.691425
63.545 16.227259
63.550 15.925139
63.555 16.064537
63.560 16.794292
63.565 17.658209
63.570 18.142206
63.575 18.271395
63.580 18.73115
63.585 18.98386
63.590 18.681826
63.595 17.957191
63.600 17.596617
63.605 17.732594
63.610 17.432478
63.615 17.485235
63.620 17.316195
63.625 17.101435
63.630 16.846214
63.635 16.816315
63.640 16.459574
63.645 15.97783
63.650 15.539745
63.655 15.845215
63.660 16.607191
63.665 17.648079
63.670 17.636364
63.675 18.150183
63.680 18.485521
63.685 18.806805
63.690 18.550814
63.695 17.762934
63.700 17.467981
63.705 17.572224
63.710 17.975248
63.715 18.159607
63.720 17.880486
63.725 17.613934
63.730 17.754065
63.735 17.40147
63.740 17.069221
63.745 16.420994
63.750 15.959392
63.755 15.638636
63.760 15.550008
63.765 15.979393
63.770 16.899481
63.775 16.804359
63.780 16.633801
63.785 16.611485
63.790 16.539648
63.795 16.687412
63.800 16.529819
63.805 16.003517
63.810 16.792946
63.815 17.936651
63.820 18.535807
63.825 19.255056
63.830 19.222582
63.835 18.997896
63.840 18.852663
63.845 18.377729
63.850 18.011953
63.855 18.112858
63.860 17.801504
63.865 18.321636
63.870 18.027685
63.875 18.104946
63.880 18.19923
63.885 18.178467
63.890 18.081051
63.895 18.113089
63.900 18.026834
63.905 18.395975
63.910 18.036747
63.915 17.637196
63.920 17.312798
63.925 17.483072
63.930 17.532276
63.935 17.68639
63.940 17.605282
63.945 17.741356
63.950 17.944031
63.955 17.831974
63.960 17.891941
63.965 18.469311
63.970 18.027653
63.975 17.856447
63.980 17.865469
63.985 18.053738
63.990 18.287329
63.995 17.931454
64.000 17.212523
64.005 17.301003
64.010 17.497774
64.015 17.418432
64.020 17.295099
64.025 17.172964
64.030 17.28599
64.035 17.535221
64.040 17.446323
64.045 17.249033
64.050 16.97794
64.055 16.938112
64.060 16.671661
64.065 16.543514
64.070 16.547083
64.075 16.690407
64.080 16.927996
64.085 17.470869
64.090 17.470112
64.095 17.813
64.100 18.304541
64.105 18.190258
64.110 18.425314
64.115 18.232903
64.120 18.312937
64.125 18.061184
64.130 17.644173
64.135 17.231848
64.140 17.367453
64.145 17.330744
64.150 16.943682
64.155 16.573874
64.160 16.924114
64.165 17.205297
64.170 17.25737
64.175 17.186764
64.180 17.168478
64.185 17.619629
64.190 18.15522
64.195 17.735279
64.200 17.581402
64.205 17.781574
64.210 17.589039
64.215 17.488441
64.220 16.643818
64.225 15.831647
64.230 15.6462
64.235 15.802412
64.240 15.535969
64.245 15.637951
64.250 15.450985
64.255 16.323845
64.260 16.5406
64.265 16.908852
64.270 17.031431
64.275 17.205778
64.280 17.358978
64.285 17.733814
64.290 17.669788
64.295 17.996126
64.300 18.038639
64.305 17.594154
64.310 17.352983
64.315 17.755135
64.320 17.979967
64.325 18.116093
64.330 18.264349
64.335 18.315496
64.340 18.62388
64.345 18.954346
64.350 18.596855
64.355 18.34267
64.360 18.122721
64.365 18.18932
64.370 18.052908
64.375 17.557907
64.380 17.419176
64.385 17.362926
64.390 17.249479
64.395 17.651268
64.400 17.793928
64.405 17.865196
64.410 18.364267
64.415 18.68848
64.420 19.272659
64.425 19.339027
64.430 19.056948
64.435 19.225451
64.440 19.342329
64.445 19.341627
64.450 19.170559
64.455 18.839266
64.460 18.455862
64.465 17.973492
64.470 17.452927
64.475 17.679724
64.480 17.691259
64.485 17.688339
64.490 17.683756
64.495 18.554865
64.500 19.776119
64.505 20.24959
64.510 19.969023
64.515 19.554676
64.520 19.299339
64.525 18.838486
64.530 18.358192
64.535 17.779305
64.540 17.86342
64.545 17.808062
64.550 18.001074
64.555 18.272594
64.560 18.180443
64.565 17.718708
64.570 17.574903
64.575 17.5655
64.580 18.029665
64.585 18.274481
64.590 18.129292
64.595 18.33086
64.600 18.773813
64.605 18.983749
64.610 18.892807
64.615 19.320448
64.620 19.703247
64.625 20.481142
64.630 20.852724
64.635 21.207821
64.640 21.668816
64.645 21.354362
64.650 20.725054
64.655 20.648495
64.660 20.65629
64.665 20.337446
64.670 20.085567
64.675 19.843723
64.680 19.94195
64.685 19.906567
64.690 19.002779
64.695 18.328987
64.700 18.182503
64.705 17.985662
64.710 17.648952
64.715 17.783014
64.720 17.905588
64.725 18.310545
64.730 18.604023
64.735 18.59342
64.740 18.740852
64.745 19.049704
64.750 18.777864
64.755 18.942822
64.760 19.09127
64.765 18.825592
64.770 18.791767
64.775 18.608461
64.780 18.680346
64.785 19.078615
64.790 18.965355
64.795 19.021784
64.800 19.493238
64.805 19.770672
64.810 19.685919
64.815 19.575665
64.820 19.747828
64.825 19.629662
64.830 19.10536
64.835 19.274065
64.840 19.083704
64.845 19.178438
64.850 18.83939
64.855 18.734945
64.860 18.567696
64.865 18.623718
64.870 18.289032
64.875 18.234137
64.880 18.126572
64.885 18.626291
64.890 18.459223
64.895 18.535439
64.900 18.332344
64.905 18.818014
64.910 18.959
64.915 18.446419
64.920 18.373734
64.925 18.207525
64.930 18.721851
64.935 19.208612
64.940 18.877935
64.945 19.088968
64.950 19.821741
64.955 19.595587
64.960 19.96413
64.965 20.158535
64.970 20.406498
64.975 20.94405
64.980 21.083729
64.985 21.192169
64.990 21.802502
64.995 22.254852
65.000 21.811659
65.005 21.417633
65.010 21.135494
65.015 20.681955
65.020 20.794291
65.025 20.722824
65.030 20.611061
65.035 20.737598
65.040 20.916159
65.045 20.512939
65.050 21.055386
65.055 20.951044
65.060 20.856352
65.065 20.794699
65.070 21.715862
65.075 22.011604
65.080 22.682045
65.085 22.675329
65.090 22.809828
65.095 22.978922
65.100 23.441391
65.105 22.911629
65.110 22.424652
65.115 22.414116
65.120 22.575344
65.125 22.858627
65.130 22.661097
65.135 22.446869
65.140 22.616228
65.145 22.67021
65.150 22.060398
65.155 21.980701
65.160 22.082912
65.165 21.975332
65.170 22.198145
65.175 22.296278
65.180 22.500248
65.185 22.503197
65.190 22.557669
65.195 22.155857
65.200 21.788347
65.205 21.550486
65.210 21.774609
65.215 22.145735
65.220 22.245314
65.225 22.016148
65.230 22.090412
65.235 22.079885
65.240 21.649895
65.245 21.122444
65.250 20.787271
65.255 21.041496
65.260 21.355022
65.265 21.189917
65.270 21.451635
65.275 21.481955
65.280 20.977661
65.285 20.844193
65.290 20.957077
65.295 21.579781
65.300 22.286861
65.305 22.661404
65.310 22.766741
65.315 23.557222
65.320 23.785065
65.325 23.170876
65.330 22.625729
65.335 22.486305
65.340 22.739746
65.345 23.154474
65.350 23.195152
65.355 23.270939
65.360 23.952145
65.365 23.974682
65.370 23.441208
65.375 22.999872
65.380 22.914585
65.385 22.923717
65.390 23.050323
65.395 22.349293
65.400 22.157766
65.405 22.471573
65.410 22.142941
65.415 22.122952
65.420 21.948042
65.425 22.16737
65.430 22.374962
65.435 22.495436
65.440 23.085611
65.445 23.143398
65.450 23.498783
65.455 23.523508
65.460 23.437761
65.465 23.755196
65.470 23.626839
65.475 23.659094
65.480 24.265854
65.485 24.424578
65.490 24.798565
65.495 25.113838
65.500 25.310411
65.505 25.526789
65.510 25.624079
65.515 25.016348
65.520 25.06415
65.525 25.087502
65.530 24.95056
65.535 25.111624
65.540 25.614511
65.545 25.948277
65.550 26.239468
65.555 25.908745
65.560 25.83893
65.565 26.325924
65.570 26.392881
65.575 26.834835
65.580 26.972687
65.585 27.334742
65.590 28.186773
65.595 28.318445
65.600 28.627787
65.605 28.677725
65.610 27.898739
65.615 27.912506
65.620 28.429403
65.625 28.890699
65.630 28.969877
65.635 28.879448
65.640 28.922901
65.645 29.312862
65.650 30.160616
65.655 30.745764
65.660 30.804321
65.665 31.451883
65.670 32.14521
65.675 32.835247
65.680 33.466515
65.685 33.070602
65.690 32.866699
65.695 32.488945
65.700 32.131088
65.705 31.644171
65.710 31.630482
65.715 31.828325
65.720 32.636158
65.725 33.306213
65.730 34.158924
65.735 34.16489
65.740 34.37714
65.745 34.419434
65.750 34.858574
65.755 34.755146
65.760 34.335297
65.765 34.767662
65.770 35.09866
65.775 35.260536
65.780 35.501122
65.785 35.713139
65.790 35.251907
65.795 34.787834
65.800 34.107124
65.805 34.209579
65.810 34.389385
65.815 34.469147
65.820 34.066174
65.825 34.49596
65.830 35.467968
65.835 36.293404
65.840 36.674389
65.845 37.331333
65.850 37.514061
65.855 37.571857
65.860 36.924084
65.865 35.986343
65.870 35.734299
65.875 35.772476
65.880 34.884567
65.885 35.073593
65.890 35.9235
65.895 36.554749
65.900 36.525169
65.905 36.295074
65.910 36.414848
65.915 36.505882
65.920 36.780624
65.925 37.550827
65.930 37.068306
65.935 37.432625
65.940 37.915272
65.945 38.281864
65.950 39.095745
65.955 38.868824
65.960 38.206425
65.965 38.9035
65.970 39.206387
65.975 39.677841
65.980 39.811852
65.985 40.002537
65.990 40.196945
65.995 40.416126
66.000 41.126518
66.005 41.153641
66.010 40.558895
66.015 40.408127
66.020 39.999046
66.025 39.376469
66.030 39.220451
66.035 38.096809
66.040 37.709133
66.045 37.295807
66.050 36.574833
66.055 35.709305
66.060 35.626217
66.065 35.969269
66.070 35.847134
66.075 35.65955
66.080 35.911797
66.085 36.479069
66.090 37.544636
66.095 38.087051
66.100 37.693645
66.105 37.80508
66.110 37.751537
66.115 38.11953
66.120 38.079342
66.125 37.725788
66.130 38.018181
66.135 38.421009
66.140 39.170937
66.145 39.722286
66.150 39.17363
66.155 39.339905
66.160 38.708965
66.165 38.474682
66.170 38.328865
66.175 37.820541
66.180 37.456043
66.185 37.891384
66.190 38.548729
66.195 38.854141
66.200 37.751858
66.205 37.095566
66.210 37.134007
66.215 37.288383
66.220 36.285118
66.225 35.924179
66.230 35.296215
66.235 34.993378
66.240 35.087326
66.245 34.660492
66.250 34.065731
66.255 34.695118
66.260 34.21822
66.265 34.429283
66.270 34.489475
66.275 34.398739
66.280 34.366615
66.285 34.367474
66.290 33.922924
66.295 34.022903
66.300 34.406395
66.305 34.723522
66.310 34.176472
66.315 34.114021
66.320 33.677502
66.325 33.896915
66.330 33.762753
66.335 33.242645
66.340 32.6605
66.345 32.292526
66.350 32.643532
66.355 32.842632
66.360 32.745533
66.365 32.812595
66.370 32.860664
66.375 32.466164
66.380 32.74725
66.385 33.199638
66.390 33.876942
66.395 33.517838
66.400 33.216763
66.405 33.263767
66.410 33.671883
66.415 33.154469
66.420 32.364628
66.425 31.440031
66.430 31.422396
66.435 31.332745
66.440 30.839798
66.445 30.992191
66.450 30.755157
66.455 29.891304
66.460 29.748655
66.465 29.228941
66.470 29.159796
66.475 29.221319
66.480 28.826548
66.485 28.895908
66.490 29.731045
66.495 30.079313
66.500 29.887575
66.505 29.745966
66.510 29.266331
66.515 28.686878
66.520 28.203371
66.525 26.605373
66.530 25.202852
66.535 25.144394
66.540 25.241877
66.545 25.699717
66.550 26.184391
66.555 26.945007
66.560 27.825573
66.565 28.618908
66.570 28.814533
66.575 28.278568
66.580 27.979986
66.585 27.084356
66.590 26.138758
66.595 26.333235
66.600 26.128759
66.605 25.834015
66.610 25.658546
66.615 25.273584
66.620 25.186392
66.625 24.690605
66.630 23.761539
66.635 23.256081
66.640 22.776766
66.645 22.895031
66.650 23.012583
66.655 23.256475
66.660 23.524799
66.665 23.902044
66.670 24.071329
66.675 24.786034
66.680 24.495462
66.685 24.271927
66.690 24.286268
66.695 24.240467
66.700 24.162971
66.705 24.2157
66.710 24.218029
66.715 24.765526
66.720 25.652122
66.725 25.799189
66.730 26.107748
66.735 25.848862
66.740 25.645731
66.745 25.308859
66.750 25.18536
66.755 24.994631
66.760 25.221516
66.765 25.235119
66.770 25.262661
66.775 24.763958
66.780 24.253784
66.785 23.656961
66.790 22.672432
66.795 22.216413
66.800 21.559832
66.805 22.003792
66.810 22.429174
66.815 22.856001
66.820 24.040514
66.825 24.35605
66.830 24.09745
66.835 24.53825
66.840 24.438005
66.845 23.894737
66.850 23.262451
66.855 22.630445
66.860 22.505445
66.865 22.800714
66.870 22.647303
66.875 22.816126
66.880 23.220409
66.885 23.089033
66.890 23.050117
66.895 22.731724
66.900 22.81805
66.905 22.472843
66.910 22.29101
66.915 22.585779
66.920 22.609682
66.925 22.392124
66.930 22.139305
66.935 22.1619
66.940 22.183558
66.945 22.067844
66.950 22.233837
66.955 22.01512
66.960 21.820955
66.965 22.101385
66.970 21.618162
66.975 21.586866
66.980 21.629299
66.985 21.166414
66.990 21.215578
66.995 21.854574
67.000 21.501949
67.005 21.491781
67.010 21.404305
67.015 20.791794
67.020 20.906532
67.025 21.309095
67.030 21.029308
67.035 21.153503
67.040 21.376694
67.045 21.702763
67.050 22.199888
67.055 22.344143
67.060 22.515427
67.065 22.850349
67.070 23.751127
67.075 24.116207
67.080 23.610157
67.085 22.891159
67.090 22.842121
67.095 22.77247
67.100 22.374027
67.105 21.441982
67.110 21.529024
67.115 21.635269
67.120 22.256367
67.125 21.987328
67.130 21.52743
67.135 21.921055
67.140 21.666155
67.145 21.191326
67.150 21.868164
67.155 22.026846
67.160 22.019476
67.165 21.934525
67.170 21.618862
67.175 21.469599
67.180 21.44685
67.185 21.070955
67.190 20.745789
67.195 20.849167
67.200 21.060566
67.205 20.988415
67.210 20.676283
67.215 20.849218
67.220 21.014322
67.225 21.099586
67.230 20.717896
67.235 20.277105
67.240 20.541899
67.245 21.191666
67.250 20.68899
67.255 20.748312
67.260 20.805635
67.265 21.386631
67.270 21.603823
67.275 21.745628
67.280 21.241875
67.285 20.989937
67.290 21.110394
67.295 21.148581
67.300 21.361719
67.305 20.980642
67.310 20.245239
67.315 20.1486
67.320 20.419111
67.325 20.202944
67.330 20.575499
67.335 19.83754
67.340 20.019688
67.345 20.564423
67.350 21.180727
67.355 20.993259
67.360 20.799337
67.365 20.617579
67.370 21.01881
67.375 21.422028
67.380 22.075165
67.385 21.65934
67.390 21.734577
67.395 21.441566
67.400 21.098042
67.405 21.399303
67.410 21.685858
67.415 21.534872
67.420 21.095984
67.425 20.894077
67.430 21.294447
67.435 21.298168
67.440 20.641403
67.445 20.354378
67.450 19.9776
67.455 20.162546
67.460 20.379265
67.465 19.914619
67.470 19.706121
67.475 19.67408
67.480 19.540588
67.485 19.660721
67.490 20.219707
67.495 20.466537
67.500 21.063187
67.505 21.542303
67.510 21.914492
67.515 22.064455
67.520 22.12464
67.525 21.493065
67.530 21.606379
67.535 21.385904
67.540 21.352846
67.545 21.035418
67.550 20.930517
67.555 21.276398
67.560 22.049465
67.565 22.044434
67.570 21.75593
67.575 21.171001
67.580 20.75423
67.585 20.453403
67.590 19.904181
67.595 19.606174
67.600 19.873751
67.605 20.555628
67.610 21.24762
67.615 21.968428
67.620 22.449219
67.625 23.293255
67.630 23.222075
67.635 23.073151
67.640 22.724154
67.645 22.890703
67.650 22.793268
67.655 22.374903
67.660 22.087477
67.665 21.413664
67.670 20.920946
67.675 20.86722
67.680 20.28079
67.685 20.085396
67.690 20.240345
67.695 20.297033
67.700 20.191401
67.705 20.374155
67.710 20.749514
67.715 20.682938
67.720 21.190708
67.725 21.297091
67.730 21.279301
67.735 21.516552
67.740 21.320337
67.745 20.988985
67.750 20.802555
67.755 20.477766
67.760 20.096365
67.765 19.489943
67.770 19.37784
67.775 19.428465
67.780 19.492315
67.785 19.437017
67.790 18.882252
67.795 19.219414
67.800 19.519802
67.805 19.51372
67.810 19.527763
67.815 19.593832
67.820 19.995607
67.825 20.035809
67.830 19.989357
67.835 19.525497
67.840 19.553328
67.845 19.621284
67.850 19.804672
67.855 20.262995
67.860 20.234133
67.865 20.344698
67.870 20.868002
67.875 20.906637
67.880 20.531815
67.885 20.217567
67.890 19.583319
67.895 19.997017
67.900 20.298552
67.905 20.770636
67.910 20.516165
67.915 20.586342
67.920 20.728344
67.925 20.926426
67.930 20.497051
67.935 20.152958
67.940 20.178726
67.945 20.657454
67.950 20.411043
67.955 20.501348
67.960 20.674747
67.965 20.948412
67.970 20.383001
67.975 20.178797
67.980 20.129667
67.985 20.230026
67.990 19.777842
67.995 19.904797
68.000 19.303265
68.005 19.17045
68.010 19.130421
68.015 18.850828
68.020 18.442165
68.025 18.230228
68.030 17.853487
68.035 17.832254
68.040 17.805185
68.045 18.194944
68.050 18.725063
68.055 19.315292
68.060 19.980478
68.065 20.514608
68.070 21.517258
68.075 21.805408
68.080 21.902416
68.085 22.065985
68.090 21.786467
68.095 21.218607
68.100 21.339741
68.105 21.276772
68.110 21.337561
68.115 20.905268
68.120 20.871731
68.125 21.122631
68.130 21.078321
68.135 20.535778
68.140 20.559153
68.145 20.522346
68.150 20.46727
68.155 20.64632
68.160 21.089025
68.165 21.444044
68.170 21.976391
68.175 21.851177
68.180 21.748505
68.185 21.373997
68.190 21.442635
68.195 21.325106
68.200 20.933968
68.205 20.77984
68.210 20.724823
68.215 20.842518
68.220 20.378115
68.225 20.263292
68.230 20.980511
68.235 21.262827
68.240 21.067787
68.245 20.899456
68.250 21.380384
68.255 22.215117
68.260 22.170328
68.265 21.319935
68.270 20.744083
68.275 20.287674
68.280 20.497681
68.285 20.42757
68.290 20.302923
68.295 20.151638
68.300 20.621513
68.305 21.474548
68.310 21.801657
68.315 21.194225
68.320 21.047983
68.325 20.45892
68.330 19.977108
68.335 19.45792
68.340 19.369806
68.345 19.780758
68.350 20.489813
68.355 20.440756
68.360 20.89953
68.365 20.7463
68.370 20.747513
68.375 20.48642
68.380 20.402317
68.385 20.345312
68.390 20.12677
68.395 20.334944
68.400 20.486284
68.405 20.966665
68.410 20.853552
68.415 20.923695
68.420 21.199991
68.425 21.977465
68.430 22.390944
68.435 22.330624
68.440 22.003418
68.445 22.180784
68.450 21.947412
68.455 21.941725
68.460 21.124992
68.465 20.485493
68.470 20.97776
68.475 21.265945
68.480 21.183365
68.485 21.237625
68.490 20.642166
68.495 21.545279
68.500 21.969288
68.505 21.805862
68.510 21.52725
68.515 21.799488
68.520 21.754156
68.525 22.260302
68.530 21.790255
68.535 22.231638
68.540 22.236277
68.545 22.042122
68.550 21.287672
68.555 21.243557
68.560 20.977526
68.565 20.651421
68.570 20.431681
68.575 20.402103
68.580 20.471167
68.585 20.511751
68.590 20.116009
68.595 20.026306
68.600 20.186443
68.605 19.816158
68.610 19.520613
68.615 19.903555
68.620 20.418215
68.625 20.597782
68.630 20.522583
68.635 21.136744
68.640 21.972841
68.645 22.338938
68.650 22.219933
68.655 22.207146
68.660 22.203857
68.665 22.62274
68.670 22.31485
68.675 21.646646
68.680 21.319809
68.685 21.73629
68.690 21.817289
68.695 22.071421
68.700 21.020746
68.705 20.81608
68.710 21.314987
68.715 21.794342
68.720 21.419716
68.725 21.942442
68.730 21.823017
68.735 22.945549
68.740 23.470871
68.745 23.611969
68.750 22.799505
68.755 22.798788
68.760 22.245895
68.765 22.56402
68.770 22.304241
68.775 20.799351
68.780 20.45352
68.785 20.616634
68.790 20.340555
68.795 20.12446
68.800 20.103195
68.805 19.635031
68.810 20.349281
68.815 20.800577
68.820 20.725769
68.825 21.089531
68.830 21.540298
68.835 22.189278
68.840 22.625183
68.845 22.702467
68.850 22.507183
68.855 22.614248
68.860 22.803123
68.865 22.136374
68.870 21.801065
68.875 21.882458
68.880 22.135216
68.885 21.6738
68.890 21.939238
68.895 21.70948
68.900 22.022223
68.905 22.758104
68.910 22.996759
68.915 23.100227
68.920 23.274246
68.925 22.848398
68.930 22.629406
68.935 21.195068
68.940 20.939989
68.945 20.242937
68.950 19.653866
68.955 19.629702
68.960 20.061707
68.965 20.529966
68.970 21.650646
68.975 21.333769
68.980 21.468113
68.985 22.101509
68.990 22.462791
68.995 22.839397
69.000 22.957481
69.005 23.196751
69.010 23.053915
69.015 22.962215
69.020 22.861485
69.025 22.57971
69.030 22.051903
69.035 22.224119
69.040 22.305428
69.045 22.508659
69.050 23.535217
69.055 24.230078
69.060 24.853813
69.065 24.806705
69.070 24.275757
69.075 23.89238
69.080 23.475525
69.085 23.100067
69.090 23.091869
69.095 23.149189
69.100 23.640654
69.105 24.557783
69.110 25.644444
69.115 27.14588
69.120 27.980675
69.125 27.977852
69.130 28.33478
69.135 28.120893
69.140 28.835419
69.145 28.476303
69.150 27.801205
69.155 27.603146
69.160 27.22176
69.165 26.376577
69.170 25.741522
69.175 24.825947
69.180 24.716263
69.185 24.735027
69.190 24.755072
69.195 25.075695
69.200 25.580172
69.205 26.202673
69.210 25.753563
69.215 25.3111
69.220 24.979818
69.225 25.286398
69.230 25.412476
69.235 25.605145
69.240 25.650177
69.245 26.07534
69.250 26.419437
69.255 26.171228
69.260 25.85388
69.265 26.211037
69.270 25.863527
69.275 26.039246
69.280 26.118988
69.285 26.454176
69.290 26.839552
69.295 26.537981
69.300 26.72867
69.305 26.242619
69.310 26.790337
69.315 26.82003
69.320 26.566465
69.325 27.024183
69.330 26.988777
69.335 26.547358
69.340 27.198511
69.345 26.867115
69.350 27.372217
69.355 27.73703
69.360 27.782467
69.365 28.763086
69.370 28.667471
69.375 28.504099
69.380 28.319885
69.385 28.747561
69.390 28.99884
69.395 28.684013
69.400 28.525553
69.405 28.826794
69.410 28.945881
69.415 28.362656
69.420 27.326397
69.425 27.053368
69.430 27.192278
69.435 27.212305
69.440 27.305002
69.445 28.118357
69.450 29.073616
69.455 30.716093
69.460 30.739712
69.465 30.969553
69.470 31.663359
69.475 31.983351
69.480 31.321432
69.485 31.359324
69.490 29.794352
69.495 29.528095
69.500 28.91633
69.505 28.944607
69.510 29.35746
69.515 29.574793
69.520 29.424372
69.525 29.291735
69.530 29.811663
69.535 30.629648
69.540 30.57461
69.545 30.60931
69.550 30.670502
69.555 30.422096
69.560 30.966684
69.565 30.732361
69.570 29.971821
69.575 30.061562
69.580 30.176075
69.585 30.549963
69.590 30.440765
69.595 30.033787
69.600 29.348562
69.605 28.672665
69.610 28.48732
69.615 28.055088
69.620 27.622332
69.625 27.968973
69.630 28.154442
69.635 29.120226
69.640 29.84696
69.645 29.81617
69.650 29.467117
69.655 29.613976
69.660 30.373259
69.665 30.1014
69.670 29.807051
69.675 29.604473
69.680 29.141197
69.685 29.659502
69.690 29.67345
69.695 29.571678
69.700 30.430386
69.705 30.344574
69.710 30.846006
69.715 31.609154
69.720 31.474842
69.725 31.506104
69.730 31.096598
69.735 30.009802
69.740 28.858393
69.745 28.098679
69.750 27.465147
69.755 26.997721
69.760 27.296034
69.765 26.890951
69.770 26.904242
69.775 27.045507
69.780 26.879288
69.785 26.700235
69.790 26.96067
69.795 26.317656
69.800 26.440208
69.805 26.880241
69.810 27.019346
69.815 27.093458
69.820 26.945967
69.825 26.105682
69.830 26.401505
69.835 26.277277
69.840 25.751799
69.845 25.8092
69.850 25.69754
69.855 25.930555
69.860 25.25116
69.865 25.255964
69.870 25.021099
69.875 24.925892
69.880 24.672636
69.885 25.318996
69.890 24.847265
69.895 24.571484
69.900 24.203552
69.905 24.870949
69.910 25.119127
69.915 24.469156
69.920 24.085501
69.925 23.816927
69.930 22.95282
69.935 22.578564
69.940 21.861116
69.945 21.766014
69.950 21.783609
69.955 21.182814
69.960 21.348921
69.965 22.340443
69.970 22.202234
69.975 21.637045
69.980 21.296938
69.985 21.29661
69.990 21.566942
69.995 21.632345
70.000 20.636223
70.005 19.856291
70.010 19.786299
70.015 19.776421
70.020 19.746162
70.025 20.092934
70.030 20.178165
70.035 21.096165
70.040 21.661026
70.045 21.666813
70.050 21.791338
70.055 22.087645
70.060 21.934359
70.065 22.342825
70.070 21.864101
70.075 22.70738
70.080 22.851484
70.085 22.300171
70.090 21.812529
70.095 21.213173
70.100 21.041428
70.105 21.458874
70.110 20.827866
70.115 20.993046
70.120 21.395498
70.125 22.174622
70.130 22.321701
70.135 21.274422
70.140 20.78083
70.145 20.557127
70.150 20.544308
70.155 19.955259
70.160 19.135439
70.165 18.950205
70.170 19.70775
70.175 19.634256
70.180 19.761166
70.185 19.463577
70.190 19.697342
70.195 20.074055
70.200 19.880442
70.205 19.721859
70.210 19.820019
70.215 19.615713
70.220 19.601959
70.225 19.308676
70.230 19.196867
70.235 19.178032
70.240 18.833906
70.245 18.75758
70.250 18.384193
70.255 18.905149
70.260 18.852806
70.265 18.722593
70.270 18.90731
70.275 18.72427
70.280 18.612185
70.285 18.861839
70.290 18.305904
70.295 18.841009
70.300 19.150894
70.305 19.374258
70.310 19.819447
70.315 20.227064
70.320 20.585955
70.325 20.402243
70.330 20.178488
70.335 20.221352
70.340 20.11726
70.345 19.873962
70.350 19.728754
70.355 19.226627
70.360 19.186663
70.365 18.696442
70.370 18.204294
70.375 17.995047
70.380 19.125628
70.385 18.726213
70.390 18.982393
70.395 19.187433
70.400 19.353243
70.405 19.865654
70.410 20.12948
70.415 19.220936
70.420 19.150291
70.425 18.696033
70.430 18.888159
70.435 19.218702
70.440 19.046673
70.445 18.72068
70.450 19.075342
70.455 19.17981
70.460 19.305449
70.465 19.650768
70.470 19.632967
70.475 19.861908
70.480 19.848785
70.485 20.003141
70.490 20.604538
70.495 20.549492
70.500 20.186684
70.505 20.221041
70.510 19.66247
70.515 19.67263
70.520 19.20109
70.525 18.887329
70.530 18.459007
70.535 18.279968
70.540 18.259022
70.545 18.408859
70.550 18.692041
70.555 19.416183
70.560 19.616467
70.565 19.944038
70.570 19.888632
70.575 19.977516
70.580 19.649546
70.585 19.405489
70.590 18.830614
70.595 18.712408
70.600 18.371344
70.605 18.259523
70.610 18.539227
70.615 18.382587
70.620 18.598251
70.625 18.841883
70.630 18.735756
70.635 18.914812
70.640 18.858946
70.645 18.663288
70.650 18.702194
70.655 18.675938
70.660 18.523449
70.665 18.766403
70.670 19.010567
70.675 18.923054
70.680 19.222954
70.685 19.181023
70.690 19.460539
70.695 19.568428
70.700 19.2598
70.705 19.135977
70.710 18.818722
70.715 18.829491
70.720 18.716024
70.725 18.24519
70.730 18.212763
70.735 17.449261
70.740 17.059547
70.745 16.747187
70.750 17.131954
70.755 17.814562
70.760 17.757801
70.765 17.496708
70.770 18.00835
70.775 18.493128
70.780 18.040279
70.785 17.015261
70.790 16.870903
70.795 17.568649
70.800 18.366257
70.805 18.546181
70.810 18.368484
70.815 18.996136
70.820 19.80987
70.825 19.7715
70.830 19.085281
70.835 18.42028
70.840 18.513571
70.845 19.08392
70.850 18.861267
70.855 18.371731
70.860 18.02882
70.865 18.644257
70.870 19.048923
70.875 18.678068
70.880 18.290863
70.885 17.998354
70.890 18.365948
70.895 18.582294
70.900 18.943457
70.905 19.264929
70.910 19.540251
70.915 19.856663
70.920 20.346209
70.925 20.281273
70.930 19.900896
70.935 19.685125
70.940 19.978701
70.945 19.999107
70.950 20.476963
70.955 19.813667
70.960 20.123392
70.965 20.31077
70.970 20.321173
70.975 19.921785
70.980 19.516733
70.985 18.933403
70.990 18.908731
70.995 18.520409
71.000 18.251757
71.005 18.122313
71.010 18.334915
71.015 18.533472
71.020 18.905752
71.025 19.599052
71.030 20.102861
71.035 20.208704
71.040 20.269073
71.045 20.126966
71.050 19.871964
71.055 19.945244
71.060 19.719225
71.065 19.271547
71.070 19.10026
71.075 19.200081
71.080 19.403111
71.085 19.637577
71.090 19.905584
71.095 20.123795
71.100 20.131639
71.105 20.223488
71.110 19.798885
71.115 20.18993
71.120 20.06827
71.125 19.58766
71.130 19.491472
71.135 20.269691
71.140 20.433849
71.145 20.286982
71.150 19.537889
71.155 19.183868
71.160 18.823368
71.165 18.557804
71.170 18.034243
71.175 17.628115
71.180 17.298397
71.185 17.556059
71.190 17.982342
71.195 17.876352
71.200 17.829441
71.205 18.208702
71.210 18.845758
71.215 19.553135
71.220 19.36178
71.225 19.007036
71.230 18.827995
71.235 18.164751
71.240 17.620094
71.245 17.401691
71.250 17.529869
71.255 18.027859
71.260 18.077606
71.265 18.780075
71.270 18.989462
71.275 18.936129
71.280 18.523798
71.285 18.109999
71.290 18.014774
71.295 18.34371
71.300 18.705725
71.305 19.093863
71.310 19.15403
71.315 19.204268
71.320 19.032509
71.325 19.004808
71.330 18.35902
71.335 17.787727
71.340 18.167116
71.345 18.432749
71.350 19.174784
71.355 19.121342
71.360 19.465977
71.365 19.656382
71.370 19.337698
71.375 19.314129
71.380 19.761774
71.385 19.95788
71.390 20.105522
71.395 19.659777
71.400 20.312149
71.405 20.475481
71.410 20.234268
71.415 19.790739
71.420 19.353617
71.425 19.568193
71.430 19.920311
71.435 18.877052
71.440 18.348682
71.445 17.903139
71.450 17.593584
71.455 17.43289
71.460 17.129065
71.465 16.368824
71.470 16.661303
71.475 16.553671
71.480 17.009193
71.485 17.536915
71.490 17.904366
71.495 17.781189
71.500 18.980503
71.505 19.396038
71.510 19.581894
71.515 18.985359
71.520 18.820354
71.525 19.02421
71.530 19.015335
71.535 18.189665
71.540 18.278608
71.545 18.367748
71.550 18.061983
71.555 17.651228
71.560 18.129669
71.565 18.126842
71.570 17.995895
71.575 17.893515
71.580 17.862932
71.585 18.268923
71.590 18.109486
71.595 17.820833
71.600 17.982821
71.605 18.172483
71.610 17.833447
71.615 18.219446
71.620 18.080797
71.625 17.985546
71.630 18.52174
71.635 18.998745
71.640 19.044567
71.645 19.517197
71.650 18.999464
71.655 18.989122
71.660 18.696497
71.665 17.929644
71.670 17.836828
71.675 17.579466
71.680 17.089296
71.685 17.080725
71.690 17.471869
71.695 18.238958
71.700 18.30188
71.705 18.132921
71.710 19.056755
71.715 19.717045
71.720 19.685871
71.725 19.342909
71.730 19.075205
71.735 18.941061
71.740 18.527411
71.745 17.778124
71.750 18.00993
71.755 18.2775
71.760 18.422943
71.765 18.498753
71.770 18.915203
71.775 18.725241
71.780 18.67791
71.785 18.629639
71.790 18.277679
71.795 18.229769
71.800 18.220688
71.805 18.326397
71.810 18.00333
71.815 17.175379
71.820 16.81576
71.825 16.703135
71.830 16.322212
71.835 16.116222
71.840 17.000669
71.845 17.803595
71.850 18.527576
71.855 19.055767
71.860 19.728163
71.865 20.070745
71.870 20.287363
71.875 19.128838
71.880 19.017622
71.885 19.015011
71.890 18.9496
71.895 18.83786
71.900 18.573866
71.905 18.62571
71.910 18.602486
71.915 17.961304
71.920 17.700916
71.925 17.832596
71.930 18.221445
71.935 18.723186
71.940 18.320398
71.945 18.831425
71.950 19.116608
71.955 19.393578
71.960 19.121187
71.965 19.241592
71.970 18.956873
71.975 18.926279
71.980 18.960495
71.985 19.226915
71.990 19.118927
71.995 19.188482
72.000 18.764488
72.005 18.790003
72.010 18.92979
72.015 19.160582
72.020 18.927271
72.025 18.064478
72.030 18.044388
72.035 18.294298
72.040 19.022333
72.045 19.175329
72.050 19.408592
72.055 19.770323
72.060 20.03857
72.065 19.806534
72.070 19.529984
72.075 19.169859
72.080 19.289665
72.085 19.11063
72.090 19.478979
72.095 19.337908
72.100 19.131737
72.105 19.688618
72.110 19.352367
72.115 18.687588
72.120 19.000921
72.125 18.967976
72.130 18.904776
72.135 18.86496
72.140 18.660192
72.145 19.107918
72.150 19.042248
72.155 18.887173
72.160 18.778376
72.165 18.607641
72.170 18.267086
72.175 17.863222
72.180 18.241196
72.185 18.25202
72.190 17.967421
72.195 18.431004
72.200 18.591208
72.205 18.830929
72.210 18.929783
72.215 17.955225
72.220 18.278059
72.225 17.832602
72.230 18.131895
72.235 19.136314
72.240 19.443426
72.245 20.191322
72.250 20.902689
72.255 21.329628
72.260 21.303837
72.265 20.699184
72.270 19.769302
72.275 19.175261
72.280 18.689611
72.285 18.338785
72.290 18.123224
72.295 17.643145
72.300 17.110905
72.305 17.111282
72.310 16.929819
72.315 17.004892
72.320 16.206585
72.325 16.157202
72.330 16.48275
72.335 17.158825
72.340 16.972616
72.345 16.962973
72.350 16.428843
72.355 16.824114
72.360 17.401665
72.365 17.236877
72.370 17.006248
72.375 17.560839
72.380 18.088367
72.385 18.862734
72.390 18.78723
72.395 18.499737
72.400 18.842035
72.405 18.871206
72.410 18.373524
72.415 17.643545
72.420 16.822527
72.425 16.873772
72.430 17.143688
72.435 17.051842
72.440 17.47368
72.445 17.532047
72.450 17.835775
72.455 18.162588
72.460 18.016911
72.465 17.812944
72.470 17.590641
72.475 17.195105
72.480 17.509361
72.485 17.244329
72.490 16.649439
72.495 16.108639
72.500 16.437862
72.505 16.663391
72.510 16.414974
72.515 16.234915
72.520 16.666485
72.525 16.627779
72.530 16.541513
72.535 15.876862
72.540 16.427551
72.545 16.908978
72.550 17.354757
72.555 17.707825
72.560 18.381681
72.565 18.602674
72.570 18.781528
72.575 18.061964
72.580 17.771116
72.585 17.570858
72.590 17.668957
72.595 17.936321
72.600 18.279778
72.605 18.683277
72.610 19.257206
72.615 19.180197
72.620 18.578545
72.625 18.30513
72.630 17.858616
72.635 17.310322
72.640 16.668501
72.645 16.287703
72.650 16.457647
72.655 16.938931
72.660 17.47716
72.665 17.938095
72.670 18.02063
72.675 18.244287
72.680 17.958561
72.685 17.834492
72.690 17.14101
72.695 16.58419
72.700 16.587496
72.705 16.350832
72.710 16.143385
72.715 16.054968
72.720 16.564924
72.725 17.151064
72.730 17.071241
72.735 16.669239
72.740 16.873629
72.745 16.797064
72.750 16.66478
72.755 16.468914
72.760 16.004509
72.765 15.892501
72.770 15.99029
72.775 15.847576
72.780 16.067532
72.785 16.022642
72.790 15.882741
72.795 15.962773
72.800 15.74021
72.805 15.830173
72.810 16.582144
72.815 16.582893
72.820 16.421295
72.825 16.745258
72.830 16.890003
72.835 17.411461
72.840 17.638931
72.845 17.368797
72.850 17.682964
72.855 17.689079
72.860 17.933844
72.865 18.345255
72.870 18.086575
72.875 17.619032
72.880 17.419739
72.885 17.618383
72.890 17.564314
72.895 17.17403
72.900 16.647516
72.905 17.046787
72.910 17.092709
72.915 17.44939
72.920 17.18214
72.925 17.19585
72.930 17.427654
72.935 17.224495
72.940 16.942238
72.945 17.582003
72.950 17.410566
72.955 17.683342
72.960 17.972149
72.965 18.180401
72.970 18.56398
72.975 18.539389
72.980 18.09026
72.985 18.320547
72.990 18.336054
72.995 18.085114
73.000 17.703308
