!@!!GADDS PLOTSO FILE: Chi integration type
!@!!Title/SampleName: map-ac
!@!!Comment: ?
!@!!User: Bruker Instrument Administrator
!@!!Site: University of Illinois Chicago
!@!!Frame: map-ac_01_000.gfrm
!@!!Wavelengths    1.54184   1.54056   1.54439
!@!!Frame angles: 2Theta: 63.000 Omega: 50.000 Phi: 0.000 Chi: 90.000
!@!!Integration range: 2Theta: 53.000 to 73.000  Gamma: -105.000 to -75.000
!@!!Integration method: bin normalized
!@!N
!@!SS
!@!M
!@!L 0.0 0.0 0.0 0.0
!@!XDegrees
!@!YCounts
53.000 9.572203
53.005 9.447237
53.010 9.676743
53.015 9.813586
53.020 9.753937
53.025 9.535359
53.030 9.655792
53.035 10.20073
53.040 10.545499
53.045 10.453769
53.050 10.352278
53.055 10.377771
53.060 10.465524
53.065 10.132563
53.070 9.629432
53.075 9.270237
53.080 9.042217
53.085 8.803596
53.090 8.698616
53.095 8.75003
53.100 8.64558
53.105 8.587079
53.110 8.755161
53.115 9.001244
53.120 9.183828
53.125 9.187757
53.130 9.197319
53.135 9.275252
53.140 9.256012
53.145 8.685039
53.150 8.27667
53.155 8.163041
53.160 8.08095
53.165 8.321616
53.170 8.105767
53.175 8.353271
53.180 8.190499
53.185 8.249736
53.190 8.751734
53.195 8.85014
53.200 9.01571
53.205 9.319049
53.210 9.780426
53.215 10.326372
53.220 10.489568
53.225 10.578938
53.230 10.952416
53.235 11.078056
53.240 10.978486
53.245 10.588427
53.250 10.230783
53.255 10.632592
53.260 10.646
53.265 10.355982
53.270 10.420911
53.275 10.170216
53.280 11.012298
53.285 11.844398
53.290 11.421608
53.295 11.231554
53.300 11.350084
53.305 11.501058
53.310 11.407875
53.315 10.812564
53.320 10.358455
53.325 10.3161
53.330 10.061342
53.335 9.86659
53.340 9.604277
53.345 9.4683
53.350 9.324126
53.355 9.499831
53.360 9.959023
53.365 10.047748
53.370 10.211241
53.375 10.455414
53.380 10.718934
53.385 11.069613
53.390 11.033551
53.395 10.847703
53.400 10.409367
53.405 10.445829
53.410 10.513842
53.415 10.273777
53.420 10.026077
53.425 9.591331
53.430 9.772166
53.435 9.946298
53.440 9.890673
53.445 9.717196
53.450 9.782589
53.455 9.604055
53.460 9.065398
53.465 8.693934
53.470 8.84584
53.475 9.021155
53.480 8.932714
53.485 8.812701
53.490 8.988199
53.495 9.315225
53.500 9.797791
53.505 10.117325
53.510 10.190089
53.515 10.223334
53.520 10.236393
53.525 10.612402
53.530 10.733785
53.535 10.464867
53.540 10.152301
53.545 9.84313
53.550 10.060446
53.555 10.061236
53.560 9.859225
53.565 9.775513
53.570 9.947593
53.575 10.023324
53.580 10.268043
53.585 10.277439
53.590 10.767078
53.595 11.119183
53.600 11.650377
53.605 11.835584
53.610 11.883557
53.615 11.799504
53.620 11.7488
53.625 11.463231
53.630 11.497413
53.635 11.18217
53.640 10.78924
53.645 10.698921
53.650 10.663949
53.655 10.677455
53.660 10.366789
53.665 9.86934
53.670 9.910839
53.675 10.545014
53.680 10.717982
53.685 10.713019
53.690 10.502769
53.695 10.699807
53.700 11.075302
53.705 10.92151
53.710 10.338492
53.715 10.248974
53.720 10.579779
53.725 10.98617
53.730 10.863945
53.735 10.571269
53.740 10.193717
53.745 9.830512
53.750 9.624136
53.755 9.203056
53.760 9.008531
53.765 9.095079
53.770 9.109088
53.775 9.696166
53.780 10.07068
53.785 10.104797
53.790 9.681643
53.795 9.772282
53.800 10.006862
53.805 10.530374
53.810 10.717855
53.815 10.73283
53.820 10.464832
53.825 10.659513
53.830 10.879646
53.835 10.523854
53.840 9.926946
53.845 9.663952
53.850 9.52848
53.855 9.987348
53.860 10.274661
53.865 10.055501
53.870 10.062329
53.875 10.204427
53.880 10.470284
53.885 10.661977
53.890 10.677341
53.895 10.742756
53.900 10.93595
53.905 11.130786
53.910 11.025987
53.915 10.919744
53.920 11.198976
53.925 11.25768
53.930 11.299816
53.935 10.885085
53.940 11.109249
53.945 11.195115
53.950 11.491615
53.955 11.62177
53.960 11.486611
53.965 11.522246
53.970 11.691834
53.975 11.213088
53.980 11.265271
53.985 11.039835
53.990 10.911702
53.995 10.603202
54.000 10.580807
54.005 11.06708
54.010 11.034332
54.015 11.140047
54.020 11.367964
54.025 11.5407
54.030 12.158186
54.035 11.785847
54.040 11.583465
54.045 11.661821
54.050 11.406965
54.055 11.107588
54.060 10.775641
54.065 10.664988
54.070 11.081928
54.075 10.952587
54.080 10.880543
54.085 10.687201
54.090 10.498749
54.095 10.574863
54.100 10.149355
54.105 10.073908
54.110 10.3465
54.115 10.598456
54.120 10.591646
54.125 10.339773
54.130 10.605521
54.135 10.948119
54.140 10.833075
54.145 11.298102
54.150 11.285795
54.155 11.795773
54.160 12.026715
54.165 11.382424
54.170 11.991798
54.175 11.751813
54.180 11.382345
54.185 11.518598
54.190 11.920177
54.195 12.056479
54.200 12.492256
54.205 12.321131
54.210 12.61329
54.215 12.597553
54.220 12.362392
54.225 12.182893
54.230 12.323699
54.235 12.400723
54.240 12.300094
54.245 12.660035
54.250 12.601077
54.255 12.165083
54.260 11.80023
54.265 11.284234
54.270 11.238153
54.275 11.222793
54.280 10.63743
54.285 10.638317
54.290 11.161781
54.295 11.251825
54.300 11.422514
54.305 11.309308
54.310 11.422965
54.315 11.053796
54.320 10.765453
54.325 10.601127
54.330 10.161725
54.335 10.134043
54.340 9.945674
54.345 9.925276
54.350 10.462756
54.355 10.50271
54.360 10.746989
54.365 11.523676
54.370 11.170488
54.375 10.786658
54.380 10.836953
54.385 11.037265
54.390 11.12434
54.395 10.806069
54.400 10.861216
54.405 10.726182
54.410 10.517982
54.415 10.138125
54.420 10.02212
54.425 10.449717
54.430 10.54915
54.435 10.599854
54.440 11.407273
54.445 11.891547
54.450 12.149611
54.455 11.959434
54.460 11.485802
54.465 11.042158
54.470 11.123316
54.475 10.760475
54.480 10.905298
54.485 10.979206
54.490 11.359656
54.495 11.280933
54.500 11.05711
54.505 10.819031
54.510 10.901477
54.515 10.766304
54.520 10.721659
54.525 10.466308
54.530 11.016077
54.535 10.815766
54.540 10.683185
54.545 10.565799
54.550 10.463681
54.555 10.511174
54.560 10.532599
54.565 10.381286
54.570 10.689457
54.575 11.305422
54.580 11.653056
54.585 12.229576
54.590 12.369103
54.595 12.411795
54.600 12.543251
54.605 13.231083
54.610 12.91161
54.615 13.184426
54.620 13.032462
54.625 13.079248
54.630 13.039121
54.635 13.136637
54.640 12.082096
54.645 11.732543
54.650 11.343719
54.655 11.347995
54.660 11.649867
54.665 11.75683
54.670 11.853079
54.675 13.018466
54.680 13.073008
54.685 12.681129
54.690 12.344607
54.695 12.264034
54.700 12.416308
54.705 12.137858
54.710 11.054611
54.715 11.038238
54.720 11.015596
54.725 11.236489
54.730 11.147667
54.735 10.744348
54.740 10.734048
54.745 10.977311
54.750 11.2158
54.755 11.314394
54.760 10.910635
54.765 11.285872
54.770 11.406336
54.775 11.307517
54.780 10.91208
54.785 10.800587
54.790 10.815926
54.795 11.434239
54.800 11.356668
54.805 11.371137
54.810 11.495247
54.815 12.191351
54.820 12.660125
54.825 12.590527
54.830 12.448543
54.835 12.531107
54.840 12.54651
54.845 12.708238
54.850 12.738511
54.855 12.82468
54.860 12.870107
54.865 12.061487
54.870 12.095303
54.875 12.316972
54.880 12.696284
54.885 12.286075
54.890 11.895388
54.895 12.204104
54.900 12.467339
54.905 12.012744
54.910 11.65123
54.915 10.949516
54.920 11.000617
54.925 11.126929
54.930 11.154475
54.935 11.361118
54.940 11.783432
54.945 12.257491
54.950 13.283193
54.955 13.379867
54.960 13.094481
54.965 13.052698
54.970 12.992733
54.975 12.759987
54.980 12.303075
54.985 11.825047
54.990 11.785851
54.995 11.783467
55.000 11.318575
55.005 11.210628
55.010 10.948432
55.015 11.070689
55.020 10.829919
55.025 10.922015
55.030 10.49896
55.035 10.351015
55.040 10.713326
55.045 10.810115
55.050 10.417784
55.055 10.769271
55.060 11.005693
55.065 11.320435
55.070 11.482033
55.075 11.511842
55.080 11.739097
55.085 12.181214
55.090 11.655554
55.095 11.544755
55.100 11.893497
55.105 12.137109
55.110 12.311235
55.115 12.163238
55.120 12.068171
55.125 12.281837
55.130 12.636091
55.135 12.501881
55.140 12.239514
55.145 12.211994
55.150 12.344415
55.155 12.654914
55.160 13.076407
55.165 12.808609
55.170 12.801502
55.175 12.822743
55.180 13.010624
55.185 12.852617
55.190 12.84405
55.195 12.60815
55.200 12.592451
55.205 12.543353
55.210 12.535864
55.215 12.690179
55.220 12.841005
55.225 12.49262
55.230 12.240734
55.235 12.596255
55.240 12.624744
55.245 12.457192
55.250 11.889601
55.255 11.878063
55.260 11.438148
55.265 11.494638
55.270 10.914695
55.275 10.928782
55.280 11.211117
55.285 12.027303
55.290 12.551199
55.295 12.591764
55.300 12.619098
55.305 12.90726
55.310 12.666381
55.315 12.180934
55.320 11.57885
55.325 11.775529
55.330 11.88756
55.335 12.032055
55.340 12.517349
55.345 12.426088
55.350 12.301862
55.355 12.748471
55.360 12.905495
55.365 13.379648
55.370 13.425477
55.375 13.330796
55.380 13.218269
55.385 13.413906
55.390 13.009825
55.395 12.505867
55.400 12.209511
55.405 11.924373
55.410 12.471126
55.415 12.94871
55.420 12.615631
55.425 12.910872
55.430 13.01226
55.435 12.857785
55.440 12.700652
55.445 12.549183
55.450 12.604085
55.455 12.482404
55.460 12.037324
55.465 12.111833
55.470 11.978109
55.475 12.349399
55.480 12.025308
55.485 11.686687
55.490 11.505301
55.495 11.506642
55.500 11.901324
55.505 12.424776
55.510 11.995228
55.515 11.837032
55.520 12.058277
55.525 11.597947
55.530 11.536799
55.535 11.118115
55.540 10.77921
55.545 11.276045
55.550 11.492303
55.555 11.466803
55.560 12.200838
55.565 12.791828
55.570 13.019354
55.575 13.626263
55.580 13.957919
55.585 14.602784
55.590 14.945313
55.595 14.879193
55.600 15.018956
55.605 15.138864
55.610 14.590271
55.615 14.666497
55.620 14.294001
55.625 14.524384
55.630 14.35397
55.635 14.074313
55.640 14.126211
55.645 13.712543
55.650 13.739738
55.655 14.195161
55.660 14.24137
55.665 14.302029
55.670 14.576944
55.675 14.646418
55.680 14.822555
55.685 14.241881
55.690 13.623898
55.695 13.327765
55.700 12.934344
55.705 12.390882
55.710 11.840186
55.715 11.123192
55.720 11.144592
55.725 11.474915
55.730 11.988637
55.735 12.636235
55.740 12.579837
55.745 12.445303
55.750 12.816338
55.755 13.044275
55.760 12.520411
55.765 11.842208
55.770 11.466598
55.775 11.994515
55.780 12.587731
55.785 12.484241
55.790 12.141316
55.795 12.336489
55.800 12.771703
55.805 13.138362
55.810 13.139434
55.815 13.229663
55.820 13.22178
55.825 13.434668
55.830 13.692042
55.835 13.628294
55.840 13.2961
55.845 13.216213
55.850 13.095388
55.855 13.125638
55.860 12.451834
55.865 12.181571
55.870 11.752226
55.875 11.242112
55.880 11.101431
55.885 11.40142
55.890 11.876308
55.895 12.301869
55.900 11.922461
55.905 12.172416
55.910 12.746919
55.915 13.11719
55.920 13.202224
55.925 13.178018
55.930 13.20763
55.935 13.798378
55.940 14.042349
55.945 14.455091
55.950 14.144151
55.955 13.47966
55.960 12.928363
55.965 12.935844
55.970 12.586681
55.975 12.074469
55.980 11.479321
55.985 11.433056
55.990 11.857064
55.995 12.659573
56.000 12.437115
56.005 12.418236
56.010 12.338676
56.015 12.534411
56.020 12.140453
56.025 11.745802
56.030 11.60495
56.035 12.023358
56.040 12.322768
56.045 12.488533
56.050 12.538328
56.055 13.113328
56.060 12.830558
56.065 12.628761
56.070 12.48092
56.075 12.536867
56.080 12.532385
56.085 12.402461
56.090 13.088525
56.095 13.780266
56.100 13.515964
56.105 13.682711
56.110 13.527638
56.115 13.81694
56.120 14.020477
56.125 12.983341
56.130 12.833371
56.135 13.165136
56.140 13.103335
56.145 12.811076
56.150 12.413785
56.155 12.430007
56.160 13.022234
56.165 13.045986
56.170 12.887976
56.175 12.598512
56.180 12.672142
56.185 12.651937
56.190 12.609572
56.195 12.738076
56.200 12.442759
56.205 12.286338
56.210 12.007278
56.215 12.435859
56.220 12.97299
56.225 13.505356
56.230 13.943217
56.235 14.8072
56.240 14.892386
56.245 14.89245
56.250 14.463758
56.255 13.974253
56.260 12.999561
56.265 12.318716
56.270 11.831235
56.275 11.883639
56.280 12.359797
56.285 12.666939
56.290 12.670102
56.295 12.768607
56.300 12.467555
56.305 12.777964
56.310 13.103695
56.315 13.048695
56.320 13.065822
56.325 13.532791
56.330 13.607104
56.335 13.946595
56.340 13.889541
56.345 13.641537
56.350 13.3866
56.355 13.169228
56.360 12.798866
56.365 13.23583
56.370 13.732751
56.375 13.641129
56.380 13.52102
56.385 13.215927
56.390 13.365541
56.395 13.407776
56.400 13.295481
56.405 12.584769
56.410 12.429448
56.415 12.795737
56.420 12.994527
56.425 13.172872
56.430 13.341129
56.435 13.083667
56.440 12.840816
56.445 12.419414
56.450 12.18282
56.455 12.058813
56.460 12.282045
56.465 12.033958
56.470 12.162913
56.475 12.726829
56.480 13.043432
56.485 13.007236
56.490 13.62854
56.495 13.624815
56.500 13.697199
56.505 13.705553
56.510 13.625043
56.515 13.175497
56.520 13.016777
56.525 12.762983
56.530 12.477876
56.535 12.659964
56.540 12.331243
56.545 12.249742
56.550 12.700689
56.555 12.643784
56.560 12.349589
56.565 12.485722
56.570 12.370628
56.575 12.748711
56.580 12.937222
56.585 12.977856
56.590 13.240869
56.595 13.434673
56.600 13.238399
56.605 13.482298
56.610 13.103671
56.615 13.152416
56.620 13.118271
56.625 12.779578
56.630 12.76189
56.635 12.88768
56.640 12.920413
56.645 13.038161
56.650 13.216729
56.655 13.053756
56.660 13.053415
56.665 13.292471
56.670 13.197857
56.675 12.84751
56.680 12.63341
56.685 12.416173
56.690 13.135909
56.695 13.024462
56.700 13.295657
56.705 13.646214
56.710 13.990267
56.715 14.173928
56.720 14.62114
56.725 14.483832
56.730 14.916872
56.735 14.131603
56.740 14.071301
56.745 14.556654
56.750 14.987686
56.755 14.607819
56.760 14.834958
56.765 14.761336
56.770 15.048867
56.775 14.899555
56.780 14.598695
56.785 14.229581
56.790 14.388425
56.795 14.462471
56.800 14.483818
56.805 14.061154
56.810 13.958565
56.815 14.381783
56.820 14.186681
56.825 14.300712
56.830 13.70393
56.835 13.754978
56.840 14.21832
56.845 14.586308
56.850 14.155423
56.855 14.37824
56.860 13.935712
56.865 14.320578
56.870 14.859085
56.875 14.920007
56.880 14.614898
56.885 14.35955
56.890 14.215242
56.895 14.458649
56.900 14.280725
56.905 14.319743
56.910 14.714505
56.915 15.264339
56.920 15.45997
56.925 15.60755
56.930 15.319684
56.935 14.831347
56.940 13.896522
56.945 13.467123
56.950 13.036627
56.955 12.944215
56.960 12.796251
56.965 12.696158
56.970 13.0439
56.975 13.47154
56.980 12.806972
56.985 12.834874
56.990 13.005413
56.995 13.183274
57.000 13.312597
57.005 13.066142
57.010 13.303802
57.015 14.096311
57.020 14.238872
57.025 14.575432
57.030 14.373445
57.035 14.604156
57.040 14.657343
57.045 14.747478
57.050 15.144919
57.055 15.533445
57.060 15.253675
57.065 15.129535
57.070 15.259171
57.075 15.907582
57.080 15.37735
57.085 14.449183
57.090 13.846123
57.095 13.828847
57.100 13.859693
57.105 13.597708
57.110 13.667303
57.115 14.902808
57.120 15.735594
57.125 16.137566
57.130 16.333656
57.135 16.617521
57.140 16.528805
57.145 16.20236
57.150 15.476399
57.155 15.070418
57.160 15.010727
57.165 15.222423
57.170 15.352808
57.175 15.220915
57.180 15.065614
57.185 15.008625
57.190 14.876298
57.195 14.571839
57.200 14.355336
57.205 14.202959
57.210 14.22451
57.215 13.934817
57.220 14.085255
57.225 14.191209
57.230 13.977546
57.235 13.971663
57.240 13.616117
57.245 14.101542
57.250 14.368122
57.255 14.213798
57.260 14.343
57.265 14.985141
57.270 15.284736
57.275 15.612684
57.280 14.695273
57.285 14.806964
57.290 14.460495
57.295 14.09458
57.300 14.304243
57.305 14.238461
57.310 14.186026
57.315 14.955356
57.320 15.19505
57.325 15.792551
57.330 15.708885
57.335 15.077242
57.340 14.952993
57.345 15.08155
57.350 14.892115
57.355 14.732361
57.360 14.183215
57.365 14.327917
57.370 14.884133
57.375 15.637431
57.380 15.305017
57.385 15.10614
57.390 15.199963
57.395 15.186186
57.400 15.198194
57.405 14.965657
57.410 14.606355
57.415 15.020129
57.420 14.586338
57.425 14.195264
57.430 14.308334
57.435 14.254279
57.440 14.150331
57.445 13.507683
57.450 13.603201
57.455 14.509977
57.460 15.349723
57.465 15.770371
57.470 15.538995
57.475 15.571712
57.480 16.210787
57.485 16.452925
57.490 16.16272
57.495 15.891006
57.500 15.681065
57.505 15.929235
57.510 15.984152
57.515 15.865196
57.520 14.962784
57.525 14.672376
57.530 14.352129
57.535 14.622417
57.540 14.736568
57.545 14.855551
57.550 14.874152
57.555 15.941671
57.560 16.13126
57.565 16.301592
57.570 16.158035
57.575 16.182552
57.580 16.425989
57.585 16.230932
57.590 15.53845
57.595 15.318118
57.600 15.283704
57.605 15.236882
57.610 14.990417
57.615 14.870645
57.620 14.832658
57.625 15.18989
57.630 15.114053
57.635 15.497651
57.640 15.610291
57.645 15.425954
57.650 15.321733
57.655 15.249059
57.660 14.926865
57.665 14.846892
57.670 14.347875
57.675 14.499786
57.680 14.636455
57.685 14.939233
57.690 15.227056
57.695 15.556756
57.700 15.583627
57.705 15.764929
57.710 15.880832
57.715 15.474729
57.720 15.455843
57.725 15.247131
57.730 14.903034
57.735 15.07106
57.740 14.368901
57.745 14.516501
57.750 14.885479
57.755 14.577574
57.760 14.383219
57.765 14.591792
57.770 14.501829
57.775 14.8613
57.780 14.550878
57.785 14.507482
57.790 14.60057
57.795 14.298994
57.800 13.739689
57.805 13.187151
57.810 13.500887
57.815 13.399999
57.820 13.209463
57.825 13.633924
57.830 13.795945
57.835 13.790401
57.840 13.875254
57.845 13.363358
57.850 13.79045
57.855 13.840088
57.860 13.938877
57.865 14.041314
57.870 14.09833
57.875 14.434687
57.880 14.776212
57.885 14.513288
57.890 14.733305
57.895 14.71163
57.900 14.758142
57.905 14.628217
57.910 14.533451
57.915 14.188854
57.920 14.216158
57.925 13.711754
57.930 13.487849
57.935 13.984824
57.940 14.489996
57.945 14.104754
57.950 14.10074
57.955 13.834715
57.960 13.856892
57.965 13.6399
57.970 13.052838
57.975 12.858788
57.980 12.697078
57.985 12.873621
57.990 13.250397
57.995 13.25567
58.000 13.833892
58.005 14.299708
58.010 14.972404
58.015 15.339903
58.020 14.918413
58.025 14.699063
58.030 14.600811
58.035 14.344004
58.040 14.019606
58.045 13.727934
58.050 13.951228
58.055 14.404784
58.060 14.838463
58.065 14.862414
58.070 14.483298
58.075 14.607135
58.080 14.666274
58.085 14.350868
58.090 14.281983
58.095 14.268556
58.100 14.297007
58.105 14.634131
58.110 14.601943
58.115 14.486859
58.120 15.045018
58.125 15.421074
58.130 15.265725
58.135 15.362359
58.140 15.670821
58.145 15.733595
58.150 15.462515
58.155 15.179349
58.160 14.797661
58.165 15.325023
58.170 15.865636
58.175 15.702142
58.180 15.274142
58.185 15.142725
58.190 14.918687
58.195 15.412013
58.200 15.282064
58.205 15.369391
58.210 15.199875
58.215 15.344803
58.220 15.644392
58.225 15.871581
58.230 15.395925
58.235 15.016185
58.240 14.621452
58.245 14.912473
58.250 15.066668
58.255 14.3972
58.260 13.718022
58.265 13.8364
58.270 14.136638
58.275 14.076016
58.280 13.759444
58.285 14.068278
58.290 14.431503
58.295 14.688289
58.300 14.93357
58.305 14.821494
58.310 14.592387
58.315 14.454995
58.320 14.496248
58.325 14.707522
58.330 14.764413
58.335 14.316536
58.340 14.557485
58.345 14.948055
58.350 15.229203
58.355 14.948385
58.360 14.76022
58.365 14.986211
58.370 14.92468
58.375 14.533134
58.380 14.277234
58.385 14.841622
58.390 15.370636
58.395 15.376793
58.400 15.096934
58.405 15.348271
58.410 15.506875
58.415 15.525021
58.420 14.892816
58.425 14.724605
58.430 14.849022
58.435 15.124681
58.440 15.505947
58.445 15.783397
58.450 15.830655
58.455 16.111258
58.460 15.683469
58.465 15.605185
58.470 15.151237
58.475 14.289486
58.480 14.386441
58.485 14.522654
58.490 15.137192
58.495 15.998854
58.500 16.08098
58.505 16.429718
58.510 16.627043
58.515 16.12604
58.520 16.098907
58.525 15.721228
58.530 15.298758
58.535 15.461012
58.540 15.349067
58.545 15.335779
58.550 15.32886
58.555 15.752384
58.560 15.757211
58.565 15.672876
58.570 15.631732
58.575 16.15517
58.580 16.1049
58.585 15.826272
58.590 15.426487
58.595 14.878734
58.600 14.576361
58.605 14.242741
58.610 13.799032
58.615 13.984764
58.620 14.408792
58.625 14.910436
58.630 15.898437
58.635 16.211727
58.640 16.509951
58.645 16.691675
58.650 16.696409
58.655 16.679625
58.660 15.953876
58.665 15.381822
58.670 15.313476
58.675 15.431129
58.680 15.7147
58.685 15.695242
58.690 15.767842
58.695 15.632748
58.700 15.551025
58.705 15.756353
58.710 15.197725
58.715 14.946272
58.720 14.438746
58.725 14.033846
58.730 14.424106
58.735 14.570736
58.740 14.471485
58.745 14.5619
58.750 15.008304
58.755 15.751644
58.760 15.868839
58.765 15.850618
58.770 15.870914
58.775 16.138472
58.780 16.129229
58.785 16.06395
58.790 16.181566
58.795 16.38619
58.800 16.516396
58.805 16.459784
58.810 16.763334
58.815 16.33301
58.820 15.932226
58.825 15.376249
58.830 14.972368
58.835 14.763136
58.840 14.597577
58.845 14.449067
58.850 14.954051
58.855 15.383889
58.860 15.636362
58.865 15.889837
58.870 15.930202
58.875 16.467686
58.880 16.530937
58.885 16.677681
58.890 16.761303
58.895 17.081354
58.900 17.258509
58.905 17.148043
58.910 17.027037
58.915 16.804413
58.920 17.028727
58.925 16.70327
58.930 16.282528
58.935 16.020264
58.940 15.778181
58.945 15.623072
58.950 15.639522
58.955 15.051357
58.960 15.00343
58.965 14.838909
58.970 14.635116
58.975 15.056394
58.980 15.146048
58.985 15.044154
58.990 15.074706
58.995 15.328489
59.000 15.701513
59.005 16.545572
59.010 16.106026
59.015 15.911406
59.020 15.746973
59.025 15.997674
59.030 16.221363
59.035 16.114819
59.040 15.963256
59.045 16.35817
59.050 16.424095
59.055 16.532452
59.060 16.58152
59.065 16.297123
59.070 16.227654
59.075 15.909753
59.080 15.541672
59.085 15.718767
59.090 16.137272
59.095 16.175148
59.100 16.463583
59.105 16.422634
59.110 16.3417
59.115 16.155037
59.120 16.086866
59.125 15.589099
59.130 15.345901
59.135 15.504493
59.140 15.843144
59.145 16.077923
59.150 16.04151
59.155 15.827619
59.160 15.991326
59.165 16.084616
59.170 16.000233
59.175 16.03595
59.180 16.291689
59.185 17.252337
59.190 17.949549
59.195 18.149364
59.200 17.976683
59.205 17.66647
59.210 17.81111
59.215 17.941677
59.220 16.814886
59.225 16.107193
59.230 16.317835
59.235 16.425783
59.240 16.447577
59.245 15.870058
59.250 15.386957
59.255 15.030231
59.260 14.555359
59.265 14.13573
59.270 14.222776
59.275 14.133062
59.280 14.383065
59.285 14.492243
59.290 15.917698
59.295 16.81218
59.300 17.223223
59.305 17.491573
59.310 17.557384
59.315 17.602798
59.320 18.228296
59.325 17.829315
59.330 17.223186
59.335 16.627834
59.340 16.546883
59.345 16.69899
59.350 16.385948
59.355 15.909654
59.360 16.060114
59.365 16.432278
59.370 16.689798
59.375 16.975237
59.380 17.472033
59.385 17.534803
59.390 17.876522
59.395 17.367479
59.400 17.945515
59.405 18.148663
59.410 17.843069
59.415 17.617332
59.420 17.243464
59.425 16.830179
59.430 16.794777
59.435 16.530668
59.440 16.598074
59.445 16.222355
59.450 16.099152
59.455 17.009399
59.460 17.240669
59.465 17.158846
59.470 17.118366
59.475 17.162369
59.480 17.443554
59.485 17.502373
59.490 17.197741
59.495 17.517349
59.500 18.138945
59.505 18.212181
59.510 18.348532
59.515 18.538412
59.520 18.263191
59.525 17.801998
59.530 17.210876
59.535 17.039658
59.540 16.894871
59.545 17.290537
59.550 17.234142
59.555 17.766806
59.560 18.644695
59.565 19.159189
59.570 19.543032
59.575 19.357038
59.580 19.158592
59.585 19.260231
59.590 19.320711
59.595 18.91432
59.600 18.290869
59.605 17.829552
59.610 17.823656
59.615 17.695158
59.620 17.34984
59.625 17.174717
59.630 17.916763
59.635 18.179758
59.640 18.25568
59.645 18.607584
59.650 18.941851
59.655 19.208332
59.660 19.56925
59.665 18.725367
59.670 18.887772
59.675 18.947048
59.680 19.471655
59.685 19.956774
59.690 19.451595
59.695 19.766659
59.700 20.166756
59.705 19.592171
59.710 19.575151
59.715 19.196877
59.720 19.263639
59.725 19.802401
59.730 19.294254
59.735 20.094143
59.740 21.089474
59.745 21.239243
59.750 21.086742
59.755 21.208382
59.760 21.436396
59.765 21.548607
59.770 20.940763
59.775 21.0672
59.780 21.226267
59.785 21.389206
59.790 21.237104
59.795 20.893635
59.800 20.960081
59.805 21.445501
59.810 21.199913
59.815 21.270594
59.820 21.14395
59.825 20.796474
59.830 20.77243
59.835 20.564348
59.840 20.470392
59.845 20.047184
59.850 19.130941
59.855 19.058023
59.860 19.579781
59.865 19.77751
59.870 19.663759
59.875 19.585247
59.880 20.265028
59.885 20.666323
59.890 21.137667
59.895 21.54438
59.900 21.523657
59.905 21.899889
59.910 22.044674
59.915 21.400612
59.920 21.309191
59.925 20.564434
59.930 20.102983
59.935 20.31778
59.940 20.645748
59.945 21.397942
59.950 21.979681
59.955 22.317476
59.960 22.909069
59.965 23.24102
59.970 23.046276
59.975 22.893953
59.980 22.639629
59.985 22.194578
59.990 22.633482
59.995 22.451757
60.000 22.436028
60.005 22.556702
60.010 22.294258
60.015 22.455921
60.020 23.021925
60.025 23.182827
60.030 22.8978
60.035 22.659946
60.040 22.637074
60.045 22.657728
60.050 22.86585
60.055 23.523169
60.060 22.973295
60.065 22.860556
60.070 23.268362
60.075 23.66411
60.080 23.710777
60.085 23.111004
60.090 22.430405
60.095 23.010544
60.100 22.986052
60.105 22.884972
60.110 22.855324
60.115 22.315187
60.120 22.69158
60.125 23.00703
60.130 22.849319
60.135 23.365738
60.140 23.447317
60.145 23.32799
60.150 23.733923
60.155 24.066057
60.160 23.709177
60.165 23.46031
60.170 23.517548
60.175 24.03116
60.180 24.410156
60.185 24.562296
60.190 24.400309
60.195 24.791201
60.200 24.926491
60.205 24.809032
60.210 24.546862
60.215 24.807318
60.220 25.038927
60.225 24.861353
60.230 24.519159
60.235 24.297701
60.240 24.230583
60.245 23.646526
60.250 23.284378
60.255 21.96007
60.260 21.265268
60.265 21.235083
60.270 21.021563
60.275 20.080706
60.280 19.758785
60.285 19.375603
60.290 20.14439
60.295 20.506178
60.300 20.424683
60.305 20.542923
60.310 21.130703
60.315 21.541676
60.320 21.935545
60.325 21.734406
60.330 22.018677
60.335 22.046198
60.340 22.163877
60.345 22.101152
60.350 22.298325
60.355 22.46759
60.360 22.839222
60.365 22.8699
60.370 23.433849
60.375 23.509253
60.380 23.770998
60.385 23.772745
60.390 23.34042
60.395 23.756798
60.400 23.452562
60.405 23.302135
60.410 23.008593
60.415 22.217972
60.420 21.817785
60.425 21.381004
60.430 20.736992
60.435 20.95006
60.440 20.856041
60.445 21.3615
60.450 21.650772
60.455 21.948717
60.460 22.475382
60.465 22.183561
60.470 22.442461
60.475 22.948889
60.480 22.921606
60.485 22.54521
60.490 22.011425
60.495 21.637159
60.500 21.380045
60.505 20.718452
60.510 20.441412
60.515 20.480469
60.520 20.90873
60.525 20.72327
60.530 20.53401
60.535 20.47822
60.540 20.423006
60.545 19.731838
60.550 19.49424
60.555 19.30839
60.560 19.519951
60.565 19.799818
60.570 20.010672
60.575 19.881802
60.580 20.38069
60.585 20.591698
60.590 20.640711
60.595 20.909781
60.600 21.041599
60.605 21.02327
60.610 20.896597
60.615 20.60919
60.620 20.795723
60.625 21.00927
60.630 20.756031
60.635 20.231165
60.640 20.129471
60.645 20.064211
60.650 20.003492
60.655 19.430038
60.660 18.903852
60.665 19.106297
60.670 19.586172
60.675 19.547129
60.680 19.62327
60.685 19.605936
60.690 19.318577
60.695 19.511309
60.700 19.854033
60.705 20.070471
60.710 19.114822
60.715 18.589258
60.720 18.556969
60.725 19.048569
60.730 19.335236
60.735 18.716349
60.740 18.338247
60.745 19.502363
60.750 20.310825
60.755 20.247669
60.760 19.513865
60.765 19.802258
60.770 19.895172
60.775 19.366541
60.780 18.435318
60.785 17.424627
60.790 17.618034
60.795 17.864355
60.800 17.964491
60.805 18.653387
60.810 19.060862
60.815 19.284595
60.820 19.848892
60.825 20.013741
60.830 20.538641
60.835 19.688059
60.840 19.02244
60.845 18.94311
60.850 18.861555
60.855 18.469919
60.860 18.253969
60.865 17.566149
60.870 17.689524
60.875 17.69445
60.880 17.374035
60.885 17.154394
60.890 17.311604
60.895 17.74106
60.900 17.987362
60.905 17.732479
60.910 17.536745
60.915 17.603786
60.920 18.113314
60.925 18.073486
60.930 17.770386
60.935 17.332685
60.940 17.384741
60.945 17.632418
60.950 18.431868
60.955 18.699249
60.960 18.69952
60.965 18.763445
60.970 19.778223
60.975 19.89781
60.980 20.004194
60.985 19.565155
60.990 19.637148
60.995 19.431271
61.000 19.28311
61.005 18.93512
61.010 18.927427
61.015 18.799898
61.020 18.506817
61.025 18.333927
61.030 18.218218
61.035 18.330996
61.040 18.205614
61.045 17.949036
61.050 17.760696
61.055 17.688393
61.060 16.702852
61.065 16.869568
61.070 16.556746
61.075 16.29388
61.080 16.477448
61.085 16.647024
61.090 16.781778
61.095 17.345991
61.100 17.232172
61.105 17.76849
61.110 17.914133
61.115 18.489609
61.120 18.879326
61.125 18.940783
61.130 19.474493
61.135 19.406469
61.140 19.185614
61.145 19.068621
61.150 18.505354
61.155 17.582018
61.160 16.684845
61.165 15.893468
61.170 15.901528
61.175 15.631074
61.180 15.213675
61.185 14.98858
61.190 15.106286
61.195 15.789476
61.200 16.610374
61.205 16.571596
61.210 16.719807
61.215 17.117365
61.220 17.840307
61.225 18.292257
61.230 18.774687
61.235 18.647959
61.240 18.611504
61.245 18.854336
61.250 18.758909
61.255 18.990402
61.260 19.011185
61.265 18.837809
61.270 18.847965
61.275 19.148573
61.280 19.006554
61.285 19.111872
61.290 18.658636
61.295 18.034943
61.300 17.88343
61.305 18.023361
61.310 17.803333
61.315 18.004238
61.320 17.620182
61.325 17.468634
61.330 17.378731
61.335 16.572504
61.340 16.317308
61.345 15.896554
61.350 15.640132
61.355 15.982642
61.360 16.361256
61.365 16.828421
61.370 16.232191
61.375 16.428844
61.380 17.218987
61.385 16.821318
61.390 16.382023
61.395 16.558218
61.400 16.735628
61.405 17.349728
61.410 17.170219
61.415 17.184347
61.420 18.333517
61.425 19.165089
61.430 19.350492
61.435 19.700724
61.440 20.017883
61.445 19.392683
61.450 19.13937
61.455 18.22583
61.460 17.703508
61.465 17.451704
61.470 16.924158
61.475 16.572065
61.480 17.382654
61.485 17.263199
61.490 17.283302
61.495 17.059109
61.500 16.937429
61.505 17.115704
61.510 16.723045
61.515 16.527189
61.520 16.449612
61.525 16.466341
61.530 16.523563
61.535 16.123783
61.540 16.285707
61.545 16.910664
61.550 16.99737
61.555 17.360287
61.560 17.220703
61.565 17.487677
61.570 17.675688
61.575 18.066717
61.580 17.797976
61.585 17.467333
61.590 17.747751
61.595 17.488356
61.600 16.903473
61.605 16.926949
61.610 16.821842
61.615 17.644136
61.620 17.861876
61.625 17.499634
61.630 17.767265
61.635 18.287144
61.640 18.851055
61.645 19.101883
61.650 18.154333
61.655 17.464603
61.660 17.820675
61.665 17.959181
61.670 18.119181
61.675 18.000162
61.680 17.849632
61.685 17.48621
61.690 17.737162
61.695 17.313808
61.700 17.254934
61.705 16.621492
61.710 16.232288
61.715 16.899521
61.720 17.383486
61.725 17.306944
61.730 17.344099
61.735 17.232311
61.740 17.688959
61.745 17.632957
61.750 16.888218
61.755 17.073343
61.760 17.080887
61.765 17.121969
61.770 17.362095
61.775 17.115065
61.780 16.777029
61.785 16.317791
61.790 16.032656
61.795 16.425304
61.800 16.501051
61.805 15.941357
61.810 15.59655
61.815 15.922221
61.820 16.162746
61.825 16.103441
61.830 15.6759
61.835 15.516118
61.840 15.886418
61.845 16.404076
61.850 16.492682
61.855 16.390398
61.860 17.20421
61.865 17.586329
61.870 17.6626
61.875 18.140648
61.880 18.769981
61.885 19.136368
61.890 19.964344
61.895 19.857664
61.900 20.016003
61.905 19.88534
61.910 19.147942
61.915 18.714933
61.920 18.752712
61.925 18.260168
61.930 17.953297
61.935 18.210962
61.940 18.699432
61.945 18.891703
61.950 18.744753
61.955 17.803373
61.960 17.599773
61.965 17.478176
61.970 17.17977
61.975 16.832212
61.980 16.82922
61.985 16.829689
61.990 16.857479
61.995 17.267607
62.000 17.57798
62.005 17.798107
62.010 18.216116
62.015 18.421467
62.020 18.196287
62.025 18.363638
62.030 18.575842
62.035 18.425797
62.040 18.406027
62.045 18.04763
62.050 18.231855
62.055 18.459421
62.060 18.830488
62.065 18.751692
62.070 18.501467
62.075 18.677191
62.080 18.821934
62.085 18.401522
62.090 18.484093
62.095 18.306921
62.100 18.087244
62.105 17.961214
62.110 18.073471
62.115 17.83552
62.120 17.944014
62.125 17.903681
62.130 17.880018
62.135 18.363613
62.140 18.098568
62.145 18.176603
62.150 17.918331
62.155 17.565245
62.160 17.394661
62.165 17.121668
62.170 17.170504
62.175 17.655991
62.180 16.629757
62.185 16.858669
62.190 16.640724
62.195 16.873978
62.200 17.036673
62.205 16.631134
62.210 16.519192
62.215 17.13899
62.220 16.98637
62.225 17.150576
62.230 17.074678
62.235 16.87549
62.240 16.848827
62.245 17.019367
62.250 16.84968
62.255 17.139158
62.260 17.070379
62.265 16.953093
62.270 17.70912
62.275 18.053997
62.280 17.674747
62.285 17.192608
62.290 16.702415
62.295 16.668188
62.300 16.402834
62.305 15.716832
62.310 14.850273
62.315 15.013005
62.320 15.383183
62.325 15.773223
62.330 16.068285
62.335 16.345057
62.340 16.476255
62.345 16.839905
62.350 16.921932
62.355 16.828428
62.360 16.859749
62.365 17.235708
62.370 16.779543
62.375 16.335245
62.380 16.346182
62.385 15.926617
62.390 16.034313
62.395 16.271778
62.400 15.859667
62.405 16.312748
62.410 17.486895
62.415 18.025339
62.420 18.312433
62.425 18.603703
62.430 18.249294
62.435 17.812767
62.440 17.544477
62.445 17.120872
62.450 17.051338
62.455 17.28336
62.460 17.373262
62.465 17.545357
62.470 18.232752
62.475 18.440763
62.480 18.080381
62.485 17.858938
62.490 17.938559
62.495 17.68322
62.500 18.261171
62.505 17.65889
62.510 16.977983
62.515 17.146687
62.520 17.193562
62.525 17.244656
62.530 17.001316
62.535 16.294762
62.540 16.296108
62.545 16.793278
62.550 16.305098
62.555 16.4207
62.560 16.564224
62.565 16.865849
62.570 17.288263
62.575 17.819836
62.580 17.960949
62.585 18.658466
62.590 18.895741
62.595 18.399284
62.600 18.548756
62.605 18.748674
62.610 18.907589
62.615 18.669365
62.620 18.533432
62.625 18.547976
62.630 19.022776
62.635 19.08111
62.640 19.040695
62.645 18.886063
62.650 18.741268
62.655 17.780025
62.660 17.473312
62.665 17.123257
62.670 16.683933
62.675 16.710054
62.680 16.828432
62.685 17.078056
62.690 17.74571
62.695 17.473269
62.700 17.171589
62.705 17.352749
62.710 17.338097
62.715 17.816532
62.720 17.955828
62.725 18.217657
62.730 18.668121
62.735 19.431406
62.740 19.32674
62.745 19.358232
62.750 19.145477
62.755 19.306519
62.760 19.206469
62.765 19.061649
62.770 18.718914
62.775 18.642759
62.780 18.668007
62.785 18.488167
62.790 17.719357
62.795 16.711792
62.800 16.141575
62.805 16.141117
62.810 15.798665
62.815 15.84144
62.820 15.663917
62.825 16.099892
62.830 17.046173
62.835 17.622223
62.840 17.215918
62.845 17.247055
62.850 16.36627
62.855 16.114668
62.860 16.364988
62.865 16.356491
62.870 16.03417
62.875 15.971084
62.880 16.571417
62.885 16.875359
62.890 17.188036
62.895 16.364433
62.900 15.968705
62.905 16.201637
62.910 16.150505
62.915 15.975013
62.920 16.077948
62.925 16.1266
62.930 16.719204
62.935 17.152637
62.940 17.477985
62.945 17.976246
62.950 18.017714
62.955 18.259016
62.960 18.329615
62.965 18.101259
62.970 18.015776
62.975 17.682144
62.980 17.392717
62.985 17.268681
62.990 17.351795
62.995 17.637238
63.000 17.602236
63.005 17.385067
63.010 17.333252
63.015 17.64352
63.020 17.706598
63.025 17.440186
63.030 17.183237
63.035 17.501518
63.040 17.973469
63.045 18.746508
63.050 18.472532
63.055 18.864569
63.060 19.012796
63.065 19.107864
63.070 19.265064
63.075 18.384178
63.080 17.866005
63.085 17.647024
63.090 17.31134
63.095 16.612713
63.100 16.574368
63.105 16.154804
63.110 16.381987
63.115 16.220064
63.120 16.614206
63.125 17.130243
63.130 17.600361
63.135 17.228991
63.140 17.517986
63.145 17.986303
63.150 18.282099
63.155 18.033319
63.160 17.872154
63.165 17.655781
63.170 17.874039
63.175 17.789501
63.180 17.921162
63.185 17.840263
63.190 17.640978
63.195 17.290161
63.200 17.3249
63.205 17.536736
63.210 18.122839
63.215 17.899729
63.220 18.103937
63.225 18.36166
63.230 18.601521
63.235 18.550728
63.240 18.334343
63.245 17.789307
63.250 18.098965
63.255 18.135832
63.260 18.344633
63.265 18.209961
63.270 18.033907
63.275 17.956551
63.280 17.734503
63.285 17.36874
63.290 17.17609
63.295 16.910585
63.300 17.126362
63.305 17.598221
63.310 18.377611
63.315 17.983677
63.320 17.688768
63.325 17.732704
63.330 17.752819
63.335 17.922588
63.340 17.612682
63.345 16.908333
63.350 17.443958
63.355 17.806057
63.360 17.367075
63.365 17.170858
63.370 16.918562
63.375 17.096989
63.380 17.422523
63.385 17.266605
63.390 17.337894
63.395 17.954439
63.400 18.171616
63.405 18.075705
63.410 18.0858
63.415 17.902905
63.420 18.129688
63.425 18.455397
63.430 18.565474
63.435 18.92495
63.440 19.066599
63.445 19.157228
63.450 19.178469
63.455 19.359467
63.460 19.482523
63.465 19.343513
63.470 19.016815
63.475 18.964241
63.480 18.860813
63.485 18.976563
63.490 18.617954
63.495 18.379482
63.500 18.2593
63.505 18.389149
63.510 18.436462
63.515 17.974106
63.520 17.503815
63.525 17.075287
63.530 16.655384
63.535 16.535807
63.540 16.254629
63.545 16.181065
63.550 16.493948
63.555 16.312218
63.560 16.343988
63.565 16.289171
63.570 16.164577
63.575 16.495819
63.580 16.314205
63.585 16.403675
63.590 16.635794
63.595 17.157915
63.600 17.618881
63.605 17.632591
63.610 17.465179
63.615 17.943726
63.620 18.349257
63.625 18.189299
63.630 17.730452
63.635 17.540493
63.640 18.091131
63.645 18.132309
63.650 17.768227
63.655 17.430809
63.660 17.567034
63.665 18.088541
63.670 18.019228
63.675 17.180763
63.680 16.908583
63.685 16.981853
63.690 17.23208
63.695 17.398384
63.700 17.096354
63.705 17.765631
63.710 18.282047
63.715 18.182869
63.720 17.890337
63.725 17.935833
63.730 18.048761
63.735 18.160368
63.740 18.078167
63.745 18.122988
63.750 18.379488
63.755 18.514742
63.760 18.479412
63.765 18.736465
63.770 18.908638
63.775 18.852715
63.780 18.941349
63.785 18.847328
63.790 18.525614
63.795 18.081663
63.800 18.116102
63.805 18.106836
63.810 18.205564
63.815 18.509232
63.820 18.791315
63.825 19.181986
63.830 19.357449
63.835 18.838837
63.840 18.384176
63.845 17.933617
63.850 17.51914
63.855 17.467112
63.860 17.569798
63.865 17.359299
63.870 17.056643
63.875 16.693136
63.880 16.43866
63.885 16.908262
63.890 16.97801
63.895 16.992641
63.900 17.708303
63.905 17.957811
63.910 18.113861
63.915 17.847422
63.920 17.610943
63.925 16.993433
63.930 16.573875
63.935 16.236332
63.940 16.492579
63.945 17.206966
63.950 17.773926
63.955 18.055389
63.960 18.762655
63.965 19.120079
63.970 19.348948
63.975 19.497993
63.980 19.662056
63.985 20.053976
63.990 20.141279
63.995 20.356411
64.000 20.287289
64.005 19.984901
64.010 20.33466
64.015 20.13133
64.020 19.585876
64.025 19.51273
64.030 19.590174
64.035 19.965034
64.040 20.163218
64.045 19.882631
64.050 19.877077
64.055 19.999222
64.060 19.850893
64.065 19.911787
64.070 19.94739
64.075 19.844603
64.080 19.500809
64.085 19.346823
64.090 19.83844
64.095 19.683556
64.100 19.515583
64.105 19.027899
64.110 18.859222
64.115 18.821095
64.120 19.129528
64.125 18.603409
64.130 18.239265
64.135 17.985792
64.140 17.887224
64.145 17.635487
64.150 17.541529
64.155 17.390141
64.160 18.057791
64.165 18.610878
64.170 19.253077
64.175 19.53944
64.180 19.569595
64.185 19.780807
64.190 19.244314
64.195 18.218765
64.200 17.70602
64.205 17.139135
64.210 16.956711
64.215 17.195982
64.220 17.451077
64.225 17.777769
64.230 18.43503
64.235 19.456562
64.240 19.662575
64.245 19.934423
64.250 19.441259
64.255 18.798683
64.260 18.238119
64.265 18.113108
64.270 17.983513
64.275 17.980551
64.280 17.89723
64.285 18.048422
64.290 17.90411
64.295 18.180172
64.300 17.453279
64.305 17.17902
64.310 17.343288
64.315 17.364079
64.320 17.508129
64.325 18.327927
64.330 18.243574
64.335 18.123619
64.340 17.797934
64.345 18.01671
64.350 18.301645
64.355 18.435057
64.360 18.109886
64.365 17.841475
64.370 18.364441
64.375 18.187862
64.380 17.883244
64.385 17.637045
64.390 17.677372
64.395 17.58256
64.400 17.815283
64.405 17.067087
64.410 17.113838
64.415 17.180363
64.420 17.647484
64.425 17.433903
64.430 18.180243
64.435 18.909515
64.440 20.063763
64.445 20.46382
64.450 20.205894
64.455 20.28285
64.460 20.564201
64.465 20.242731
64.470 20.309433
64.475 19.99859
64.480 20.188068
64.485 20.780495
64.490 20.364542
64.495 20.496773
64.500 20.434879
64.505 19.485113
64.510 19.171806
64.515 19.118933
64.520 18.804472
64.525 18.487297
64.530 17.744629
64.535 18.133579
64.540 18.313858
64.545 18.041906
64.550 17.794138
64.555 17.52861
64.560 17.698074
64.565 18.025993
64.570 17.544878
64.575 17.855192
64.580 18.631695
64.585 19.013737
64.590 19.64542
64.595 19.887808
64.600 19.726271
64.605 20.21867
64.610 20.423113
64.615 20.381657
64.620 20.111765
64.625 19.858883
64.630 19.861225
64.635 19.95425
64.640 19.711771
64.645 19.546104
64.650 19.456713
64.655 19.267662
64.660 19.325439
64.665 18.908993
64.670 18.787413
64.675 18.365673
64.680 18.700647
64.685 18.412386
64.690 18.30438
64.695 18.031422
64.700 17.955494
64.705 18.1166
64.710 18.055027
64.715 18.087454
64.720 18.614218
64.725 18.814827
64.730 19.127033
64.735 19.739279
64.740 19.863819
64.745 20.139812
64.750 19.447678
64.755 18.959467
64.760 19.240667
64.765 18.915749
64.770 19.126757
64.775 19.325388
64.780 19.571146
64.785 20.099232
64.790 20.261797
64.795 20.086414
64.800 20.405281
64.805 20.258892
64.810 19.921808
64.815 19.874296
64.820 19.914713
64.825 19.844061
64.830 19.46405
64.835 20.034901
64.840 20.034882
64.845 20.346769
64.850 20.433651
64.855 20.058952
64.860 20.302074
64.865 20.47171
64.870 20.109825
64.875 20.222698
64.880 20.018385
64.885 20.043692
64.890 20.423532
64.895 20.305304
64.900 20.831757
64.905 20.745237
64.910 20.412722
64.915 20.573044
64.920 21.304008
64.925 21.291489
64.930 21.376118
64.935 20.698975
64.940 20.405663
64.945 20.830931
64.950 21.378519
64.955 21.174479
64.960 21.22377
64.965 20.803745
64.970 20.849888
64.975 21.223875
64.980 21.414717
64.985 21.634768
64.990 21.719841
64.995 21.882177
65.000 22.155739
65.005 22.369612
65.010 22.153793
65.015 21.992117
65.020 21.825621
65.025 21.736855
65.030 22.316187
65.035 22.521494
65.040 22.371159
65.045 22.544411
65.050 22.830322
65.055 22.732958
65.060 22.381121
65.065 22.242731
65.070 22.781721
65.075 23.377464
65.080 23.18338
65.085 23.092941
65.090 23.49581
65.095 24.130289
65.100 24.292875
65.105 24.363882
65.110 24.682974
65.115 25.340494
65.120 25.280682
65.125 24.934244
65.130 24.228949
65.135 23.661734
65.140 23.435305
65.145 22.443302
65.150 21.942392
65.155 21.662735
65.160 21.355492
65.165 22.3918
65.170 23.139513
65.175 23.17654
65.180 23.362169
65.185 23.249886
65.190 23.105232
65.195 22.859667
65.200 22.265511
65.205 22.014929
65.210 21.824734
65.215 22.095976
65.220 22.307388
65.225 23.233961
65.230 22.967716
65.235 22.583555
65.240 22.874832
65.245 22.606627
65.250 23.00494
65.255 23.551592
65.260 22.924223
65.265 23.502718
65.270 23.918545
65.275 24.133535
65.280 24.64522
65.285 24.173447
65.290 23.640017
65.295 23.411766
65.300 23.494394
65.305 23.545231
65.310 23.590418
65.315 23.603045
65.320 23.605839
65.325 24.071068
65.330 23.680529
65.335 23.407009
65.340 23.899094
65.345 23.882507
65.350 23.55945
65.355 23.281221
65.360 22.879517
65.365 23.110071
65.370 22.964113
65.375 22.893639
65.380 23.200525
65.385 23.011532
65.390 23.333256
65.395 23.60688
65.400 24.20805
65.405 24.035109
65.410 23.70591
65.415 23.756241
65.420 24.747465
65.425 25.352295
65.430 25.297493
65.435 25.77854
65.440 26.433346
65.445 26.756567
65.450 26.44203
65.455 25.602791
65.460 25.285084
65.465 25.722849
65.470 25.175703
65.475 24.778227
65.480 24.501072
65.485 24.716734
65.490 25.481108
65.495 25.296341
65.500 25.307287
65.505 25.851406
65.510 25.911209
65.515 26.178961
65.520 26.411478
65.525 26.451298
65.530 26.798412
65.535 26.478037
65.540 26.497198
65.545 27.136721
65.550 27.817724
65.555 27.91692
65.560 27.685907
65.565 27.989265
65.570 28.278118
65.575 28.496868
65.580 29.017614
65.585 28.361336
65.590 28.277348
65.595 28.743019
65.600 29.311102
65.605 29.934456
65.610 29.77317
65.615 30.485765
65.620 31.228287
65.625 31.921703
65.630 32.178192
65.635 31.600733
65.640 31.350462
65.645 31.803638
65.650 30.871525
65.655 30.93647
65.660 31.362673
65.665 31.218775
65.670 31.602594
65.675 31.675884
65.680 32.74662
65.685 33.636341
65.690 33.552082
65.695 33.827915
65.700 34.727283
65.705 35.060238
65.710 35.521732
65.715 35.746044
65.720 36.900742
65.725 37.203407
65.730 36.926998
65.735 36.914825
65.740 36.558392
65.745 36.609646
65.750 36.174812
65.755 35.568264
65.760 35.006172
65.765 34.517735
65.770 34.409134
65.775 34.725788
65.780 35.107746
65.785 34.689388
65.790 34.511013
65.795 35.290806
65.800 35.66618
65.805 35.963734
65.810 36.634945
65.815 36.014957
65.820 36.497028
65.825 36.99876
65.830 37.082241
65.835 37.026989
65.840 36.728619
65.845 36.317833
65.850 36.659557
65.855 36.794601
65.860 36.947887
65.865 37.392303
65.870 37.601063
65.875 37.541466
65.880 37.893547
65.885 37.911579
65.890 38.431602
65.895 38.52359
65.900 38.498096
65.905 38.917831
65.910 39.199219
65.915 39.099239
65.920 39.851273
65.925 39.994381
65.930 39.736931
65.935 39.868656
65.940 39.869591
65.945 39.730148
65.950 40.811752
65.955 40.847015
65.960 41.295334
65.965 41.768085
65.970 41.759712
65.975 42.008797
65.980 42.180813
65.985 41.211906
65.990 40.634281
65.995 39.457813
66.000 39.623692
66.005 39.495232
66.010 38.932415
66.015 38.154915
66.020 38.425968
66.025 38.736713
66.030 39.206379
66.035 39.456062
66.040 39.574509
66.045 39.936108
66.050 39.968754
66.055 39.628319
66.060 39.557117
66.065 38.534622
66.070 38.305347
66.075 38.361195
66.080 38.62521
66.085 39.470783
66.090 39.772667
66.095 40.41523
66.100 41.300571
66.105 40.566906
66.110 39.987003
66.115 39.698509
66.120 39.793213
66.125 39.009945
66.130 38.106625
66.135 37.604572
66.140 37.623215
66.145 37.517689
66.150 37.506195
66.155 36.537159
66.160 37.233101
66.165 37.615227
66.170 38.003437
66.175 38.582592
66.180 38.221054
66.185 37.762516
66.190 37.187481
66.195 36.770885
66.200 36.526936
66.205 36.10289
66.210 35.710705
66.215 35.477283
66.220 35.333527
66.225 35.49332
66.230 34.823864
66.235 35.035507
66.240 34.261261
66.245 34.582569
66.250 35.165665
66.255 35.657166
66.260 36.126308
66.265 36.503212
66.270 36.465801
66.275 36.573395
66.280 35.531651
66.285 34.94627
66.290 34.747761
66.295 34.779778
66.300 34.957062
66.305 34.13155
66.310 34.427746
66.315 35.413387
66.320 35.338604
66.325 35.273804
66.330 35.364429
66.335 35.01606
66.340 34.612377
66.345 33.592056
66.350 33.183762
66.355 33.405079
66.360 32.839962
66.365 32.143372
66.370 31.783688
66.375 31.625383
66.380 31.807463
66.385 31.619572
66.390 31.027761
66.395 31.005964
66.400 31.222048
66.405 31.422924
66.410 32.387959
66.415 33.122978
66.420 32.813862
66.425 32.543983
66.430 32.146862
66.435 31.6805
66.440 31.244392
66.445 30.289837
66.450 29.551199
66.455 29.432447
66.460 28.902582
66.465 28.925417
66.470 29.352625
66.475 29.445648
66.480 29.992174
66.485 29.969559
66.490 29.283432
66.495 29.875326
66.500 29.795849
66.505 29.561836
66.510 29.029358
66.515 28.315001
66.520 28.064831
66.525 27.920071
66.530 27.605305
66.535 27.158001
66.540 26.698233
66.545 26.870464
66.550 26.777151
66.555 27.039225
66.560 27.945393
66.565 28.221861
66.570 28.401863
66.575 28.64658
66.580 28.586683
66.585 28.121557
66.590 27.600904
66.595 27.930021
66.600 27.947454
66.605 27.866171
66.610 27.349089
66.615 27.379757
66.620 28.038408
66.625 27.746363
66.630 27.085875
66.635 26.70339
66.640 26.78743
66.645 26.996878
66.650 26.209429
66.655 25.821831
66.660 26.170315
66.665 25.849463
66.670 25.309702
66.675 24.904369
66.680 25.106735
66.685 25.75972
66.690 25.80895
66.695 25.681707
66.700 26.082451
66.705 26.688251
66.710 26.966824
66.715 26.731171
66.720 26.26741
66.725 25.995344
66.730 26.520519
66.735 26.681961
66.740 26.292711
66.745 26.143728
66.750 26.102098
66.755 25.985918
66.760 26.255392
66.765 25.097223
66.770 24.408241
66.775 24.137783
66.780 24.154984
66.785 24.288214
66.790 23.103109
66.795 23.06922
66.800 23.868805
66.805 24.05201
66.810 24.394215
66.815 24.057728
66.820 23.644375
66.825 24.798117
66.830 24.689199
66.835 24.141659
66.840 24.206291
66.845 24.372242
66.850 24.337927
66.855 24.43149
66.860 24.279488
66.865 23.999691
66.870 24.072435
66.875 23.993572
66.880 23.514006
66.885 23.614752
66.890 23.404306
66.895 23.942701
66.900 24.125656
66.905 23.832981
66.910 23.625786
66.915 23.504223
66.920 23.498404
66.925 23.64794
66.930 23.198723
66.935 23.753958
66.940 24.226812
66.945 24.339186
66.950 24.509111
66.955 24.918182
66.960 24.786465
66.965 23.833492
66.970 23.43173
66.975 23.568615
66.980 23.608059
66.985 23.140923
66.990 22.573908
66.995 22.596678
67.000 22.716995
67.005 23.007952
67.010 23.673294
67.015 24.082539
67.020 24.309225
67.025 24.158806
67.030 24.188005
67.035 24.533665
67.040 23.940676
67.045 23.34795
67.050 23.338301
67.055 23.642174
67.060 23.863661
67.065 24.245052
67.070 24.703144
67.075 24.819111
67.080 24.31011
67.085 23.735788
67.090 23.144424
67.095 23.148294
67.100 22.217436
67.105 21.445639
67.110 21.715025
67.115 22.367899
67.120 22.748781
67.125 23.324484
67.130 22.948231
67.135 22.996485
67.140 23.259602
67.145 22.82478
67.150 22.292379
67.155 22.464788
67.160 22.017309
67.165 22.096016
67.170 22.00246
67.175 21.770132
67.180 21.683622
67.185 21.774008
67.190 22.226545
67.195 22.374733
67.200 22.178835
67.205 22.2041
67.210 22.322216
67.215 23.289625
67.220 22.741144
67.225 21.879366
67.230 21.563845
67.235 21.331154
67.240 21.078171
67.245 21.142859
67.250 20.766806
67.255 21.084534
67.260 21.511549
67.265 22.43487
67.270 23.409101
67.275 23.905117
67.280 23.703966
67.285 24.089403
67.290 23.948509
67.295 23.296156
67.300 23.154892
67.305 23.102417
67.310 23.300018
67.315 23.130806
67.320 22.399561
67.325 22.149639
67.330 22.702702
67.335 22.290903
67.340 21.819191
67.345 21.771893
67.350 21.713657
67.355 21.628458
67.360 21.282122
67.365 20.65918
67.370 20.690504
67.375 21.197481
67.380 20.21172
67.385 20.567068
67.390 21.143171
67.395 21.936548
67.400 22.36405
67.405 22.107803
67.410 22.065231
67.415 22.938868
67.420 22.876354
67.425 23.614307
67.430 24.167566
67.435 24.167141
67.440 23.905792
67.445 23.379141
67.450 23.130463
67.455 22.581478
67.460 21.961477
67.465 21.308989
67.470 21.344801
67.475 22.008642
67.480 22.588373
67.485 23.463511
67.490 24.035906
67.495 23.70759
67.500 24.212019
67.505 24.018333
67.510 23.344507
67.515 23.026602
67.520 22.644773
67.525 22.486874
67.530 22.767897
67.535 22.554527
67.540 22.916407
67.545 23.054235
67.550 23.302925
67.555 23.229141
67.560 23.050114
67.565 22.55065
67.570 22.233206
67.575 22.280888
67.580 22.203884
67.585 21.229883
67.590 21.0429
67.595 20.955175
67.600 20.637323
67.605 20.852034
67.610 21.03739
67.615 21.376785
67.620 22.276951
67.625 22.412947
67.630 23.099766
67.635 24.003391
67.640 23.488958
67.645 22.844603
67.650 22.383635
67.655 22.40546
67.660 21.632494
67.665 20.992292
67.670 20.468781
67.675 20.91618
67.680 21.824429
67.685 22.283251
67.690 21.875895
67.695 22.525093
67.700 22.435509
67.705 22.20429
67.710 21.660677
67.715 21.170792
67.720 20.277887
67.725 20.42713
67.730 20.5965
67.735 20.983286
67.740 21.128832
67.745 21.288914
67.750 21.23402
67.755 21.777155
67.760 22.254025
67.765 22.57045
67.770 22.337351
67.775 21.974636
67.780 21.768599
67.785 21.601971
67.790 21.590153
67.795 20.97654
67.800 20.701258
67.805 21.000799
67.810 21.786259
67.815 21.843262
67.820 21.403824
67.825 20.729324
67.830 20.962982
67.835 21.229124
67.840 20.539537
67.845 20.020483
67.850 19.644093
67.855 19.780596
67.860 20.275537
67.865 19.949921
67.870 19.77523
67.875 19.809679
67.880 19.964993
67.885 20.296352
67.890 20.511755
67.895 20.20249
67.900 20.31806
67.905 20.508957
67.910 20.780163
67.915 21.048098
67.920 21.428432
67.925 21.665424
67.930 22.433563
67.935 22.69632
67.940 23.031395
67.945 22.684032
67.950 22.588436
67.955 22.61137
67.960 22.588709
67.965 22.058134
67.970 21.590971
67.975 21.754835
67.980 21.86425
67.985 21.49407
67.990 21.428873
67.995 21.124063
68.000 21.077614
68.005 21.122385
68.010 21.021406
68.015 21.412197
68.020 21.609922
68.025 21.217613
68.030 21.284559
68.035 21.575308
68.040 21.805046
68.045 21.418667
68.050 21.01734
68.055 21.041637
68.060 21.491661
68.065 21.030228
68.070 20.163773
68.075 19.777428
68.080 20.00304
68.085 20.201548
68.090 20.274233
68.095 20.442293
68.100 21.34944
68.105 21.521301
68.110 21.488024
68.115 21.85338
68.120 21.913683
68.125 21.816406
68.130 22.174637
68.135 22.099817
68.140 22.408506
68.145 22.26897
68.150 22.316265
68.155 21.918205
68.160 21.532423
68.165 21.569328
68.170 21.557056
68.175 21.250502
68.180 21.36186
68.185 21.192289
68.190 20.748497
68.195 21.111778
68.200 20.540909
68.205 20.731964
68.210 20.936193
68.215 20.984371
68.220 21.167639
68.225 21.87632
68.230 21.225502
68.235 21.171434
68.240 20.969555
68.245 21.012962
68.250 21.363279
68.255 21.171045
68.260 21.096487
68.265 21.209637
68.270 21.098156
68.275 20.763752
68.280 21.054724
68.285 20.489286
68.290 20.27313
68.295 20.421324
68.300 20.232634
68.305 20.34388
68.310 20.304831
68.315 20.135185
68.320 20.127085
68.325 20.724451
68.330 20.964096
68.335 21.541382
68.340 22.130253
68.345 22.306059
68.350 22.196503
68.355 22.077185
68.360 21.834051
68.365 21.641102
68.370 21.563362
68.375 21.375828
68.380 21.4459
68.385 21.310417
68.390 21.106861
68.395 21.07823
68.400 21.134987
68.405 20.939913
68.410 20.778425
68.415 21.0877
68.420 21.645594
68.425 22.021303
68.430 21.747736
68.435 21.431709
68.440 21.220409
68.445 21.289888
68.450 20.8652
68.455 21.014164
68.460 21.549334
68.465 21.65222
68.470 21.652346
68.475 21.869232
68.480 21.769464
68.485 21.763998
68.490 21.921667
68.495 21.969946
68.500 22.00489
68.505 22.075439
68.510 21.94441
68.515 22.08157
68.520 21.991926
68.525 21.530458
68.530 21.628386
68.535 22.113832
68.540 22.442654
68.545 22.763048
68.550 22.766172
68.555 22.884628
68.560 23.00835
68.565 22.20462
68.570 21.808414
68.575 21.419285
68.580 21.543051
68.585 21.628077
68.590 21.812092
68.595 21.363134
68.600 21.994671
68.605 22.392939
68.610 22.303946
68.615 22.007895
68.620 22.174229
68.625 22.365547
68.630 22.915413
68.635 22.670351
68.640 22.439468
68.645 22.497078
68.650 22.569534
68.655 22.7689
68.660 21.773479
68.665 21.358574
68.670 20.95896
68.675 20.761156
68.680 20.987989
68.685 20.652822
68.690 20.145052
68.695 20.842951
68.700 20.402317
68.705 20.602608
68.710 20.535601
68.715 20.609777
68.720 21.591864
68.725 21.795931
68.730 21.746847
68.735 22.34573
68.740 22.54059
68.745 22.958178
68.750 22.98292
68.755 22.231161
68.760 22.392109
68.765 22.376801
68.770 22.13797
68.775 22.25745
68.780 21.797142
68.785 21.742785
68.790 21.425714
68.795 21.620235
68.800 21.968151
68.805 22.265867
68.810 22.413969
68.815 22.236906
68.820 22.38776
68.825 22.70717
68.830 22.251123
68.835 22.401907
68.840 21.985146
68.845 21.742708
68.850 21.922306
68.855 21.639641
68.860 20.924753
68.865 21.328857
68.870 21.918499
68.875 22.011147
68.880 22.098423
68.885 22.099386
68.890 22.613441
68.895 23.30526
68.900 22.750742
68.905 21.994076
68.910 22.173704
68.915 21.656113
68.920 21.969194
68.925 22.266712
68.930 22.112915
68.935 22.220255
68.940 22.57489
68.945 22.897732
68.950 23.196293
68.955 23.125446
68.960 22.718151
68.965 22.836409
68.970 23.115757
68.975 23.237022
68.980 22.707073
68.985 22.332136
68.990 22.372881
68.995 22.718836
69.000 22.940681
69.005 23.150343
69.010 23.264153
69.015 23.733414
69.020 24.049437
69.025 24.143734
69.030 24.470327
69.035 24.263186
69.040 24.350418
69.045 24.349644
69.050 24.171789
69.055 24.478281
69.060 24.382681
69.065 24.364048
69.070 23.98279
69.075 23.175772
69.080 23.388178
69.085 23.555326
69.090 23.656973
69.095 23.664827
69.100 23.795567
69.105 24.925303
69.110 26.168247
69.115 26.437874
69.120 27.070518
69.125 27.265747
69.130 27.252831
69.135 26.896753
69.140 26.591381
69.145 26.767385
69.150 26.640913
69.155 26.478033
69.160 26.144028
69.165 26.272081
69.170 26.678236
69.175 26.701315
69.180 25.91106
69.185 25.798214
69.190 25.634785
69.195 25.429161
69.200 25.683998
69.205 25.042929
69.210 24.792183
69.215 24.870173
69.220 25.283699
69.225 25.567253
69.230 25.95962
69.235 26.163147
69.240 26.671604
69.245 27.243895
69.250 27.673012
69.255 27.930698
69.260 28.396561
69.265 28.510504
69.270 28.365103
69.275 28.353302
69.280 28.45886
69.285 28.657312
69.290 28.522568
69.295 28.294838
69.300 28.716436
69.305 28.35025
69.310 28.153173
69.315 28.103149
69.320 27.939913
69.325 27.506186
69.330 27.407227
69.335 27.009911
69.340 27.635859
69.345 27.353058
69.350 27.048126
69.355 27.867968
69.360 27.841896
69.365 27.817577
69.370 27.940472
69.375 28.132204
69.380 28.61179
69.385 28.746033
69.390 28.592733
69.395 29.786783
69.400 30.201672
69.405 30.400541
69.410 30.560598
69.415 30.227169
69.420 30.391327
69.425 30.181879
69.430 30.459942
69.435 30.228159
69.440 30.039944
69.445 30.206303
69.450 30.940779
69.455 30.759949
69.460 30.288614
69.465 29.945797
69.470 30.152061
69.475 29.786131
69.480 29.907143
69.485 29.805782
69.490 30.02685
69.495 29.996096
69.500 29.76465
69.505 30.485386
69.510 30.973106
69.515 31.215164
69.520 30.645018
69.525 30.730476
69.530 30.675087
69.535 30.671139
69.540 30.767765
69.545 30.668633
69.550 30.529902
69.555 30.6497
69.560 30.151869
69.565 29.760811
69.570 29.680058
69.575 29.671291
69.580 29.972198
69.585 29.975138
69.590 30.145065
69.595 30.684729
69.600 30.602747
69.605 30.100191
69.610 28.973507
69.615 28.658291
69.620 29.03735
69.625 29.079729
69.630 28.969076
69.635 29.8332
69.640 30.600447
69.645 31.152979
69.650 31.049538
69.655 30.95437
69.660 30.763569
69.665 30.642752
69.670 29.879715
69.675 29.245165
69.680 29.000193
69.685 28.501135
69.690 28.561781
69.695 29.853302
69.700 29.968351
69.705 29.97752
69.710 30.435148
69.715 30.622499
69.720 31.058392
69.725 30.954824
69.730 29.594343
69.735 29.334682
69.740 28.911255
69.745 28.081367
69.750 27.662056
69.755 26.865004
69.760 26.294622
69.765 26.526688
69.770 26.38942
69.775 25.851778
69.780 25.813168
69.785 25.822567
69.790 25.173656
69.795 24.974817
69.800 24.698753
69.805 24.560276
69.810 24.596195
69.815 24.911888
69.820 25.098785
69.825 25.615541
69.830 25.780052
69.835 26.390345
69.840 27.159769
69.845 27.476988
69.850 27.334473
69.855 26.963297
69.860 26.978228
69.865 26.941456
69.870 26.474157
69.875 25.932194
69.880 25.862915
69.885 25.863092
69.890 25.791525
69.895 24.835928
69.900 24.896645
69.905 24.514914
69.910 24.320215
69.915 23.469114
69.920 23.590441
69.925 23.556887
69.930 23.822605
69.935 23.770998
69.940 23.783659
69.945 24.413086
69.950 25.076092
69.955 24.856411
69.960 24.94536
69.965 24.584131
69.970 24.151363
69.975 23.589699
69.980 23.401537
69.985 22.875177
69.990 22.389368
69.995 22.318848
70.000 22.054184
70.005 21.72113
70.010 22.465818
70.015 22.463997
70.020 22.70274
70.025 22.82333
70.030 22.990282
70.035 22.984291
70.040 22.850603
70.045 21.945669
70.050 21.113308
70.055 21.253914
70.060 20.602896
70.065 20.413776
70.070 20.544538
70.075 20.535862
70.080 21.064302
70.085 21.563065
70.090 21.272074
70.095 21.4821
70.100 21.327808
70.105 20.780313
70.110 20.637259
70.115 20.835484
70.120 20.66017
70.125 21.015745
70.130 21.357134
70.135 21.202734
70.140 21.297365
70.145 21.817322
70.150 21.611231
70.155 21.521961
70.160 21.40274
70.165 20.793142
70.170 20.929695
70.175 20.950823
70.180 20.692169
70.185 20.574831
70.190 20.437456
70.195 19.903305
70.200 20.028194
70.205 20.045641
70.210 20.244093
70.215 19.998552
70.220 19.979692
70.225 19.391777
70.230 19.305794
70.235 19.344387
70.240 18.870604
70.245 19.157322
70.250 19.864
70.255 20.219624
70.260 20.202408
70.265 20.491476
70.270 20.539305
70.275 20.805017
70.280 20.021513
70.285 20.158649
70.290 20.701828
70.295 21.102129
70.300 21.204981
70.305 20.956358
70.310 20.824413
70.315 20.777597
70.320 20.381697
70.325 20.336695
70.330 20.151186
70.335 20.01516
70.340 20.12467
70.345 20.485857
70.350 20.819653
70.355 20.071083
70.360 20.050739
70.365 20.197374
70.370 20.442646
70.375 20.769068
70.380 20.328409
70.385 20.214792
70.390 20.038588
70.395 20.052794
70.400 20.156105
70.405 19.812971
70.410 19.579109
70.415 19.393202
70.420 19.643072
70.425 19.99378
70.430 19.761421
70.435 19.146
70.440 18.812958
70.445 18.698179
70.450 18.236456
70.455 17.654303
70.460 17.663527
70.465 17.502245
70.470 17.996902
70.475 17.963375
70.480 17.449379
70.485 17.700766
70.490 17.880978
70.495 17.468088
70.500 17.892635
70.505 18.134731
70.510 18.720453
70.515 19.250835
70.520 19.338747
70.525 19.193504
70.530 19.699308
70.535 19.283548
70.540 18.806057
70.545 18.674673
70.550 18.640232
70.555 19.021898
70.560 19.512896
70.565 19.999411
70.570 20.147264
70.575 20.294302
70.580 21.185781
70.585 21.546541
70.590 21.219795
70.595 20.890623
70.600 20.753498
70.605 20.607018
70.610 20.413713
70.615 19.492294
70.620 18.938629
70.625 19.088827
70.630 18.956676
70.635 18.918489
70.640 19.36269
70.645 19.293325
70.650 19.547915
70.655 20.105175
70.660 20.19367
70.665 20.272602
70.670 19.786844
70.675 19.687881
70.680 20.491858
70.685 20.827538
70.690 20.121624
70.695 20.589733
70.700 20.398031
70.705 20.553215
70.710 20.711334
70.715 20.041985
70.720 20.142925
70.725 19.893177
70.730 19.687275
70.735 20.107019
70.740 19.764952
70.745 19.293459
70.750 19.442329
70.755 19.676653
70.760 20.19544
70.765 19.647055
70.770 19.330589
70.775 19.499315
70.780 19.208851
70.785 18.751616
70.790 18.584906
70.795 18.484037
70.800 18.235989
70.805 18.461283
70.810 19.035368
70.815 19.141857
70.820 19.041212
70.825 19.117575
70.830 19.250156
70.835 19.992929
70.840 19.401802
70.845 19.024237
70.850 19.172344
70.855 18.820936
70.860 18.669302
70.865 18.677101
70.870 18.666121
70.875 19.711655
70.880 19.906321
70.885 20.158945
70.890 19.895145
70.895 19.283171
70.900 18.950871
70.905 18.300184
70.910 17.684107
70.915 18.189157
70.920 18.181713
70.925 18.654751
70.930 19.129559
70.935 20.095638
70.940 20.576553
70.945 20.829746
70.950 20.228214
70.955 20.089945
70.960 19.843416
70.965 19.604427
70.970 19.447876
70.975 19.515856
70.980 19.09473
70.985 19.032759
70.990 19.070625
70.995 19.426088
71.000 19.381033
71.005 19.368572
71.010 19.353249
71.015 19.531637
71.020 19.913986
71.025 20.615803
71.030 20.647776
71.035 20.460203
71.040 20.331385
71.045 20.124468
71.050 20.015463
71.055 19.959143
71.060 19.668257
71.065 19.971886
71.070 20.154839
71.075 19.743807
71.080 19.45401
71.085 19.125486
71.090 18.851749
71.095 19.042866
71.100 18.527636
71.105 17.929049
71.110 18.00868
71.115 18.239122
71.120 18.428493
71.125 17.714445
71.130 17.736879
71.135 18.060953
71.140 18.013361
71.145 18.12825
71.150 18.416979
71.155 18.902748
71.160 19.29846
71.165 18.800125
71.170 18.438833
71.175 18.6213
71.180 18.422369
71.185 18.420677
71.190 18.096865
71.195 18.321936
71.200 18.834427
71.205 20.057266
71.210 20.380629
71.215 20.633446
71.220 20.257021
71.225 20.396059
71.230 20.088131
71.235 19.342016
71.240 18.288115
71.245 18.344652
71.250 18.679564
71.255 19.048891
71.260 18.859974
71.265 19.909788
71.270 20.487661
71.275 20.679869
71.280 20.644444
71.285 19.948542
71.290 20.385763
71.295 20.420237
71.300 19.664785
71.305 19.761507
71.310 20.249554
71.315 20.412697
71.320 20.892508
71.325 20.515234
71.330 20.556414
71.335 20.219103
71.340 19.806273
71.345 19.13769
71.350 19.007698
71.355 19.094986
71.360 18.598539
71.365 18.345968
71.370 18.373228
71.375 18.355541
71.380 18.701553
71.385 18.716976
71.390 18.684662
71.395 19.030628
71.400 19.13689
71.405 19.35631
71.410 19.576796
71.415 19.389225
71.420 19.254827
71.425 19.506048
71.430 19.405972
71.435 19.456503
71.440 19.038183
71.445 18.774153
71.450 18.812452
71.455 18.532003
71.460 17.727093
71.465 17.961668
71.470 18.304157
71.475 19.122608
71.480 19.379412
71.485 19.650419
71.490 19.718531
71.495 19.323868
71.500 18.958815
71.505 18.644247
71.510 18.466179
71.515 18.378115
71.520 18.487181
71.525 18.511589
71.530 18.710968
71.535 18.853554
71.540 19.317732
71.545 18.67024
71.550 18.419495
71.555 18.188631
71.560 18.221422
71.565 18.449347
71.570 18.372156
71.575 17.764204
71.580 18.24123
71.585 18.540392
71.590 18.290705
71.595 18.700758
71.600 19.007803
71.605 18.971876
71.610 19.572735
71.615 19.110506
71.620 18.989929
71.625 19.085451
71.630 18.839787
71.635 18.712505
71.640 18.222252
71.645 17.91432
71.650 18.132978
71.655 18.38905
71.660 18.471029
71.665 18.184086
71.670 18.185196
71.675 18.967581
71.680 19.269117
71.685 18.994261
71.690 19.039677
71.695 19.456951
71.700 19.36429
71.705 19.21451
71.710 18.292372
71.715 17.810598
71.720 18.061321
71.725 17.919056
71.730 17.691841
71.735 17.688688
71.740 17.841198
71.745 18.273489
71.750 18.730555
71.755 18.453182
71.760 18.252918
71.765 18.456812
71.770 18.245579
71.775 18.036259
71.780 18.197323
71.785 17.852993
71.790 18.164642
71.795 18.849953
71.800 19.07288
71.805 19.290567
71.810 19.400866
71.815 18.99897
71.820 18.750294
71.825 18.530396
71.830 18.162844
71.835 18.251509
71.840 18.679964
71.845 18.824327
71.850 19.161812
71.855 19.540482
71.860 19.969828
71.865 19.687439
71.870 19.306204
71.875 19.016987
71.880 18.846218
71.885 18.778667
71.890 18.575415
71.895 18.402439
71.900 18.730938
71.905 19.164148
71.910 19.249487
71.915 19.572157
71.920 20.113859
71.925 20.346321
71.930 20.285429
71.935 20.163933
71.940 20.455589
71.945 20.569006
71.950 19.812763
71.955 19.12081
71.960 18.895542
71.965 18.649023
71.970 18.566677
71.975 17.946825
71.980 18.037371
71.985 18.077213
71.990 17.957787
71.995 17.949125
72.000 18.251686
72.005 18.55975
72.010 18.926443
72.015 18.896852
72.020 19.172716
72.025 19.417009
72.030 19.514408
72.035 19.552305
72.040 19.185038
72.045 19.130581
72.050 18.500984
72.055 18.395939
72.060 18.525587
72.065 18.691076
72.070 18.504484
72.075 18.319868
72.080 18.085567
72.085 18.771238
72.090 19.093105
72.095 18.730249
72.100 18.205151
72.105 18.370237
72.110 18.43737
72.115 19.00094
72.120 18.281517
72.125 18.416086
72.130 18.533031
72.135 18.540993
72.140 18.410753
72.145 18.552698
72.150 18.788641
72.155 18.773001
72.160 18.369648
72.165 18.47365
72.170 18.832521
72.175 18.852785
72.180 18.126621
72.185 17.748611
72.190 17.684528
72.195 17.563225
72.200 17.649984
72.205 17.58543
72.210 17.720236
72.215 18.467325
72.220 18.410482
72.225 18.072086
72.230 18.333826
72.235 18.205412
72.240 17.895679
72.245 18.145481
72.250 18.066193
72.255 18.027351
72.260 18.564045
72.265 18.201891
72.270 17.661522
72.275 17.700724
72.280 17.549635
72.285 17.866938
72.290 18.404013
72.295 17.949512
72.300 18.136383
72.305 18.148634
72.310 17.901564
72.315 17.907572
72.320 17.324686
72.325 17.131588
72.330 17.715988
72.335 17.36227
72.340 17.772032
72.345 17.943487
72.350 17.88707
72.355 18.227455
72.360 18.209442
72.365 17.952429
72.370 18.099998
72.375 18.018847
72.380 18.041767
72.385 18.288813
72.390 18.476196
72.395 18.518648
72.400 18.393694
72.405 18.573404
72.410 18.901535
72.415 18.735268
72.420 18.157665
72.425 17.916561
72.430 17.574732
72.435 17.677601
72.440 17.941902
72.445 18.203974
72.450 18.722326
72.455 18.565907
72.460 18.917027
72.465 19.389364
72.470 19.325985
72.475 18.263153
72.480 17.999218
72.485 18.120213
72.490 17.982069
72.495 17.669907
72.500 17.207542
72.505 17.268808
72.510 17.445896
72.515 16.940393
72.520 16.65251
72.525 17.047802
72.530 17.254919
72.535 17.864065
72.540 18.155079
72.545 18.261963
72.550 18.329901
72.555 18.602415
72.560 18.905729
72.565 18.756742
72.570 18.103077
72.575 18.352142
72.580 18.563723
72.585 18.578217
72.590 18.689762
72.595 18.94869
72.600 19.035168
72.605 18.94978
72.610 18.372818
72.615 18.144064
72.620 17.527136
72.625 16.817144
72.630 16.245501
72.635 16.325428
72.640 16.340864
72.645 16.643173
72.650 16.771757
72.655 17.433126
72.660 18.052328
72.665 17.796688
72.670 18.483885
72.675 18.824961
72.680 19.305578
72.685 18.885933
72.690 19.166811
72.695 18.97987
72.700 19.04385
72.705 18.799683
72.710 18.751963
72.715 18.686052
72.720 18.673592
72.725 18.235451
72.730 18.007507
72.735 17.409004
72.740 17.002411
72.745 16.897615
72.750 16.741961
72.755 16.55908
72.760 16.697672
72.765 16.817274
72.770 16.984997
72.775 16.882046
72.780 17.220034
72.785 17.24929
72.790 17.449575
72.795 17.748789
72.800 17.748379
72.805 18.22978
72.810 17.726206
72.815 16.969023
72.820 17.377033
72.825 16.759428
72.830 16.648743
72.835 16.580959
72.840 16.32313
72.845 16.563599
72.850 16.271889
72.855 16.205084
72.860 16.341154
72.865 15.925125
72.870 16.411438
72.875 16.807245
72.880 16.990231
72.885 17.043142
72.890 16.204336
72.895 16.27919
72.900 16.509064
72.905 16.195108
72.910 15.801564
72.915 15.742455
72.920 16.456907
72.925 16.475487
72.930 17.128206
72.935 16.957239
72.940 16.176857
72.945 16.787451
72.950 16.797127
72.955 16.410294
72.960 16.185753
72.965 15.820468
72.970 16.349308
72.975 16.530682
72.980 16.122299
72.985 16.243336
72.990 16.187464
72.995 16.595121
73.000 16.790462
