!@!!GADDS PLOTSO FILE: Chi integration type
!@!!Title/SampleName: map-b
!@!!Comment: ?
!@!!User: Bruker Instrument Administrator
!@!!Site: University of Illinois Chicago
!@!!Frame: map-b_01_000.gfrm
!@!!Wavelengths    1.54184   1.54056   1.54439
!@!!Frame angles: 2Theta: 63.000 Omega: 50.000 Phi: 0.000 Chi: 90.000
!@!!Integration range: 2Theta: 53.000 to 73.000  Gamma: -105.000 to -75.000
!@!!Integration method: bin normalized
!@!N
!@!SS
!@!M
!@!L 0.0 0.0 0.0 0.0
!@!XDegrees
!@!YCounts
53.000 7.290015
53.005 7.194067
53.010 7.131044
53.015 7.217743
53.020 6.770854
53.025 6.989583
53.030 6.944649
53.035 6.818726
53.040 6.732345
53.045 6.653304
53.050 6.832684
53.055 7.091539
53.060 7.104192
53.065 6.817126
53.070 6.642962
53.075 6.939102
53.080 6.446915
53.085 6.368619
53.090 6.459441
53.095 7.058153
53.100 7.614033
53.105 8.121177
53.110 7.961621
53.115 8.171672
53.120 8.28525
53.125 7.914242
53.130 7.622167
53.135 7.100099
53.140 6.600654
53.145 6.532945
53.150 6.103373
53.155 5.70488
53.160 5.869588
53.165 6.095019
53.170 6.301365
53.175 6.525411
53.180 6.694674
53.185 6.985659
53.190 6.957579
53.195 6.823355
53.200 6.726538
53.205 6.682632
53.210 6.414019
53.215 5.950494
53.220 5.937641
53.225 6.307207
53.230 6.504189
53.235 6.452551
53.240 6.525314
53.245 6.791718
53.250 7.167677
53.255 6.916359
53.260 6.640648
53.265 6.633475
53.270 6.694172
53.275 6.612859
53.280 6.695279
53.285 7.114045
53.290 7.276708
53.295 6.993362
53.300 6.996487
53.305 7.172421
53.310 7.457274
53.315 7.789151
53.320 7.523695
53.325 7.242641
53.330 7.270858
53.335 7.394534
53.340 7.292234
53.345 6.870553
53.350 6.457434
53.355 6.391388
53.360 6.684903
53.365 6.980711
53.370 7.032645
53.375 7.240661
53.380 7.395018
53.385 7.704677
53.390 8.051376
53.395 8.095223
53.400 7.870466
53.405 7.708276
53.410 7.363017
53.415 7.411571
53.420 7.136261
53.425 6.926303
53.430 6.727262
53.435 6.611189
53.440 6.617522
53.445 6.884659
53.450 6.899705
53.455 7.041587
53.460 6.952983
53.465 6.894072
53.470 7.436343
53.475 7.484354
53.480 7.380898
53.485 7.344367
53.490 7.543736
53.495 7.986038
53.500 8.087191
53.505 7.654036
53.510 7.668068
53.515 7.896579
53.520 7.706544
53.525 7.905926
53.530 7.796618
53.535 7.226128
53.540 7.062054
53.545 7.040635
53.550 7.352816
53.555 7.309244
53.560 6.86035
53.565 7.082675
53.570 7.653138
53.575 8.193174
53.580 8.520612
53.585 8.153264
53.590 8.1641
53.595 8.355461
53.600 8.454111
53.605 8.230993
53.610 8.017097
53.615 7.717784
53.620 7.721212
53.625 7.744057
53.630 7.487012
53.635 7.196272
53.640 7.255436
53.645 7.28457
53.650 7.198402
53.655 7.023258
53.660 6.991084
53.665 7.11368
53.670 7.003527
53.675 6.873476
53.680 6.973145
53.685 7.850013
53.690 8.759583
53.695 9.148512
53.700 9.36119
53.705 9.321804
53.710 8.979162
53.715 8.448216
53.720 7.5407
53.725 7.041438
53.730 6.803359
53.735 6.590222
53.740 7.092912
53.745 7.178714
53.750 7.431419
53.755 7.5636
53.760 7.914261
53.765 7.975784
53.770 8.170807
53.775 8.178173
53.780 8.301056
53.785 8.26163
53.790 8.250469
53.795 7.817861
53.800 7.884462
53.805 7.39948
53.810 7.083092
53.815 7.332623
53.820 7.526442
53.825 7.483899
53.830 7.351593
53.835 7.432031
53.840 8.004493
53.845 7.997687
53.850 8.066194
53.855 7.93532
53.860 8.341846
53.865 8.623327
53.870 8.303425
53.875 8.069373
53.880 8.230429
53.885 8.109403
53.890 8.332487
53.895 8.128321
53.900 8.018965
53.905 7.951246
53.910 7.912304
53.915 7.815306
53.920 7.564946
53.925 7.235852
53.930 7.632506
53.935 7.528021
53.940 8.187592
53.945 8.24008
53.950 7.932384
53.955 8.082495
53.960 8.097044
53.965 7.924891
53.970 7.517154
53.975 7.298081
53.980 7.490298
53.985 7.84647
53.990 8.016082
53.995 7.55444
54.000 7.763189
54.005 8.164545
54.010 8.239368
54.015 8.089265
54.020 7.77418
54.025 7.833868
54.030 8.610862
54.035 8.607258
54.040 8.593706
54.045 8.733651
54.050 8.821675
54.055 8.666173
54.060 8.624331
54.065 8.240346
54.070 8.414356
54.075 8.726704
54.080 8.850584
54.085 9.145821
54.090 9.42417
54.095 9.357041
54.100 9.648924
54.105 9.486822
54.110 8.874419
54.115 8.636202
54.120 8.246034
54.125 8.057478
54.130 8.5424
54.135 8.0358
54.140 7.968143
54.145 8.163786
54.150 8.206343
54.155 8.224149
54.160 8.031498
54.165 7.756073
54.170 8.034134
54.175 8.09649
54.180 8.029801
54.185 8.125951
54.190 8.311734
54.195 8.361914
54.200 8.081696
54.205 8.051403
54.210 7.650767
54.215 7.977424
54.220 7.930641
54.225 8.038118
54.230 8.16767
54.235 8.624666
54.240 8.574674
54.245 8.839437
54.250 8.52331
54.255 8.565633
54.260 8.829046
54.265 8.452216
54.270 8.161029
54.275 8.849931
54.280 9.168953
54.285 9.222283
54.290 9.356806
54.295 9.256404
54.300 9.491719
54.305 9.416715
54.310 8.932864
54.315 9.044019
54.320 8.904096
54.325 8.71619
54.330 8.748524
54.335 8.495348
54.340 8.727368
54.345 8.632627
54.350 8.432084
54.355 8.615417
54.360 8.447655
54.365 8.533628
54.370 8.31957
54.375 7.974351
54.380 7.927969
54.385 7.862721
54.390 7.444422
54.395 7.633905
54.400 7.586359
54.405 7.731429
54.410 7.556177
54.415 7.602469
54.420 7.995373
54.425 8.000444
54.430 8.112211
54.435 8.488153
54.440 8.390636
54.445 8.61954
54.450 8.434415
54.455 8.24484
54.460 8.123152
54.465 7.866485
54.470 7.74516
54.475 8.020229
54.480 8.289248
54.485 8.470862
54.490 8.559114
54.495 8.480866
54.500 8.459479
54.505 8.786468
54.510 8.853784
54.515 8.694405
54.520 8.870234
54.525 9.179394
54.530 9.249789
54.535 8.953729
54.540 8.791668
54.545 8.67063
54.550 8.489673
54.555 8.645761
54.560 8.556816
54.565 8.495833
54.570 8.595178
54.575 8.783609
54.580 9.179208
54.585 9.087588
54.590 8.697307
54.595 9.191758
54.600 9.798549
54.605 10.026622
54.610 9.966018
54.615 9.599032
54.620 9.811586
54.625 9.57001
54.630 8.962994
54.635 8.630001
54.640 8.582632
54.645 8.227577
54.650 8.267269
54.655 8.500414
54.660 8.68684
54.665 8.724128
54.670 8.715937
54.675 8.621767
54.680 8.829906
54.685 9.062601
54.690 8.998321
54.695 9.037884
54.700 9.089246
54.705 9.141438
54.710 9.123923
54.715 9.237954
54.720 8.933243
54.725 8.884969
54.730 8.738931
54.735 8.879285
54.740 8.690447
54.745 8.895704
54.750 8.914718
54.755 9.21891
54.760 9.258819
54.765 9.329082
54.770 8.928216
54.775 8.80157
54.780 8.787426
54.785 8.32275
54.790 8.100545
54.795 8.559892
54.800 8.657383
54.805 9.096732
54.810 9.159813
54.815 9.279565
54.820 9.613878
54.825 9.912959
54.830 9.838378
54.835 9.856289
54.840 9.671674
54.845 9.588499
54.850 9.358962
54.855 8.875607
54.860 8.659076
54.865 8.507691
54.870 8.371319
54.875 8.606901
54.880 8.514688
54.885 8.80754
54.890 9.19893
54.895 9.183276
54.900 9.022887
54.905 9.648261
54.910 9.685954
54.915 10.581766
54.920 10.866584
54.925 11.058259
54.930 10.987151
54.935 10.688832
54.940 10.394018
54.945 10.168732
54.950 9.972808
54.955 9.763271
54.960 9.500503
54.965 9.618706
54.970 9.553725
54.975 9.1663
54.980 8.657083
54.985 8.039195
54.990 7.802258
54.995 8.006507
55.000 8.131334
55.005 8.407916
55.010 8.542788
55.015 8.80625
55.020 8.707774
55.025 8.748441
55.030 8.589117
55.035 8.592158
55.040 8.368466
55.045 8.136867
55.050 8.378691
55.055 8.46113
55.060 8.45478
55.065 8.193912
55.070 8.138334
55.075 8.566993
55.080 8.850658
55.085 8.809367
55.090 8.79337
55.095 8.909726
55.100 9.095688
55.105 9.26884
55.110 9.121681
55.115 9.120397
55.120 8.789497
55.125 8.472013
55.130 8.538431
55.135 8.762999
55.140 9.129432
55.145 9.123626
55.150 8.862546
55.155 8.93843
55.160 9.664989
55.165 9.966521
55.170 9.87245
55.175 9.823079
55.180 9.892462
55.185 10.443148
55.190 10.69936
55.195 9.838599
55.200 9.621087
55.205 9.392201
55.210 9.38184
55.215 9.754135
55.220 9.658098
55.225 9.769032
55.230 10.06496
55.235 9.982059
55.240 10.043937
55.245 10.101386
55.250 9.928224
55.255 9.664884
55.260 9.5895
55.265 9.328784
55.270 9.163481
55.275 8.863435
55.280 8.513677
55.285 8.276525
55.290 8.359821
55.295 8.891105
55.300 9.462033
55.305 9.692788
55.310 9.59948
55.315 9.443921
55.320 9.546333
55.325 9.586443
55.330 9.26679
55.335 8.712075
55.340 8.980334
55.345 9.155218
55.350 9.418859
55.355 9.528207
55.360 9.596043
55.365 9.378269
55.370 9.180085
55.375 8.864561
55.380 8.848678
55.385 8.764043
55.390 8.599117
55.395 8.530765
55.400 9.166306
55.405 9.720042
55.410 9.51559
55.415 9.690701
55.420 9.488326
55.425 9.519948
55.430 9.42292
55.435 9.361602
55.440 9.199367
55.445 9.601595
55.450 9.809017
55.455 9.925089
55.460 9.838657
55.465 10.233406
55.470 10.480847
55.475 11.153469
55.480 11.027779
55.485 11.016113
55.490 11.211741
55.495 11.594675
55.500 10.954607
55.505 10.761147
55.510 10.355294
55.515 10.420545
55.520 10.477194
55.525 10.400597
55.530 9.881012
55.535 9.756415
55.540 9.647882
55.545 9.713173
55.550 10.024651
55.555 9.712642
55.560 9.998158
55.565 10.182479
55.570 10.433764
55.575 10.221389
55.580 10.034404
55.585 9.686566
55.590 9.736578
55.595 9.668682
55.600 9.733151
55.605 9.437019
55.610 9.72982
55.615 10.210679
55.620 10.366324
55.625 10.389812
55.630 9.966193
55.635 10.007426
55.640 10.364972
55.645 10.367659
55.650 10.043942
55.655 10.299486
55.660 10.649776
55.665 10.564137
55.670 10.707376
55.675 10.587403
55.680 10.029444
55.685 9.861342
55.690 9.231372
55.695 9.261742
55.700 9.792665
55.705 9.54423
55.710 9.831142
55.715 10.427208
55.720 10.737921
55.725 10.81426
55.730 10.321688
55.735 9.734641
55.740 9.645469
55.745 9.430687
55.750 9.018819
55.755 8.490048
55.760 8.92506
55.765 9.345136
55.770 9.291842
55.775 9.297974
55.780 9.605342
55.785 9.787083
55.790 9.824735
55.795 10.018287
55.800 10.335502
55.805 10.850359
55.810 10.67468
55.815 10.357212
55.820 10.491356
55.825 10.527148
55.830 10.140117
55.835 10.418948
55.840 10.461297
55.845 10.482758
55.850 10.51135
55.855 10.526059
55.860 10.535223
55.865 10.32995
55.870 10.294305
55.875 10.919981
55.880 11.502422
55.885 12.04318
55.890 12.349347
55.895 12.650945
55.900 12.407048
55.905 11.249278
55.910 10.751438
55.915 10.485093
55.920 10.341153
55.925 10.396586
55.930 10.384629
55.935 10.677892
55.940 11.584908
55.945 11.555109
55.950 11.466903
55.955 11.019026
55.960 10.761705
55.965 10.261009
55.970 10.386084
55.975 10.311646
55.980 10.535109
55.985 10.447736
55.990 10.467863
55.995 10.364186
56.000 10.372246
56.005 10.17228
56.010 10.116129
56.015 10.12727
56.020 10.531349
56.025 10.35778
56.030 10.401033
56.035 10.764346
56.040 10.509587
56.045 10.151523
56.050 9.536582
56.055 9.102095
56.060 9.448606
56.065 9.573316
56.070 9.335532
56.075 9.314044
56.080 9.28002
56.085 9.660737
56.090 10.05018
56.095 10.063493
56.100 10.250306
56.105 10.333892
56.110 10.718584
56.115 11.073801
56.120 11.037632
56.125 10.911085
56.130 10.887197
56.135 10.720435
56.140 10.883775
56.145 10.845613
56.150 11.305663
56.155 11.563088
56.160 11.416162
56.165 11.625618
56.170 11.519862
56.175 11.48126
56.180 11.194873
56.185 10.304523
56.190 9.966932
56.195 9.759753
56.200 9.837013
56.205 10.311527
56.210 10.245392
56.215 10.564958
56.220 10.637828
56.225 10.486567
56.230 10.977621
56.235 10.926774
56.240 10.256431
56.245 10.661738
56.250 10.612875
56.255 10.272751
56.260 10.323989
56.265 9.908093
56.270 9.614579
56.275 9.6346
56.280 8.974355
56.285 9.272728
56.290 9.992089
56.295 9.981475
56.300 10.425338
56.305 10.921474
56.310 11.185001
56.315 11.191216
56.320 11.137112
56.325 11.697316
56.330 11.769906
56.335 11.772917
56.340 11.537801
56.345 12.015286
56.350 12.40093
56.355 11.99896
56.360 11.453006
56.365 11.435347
56.370 11.344035
56.375 11.597326
56.380 11.368299
56.385 11.157454
56.390 11.304324
56.395 11.593319
56.400 11.816658
56.405 11.958137
56.410 11.618429
56.415 11.548383
56.420 11.298012
56.425 11.620362
56.430 12.272566
56.435 12.329629
56.440 11.746632
56.445 11.986358
56.450 11.707576
56.455 11.801968
56.460 11.324275
56.465 10.636262
56.470 10.753381
56.475 10.834771
56.480 10.585605
56.485 10.855691
56.490 11.265459
56.495 11.711532
56.500 12.370588
56.505 12.332583
56.510 12.451514
56.515 12.469393
56.520 12.435028
56.525 12.116373
56.530 11.648756
56.535 11.022934
56.540 11.092684
56.545 11.146484
56.550 11.814095
56.555 11.77584
56.560 11.349324
56.565 11.367404
56.570 11.276772
56.575 11.067534
56.580 10.735229
56.585 10.316711
56.590 10.941104
56.595 11.780946
56.600 11.642641
56.605 11.326714
56.610 11.208928
56.615 11.534827
56.620 11.644312
56.625 11.009224
56.630 10.640424
56.635 10.474179
56.640 10.460296
56.645 10.619643
56.650 10.317412
56.655 9.956532
56.660 9.606798
56.665 9.19805
56.670 9.331383
56.675 9.456597
56.680 9.417166
56.685 9.708155
56.690 10.236588
56.695 11.071041
56.700 10.99846
56.705 10.824963
56.710 10.964959
56.715 11.320414
56.720 10.644118
56.725 10.684051
56.730 10.482533
56.735 10.884109
56.740 11.166503
56.745 11.021745
56.750 11.512756
56.755 12.441717
56.760 12.165671
56.765 12.909359
56.770 13.300145
56.775 13.609625
56.780 13.585472
56.785 12.753851
56.790 12.21974
56.795 11.897584
56.800 11.520981
56.805 11.263139
56.810 11.152163
56.815 11.236829
56.820 11.668403
56.825 11.819941
56.830 11.790648
56.835 11.686913
56.840 12.487855
56.845 12.813987
56.850 12.913925
56.855 12.985409
56.860 13.043643
56.865 13.149333
56.870 12.583142
56.875 11.852617
56.880 11.261924
56.885 11.231366
56.890 10.762075
56.895 10.628874
56.900 10.996363
56.905 11.179512
56.910 11.108909
56.915 11.124712
56.920 10.926964
56.925 11.165795
56.930 11.053446
56.935 11.495145
56.940 11.71095
56.945 11.721524
56.950 11.944236
56.955 11.850546
56.960 11.737917
56.965 11.926471
56.970 11.00526
56.975 10.885552
56.980 10.636953
56.985 10.804423
56.990 11.156576
56.995 11.113781
57.000 11.14373
57.005 10.82927
57.010 10.499713
57.015 10.457645
57.020 10.089744
57.025 10.103042
57.030 9.919601
57.035 10.108153
57.040 10.563003
57.045 10.645542
57.050 10.769992
57.055 11.199847
57.060 11.315295
57.065 11.811468
57.070 11.848899
57.075 11.877314
57.080 12.257442
57.085 12.311131
57.090 12.128101
57.095 11.918091
57.100 11.727775
57.105 11.603126
57.110 11.741163
57.115 11.667583
57.120 11.951158
57.125 12.093029
57.130 11.923372
57.135 11.858826
57.140 11.78019
57.145 11.877041
57.150 11.771552
57.155 11.538973
57.160 11.528093
57.165 11.519043
57.170 11.609767
57.175 11.582008
57.180 11.304173
57.185 11.114266
57.190 11.201933
57.195 11.599006
57.200 11.541369
57.205 11.370185
57.210 11.314263
57.215 11.861901
57.220 12.221383
57.225 11.962058
57.230 11.744435
57.235 12.129345
57.240 12.217505
57.245 12.581714
57.250 12.557996
57.255 12.45071
57.260 12.154489
57.265 11.870096
57.270 12.091717
57.275 12.429914
57.280 12.302901
57.285 11.565239
57.290 11.98541
57.295 12.437924
57.300 12.492894
57.305 12.183487
57.310 11.932324
57.315 11.627081
57.320 12.152667
57.325 11.775834
57.330 11.997826
57.335 12.048467
57.340 11.574374
57.345 11.79961
57.350 11.783036
57.355 12.491632
57.360 12.689469
57.365 12.342025
57.370 12.126237
57.375 12.328268
57.380 12.255879
57.385 12.318841
57.390 11.703848
57.395 11.668048
57.400 11.355667
57.405 11.823244
57.410 12.251538
57.415 12.344897
57.420 12.259959
57.425 12.107341
57.430 12.264904
57.435 12.431497
57.440 12.328482
57.445 12.134018
57.450 12.389918
57.455 11.845967
57.460 12.108975
57.465 12.389271
57.470 12.512745
57.475 12.473163
57.480 12.315119
57.485 12.560121
57.490 13.090532
57.495 13.031592
57.500 12.897063
57.505 12.705299
57.510 12.801466
57.515 13.135373
57.520 12.721696
57.525 12.527364
57.530 12.372567
57.535 12.404385
57.540 12.242749
57.545 11.896546
57.550 11.925181
57.555 12.681837
57.560 12.890034
57.565 13.039595
57.570 13.208673
57.575 13.754139
57.580 13.955262
57.585 13.731941
57.590 13.125587
57.595 13.157319
57.600 13.248555
57.605 12.751335
57.610 12.488338
57.615 12.369282
57.620 11.818398
57.625 11.989557
57.630 12.594208
57.635 12.517015
57.640 12.867288
57.645 12.953883
57.650 12.972253
57.655 13.730664
57.660 13.62139
57.665 13.30642
57.670 13.597111
57.675 13.770709
57.680 13.697082
57.685 13.844316
57.690 13.73105
57.695 12.911441
57.700 12.598571
57.705 12.269271
57.710 11.942296
57.715 11.851236
57.720 11.337337
57.725 11.242718
57.730 11.317033
57.735 10.967059
57.740 10.861335
57.745 11.062959
57.750 11.460633
57.755 11.448131
57.760 11.866443
57.765 12.464618
57.770 12.311275
57.775 12.455774
57.780 12.037634
57.785 12.444127
57.790 12.710454
57.795 12.455339
57.800 12.624283
57.805 13.228638
57.810 13.1472
57.815 13.020368
57.820 12.412386
57.825 12.277719
57.830 12.475936
57.835 12.3901
57.840 12.018643
57.845 11.962718
57.850 12.146998
57.855 12.783668
57.860 12.783025
57.865 12.490032
57.870 12.354712
57.875 12.538824
57.880 12.39234
57.885 11.97812
57.890 11.640476
57.895 11.71144
57.900 11.616144
57.905 11.810829
57.910 11.814317
57.915 12.119805
57.920 12.591916
57.925 12.672848
57.930 12.456017
57.935 12.559415
57.940 12.632481
57.945 12.717043
57.950 12.565437
57.955 12.618697
57.960 12.530775
57.965 12.900929
57.970 13.028575
57.975 12.481726
57.980 13.005082
57.985 13.056076
57.990 12.895136
57.995 13.127814
58.000 13.182867
58.005 12.89309
58.010 13.416656
58.015 13.169102
58.020 13.397951
58.025 13.14362
58.030 12.768812
58.035 13.042052
58.040 13.254039
58.045 13.211407
58.050 13.766748
58.055 13.968915
58.060 13.868316
58.065 13.779336
58.070 13.508791
58.075 13.343008
58.080 13.498172
58.085 13.636516
58.090 13.515166
58.095 13.984296
58.100 14.370621
58.105 14.450449
58.110 14.829492
58.115 14.39965
58.120 13.991846
58.125 13.987709
58.130 13.976661
58.135 13.942772
58.140 14.102502
58.145 14.252415
58.150 14.197897
58.155 14.014399
58.160 14.125491
58.165 14.327026
58.170 14.341863
58.175 13.954497
58.180 13.45898
58.185 13.569223
58.190 13.705411
58.195 13.552157
58.200 13.059977
58.205 13.200543
58.210 13.273639
58.215 13.506177
58.220 13.225737
58.225 12.884218
58.230 12.950543
58.235 12.912396
58.240 12.743592
58.245 12.575345
58.250 12.267966
58.255 12.111552
58.260 12.039732
58.265 11.73166
58.270 11.809826
58.275 11.813928
58.280 12.0747
58.285 12.269779
58.290 12.856893
58.295 12.924423
58.300 13.029931
58.305 13.219803
58.310 13.009442
58.315 12.627249
58.320 12.259839
58.325 12.261794
58.330 12.379293
58.335 12.36779
58.340 12.220721
58.345 12.177873
58.350 12.30073
58.355 12.208793
58.360 12.015471
58.365 11.999288
58.370 12.105065
58.375 12.131068
58.380 12.186704
58.385 12.389839
58.390 12.404304
58.395 12.258548
58.400 12.459796
58.405 12.570041
58.410 12.857551
58.415 13.116528
58.420 12.806574
58.425 12.963689
58.430 13.729362
58.435 14.096128
58.440 13.805361
58.445 13.469239
58.450 13.689481
58.455 14.473563
58.460 14.546226
58.465 13.939054
58.470 13.657464
58.475 13.768672
58.480 13.578654
58.485 13.126244
58.490 13.196929
58.495 13.174114
58.500 12.815052
58.505 12.931234
58.510 13.064641
58.515 13.809037
58.520 13.760243
58.525 13.112993
58.530 12.958945
58.535 13.639659
58.540 13.361579
58.545 13.008131
58.550 12.338714
58.555 12.35813
58.560 12.796141
58.565 12.953938
58.570 13.151318
58.575 13.513357
58.580 13.164266
58.585 13.46846
58.590 13.355445
58.595 13.212923
58.600 12.855258
58.605 12.332297
58.610 12.389316
58.615 12.834581
58.620 12.986856
58.625 13.34596
58.630 13.858371
58.635 14.048037
58.640 14.146367
58.645 14.310914
58.650 14.128219
58.655 13.738979
58.660 13.260549
58.665 12.471651
58.670 12.646015
58.675 12.598297
58.680 12.671496
58.685 12.992529
58.690 13.646774
58.695 14.536005
58.700 14.656418
58.705 14.48937
58.710 14.497555
58.715 14.361594
58.720 14.418186
58.725 14.014795
58.730 13.717519
58.735 13.549795
58.740 13.356778
58.745 13.532038
58.750 13.502464
58.755 13.805772
58.760 13.673022
58.765 14.012932
58.770 14.355679
58.775 14.527228
58.780 14.656124
58.785 14.631985
58.790 14.091736
58.795 13.716558
58.800 13.301039
58.805 13.603409
58.810 13.447832
58.815 13.303683
58.820 13.915919
58.825 14.27432
58.830 14.157978
58.835 14.056219
58.840 13.864645
58.845 13.630201
58.850 13.676294
58.855 13.472835
58.860 14.203212
58.865 15.104836
58.870 15.184186
58.875 15.147142
58.880 15.48476
58.885 15.050316
58.890 14.740838
58.895 13.785875
58.900 13.200489
58.905 13.353076
58.910 13.759624
58.915 13.806663
58.920 14.098983
58.925 13.858726
58.930 14.056744
58.935 14.181257
58.940 14.849192
58.945 14.986972
58.950 14.743074
58.955 14.905391
58.960 15.140073
58.965 15.263639
58.970 15.559191
58.975 14.572236
58.980 14.641744
58.985 14.771524
58.990 14.661486
58.995 14.788935
59.000 14.963786
59.005 14.893487
59.010 15.088348
59.015 15.415061
59.020 15.27882
59.025 15.327526
59.030 15.200666
59.035 14.932775
59.040 14.962171
59.045 14.763616
59.050 14.926319
59.055 15.31802
59.060 15.124565
59.065 15.477556
59.070 15.499639
59.075 15.9576
59.080 16.867321
59.085 16.929058
59.090 17.076782
59.095 17.245466
59.100 16.650591
59.105 16.460978
59.110 15.928722
59.115 15.010431
59.120 14.754235
59.125 14.8299
59.130 15.07703
59.135 15.341831
59.140 15.165745
59.145 15.583161
59.150 15.810429
59.155 15.885115
59.160 15.53134
59.165 15.323281
59.170 15.34996
59.175 16.005102
59.180 15.638931
59.185 15.735024
59.190 15.625721
59.195 15.904269
59.200 16.181381
59.205 15.785215
59.210 15.266396
59.215 15.075207
59.220 14.643147
59.225 14.735528
59.230 14.852291
59.235 14.824798
59.240 15.243375
59.245 15.813116
59.250 15.857405
59.255 15.785097
59.260 15.528008
59.265 14.831159
59.270 14.999819
59.275 14.949797
59.280 15.029842
59.285 15.424312
59.290 15.480956
59.295 15.567057
59.300 16.212841
59.305 16.303055
59.310 16.923271
59.315 16.89518
59.320 16.981712
59.325 17.243597
59.330 17.367699
59.335 17.323618
59.340 17.176355
59.345 16.684036
59.350 16.98391
59.355 16.788866
59.360 17.105177
59.365 17.13238
59.370 16.741909
59.375 17.046658
59.380 16.744688
59.385 16.23074
59.390 16.488287
59.395 15.756494
59.400 15.620073
59.405 15.73094
59.410 15.428693
59.415 15.84779
59.420 16.372286
59.425 16.597233
59.430 17.061857
59.435 17.529085
59.440 17.907536
59.445 17.77948
59.450 17.445971
59.455 17.769918
59.460 18.306574
59.465 18.257639
59.470 18.172058
59.475 17.783804
59.480 18.078054
59.485 18.265427
59.490 18.005507
59.495 17.909813
59.500 18.208242
59.505 18.154367
59.510 18.331785
59.515 18.232071
59.520 18.562441
59.525 18.453905
59.530 17.757353
59.535 17.653387
59.540 17.341299
59.545 17.226831
59.550 17.308249
59.555 17.335291
59.560 17.160675
59.565 17.272646
59.570 17.546408
59.575 17.625786
59.580 18.214525
59.585 18.111128
59.590 17.541691
59.595 17.76033
59.600 17.289333
59.605 17.244123
59.610 17.731842
59.615 17.875774
59.620 18.605415
59.625 19.082268
59.630 18.759235
59.635 18.993416
59.640 18.598301
59.645 18.534466
59.650 17.992208
59.655 16.874157
59.660 16.478384
59.665 16.94721
59.670 17.473314
59.675 17.777451
59.680 17.502079
59.685 17.732096
59.690 18.372198
59.695 19.049839
59.700 19.957401
59.705 20.46372
59.710 20.377468
59.715 20.505938
59.720 20.660355
59.725 20.955109
59.730 20.545301
59.735 20.00491
59.740 20.010628
59.745 20.445227
59.750 20.126575
59.755 19.551208
59.760 19.168648
59.765 19.295948
59.770 19.349255
59.775 19.475063
59.780 19.501125
59.785 19.891582
59.790 20.603107
59.795 20.899157
59.800 21.167892
59.805 20.488497
59.810 20.293032
59.815 20.767696
59.820 21.347919
59.825 21.124304
59.830 20.759319
59.835 20.852198
59.840 21.123531
59.845 20.725439
59.850 20.718811
59.855 20.325983
59.860 20.227896
59.865 20.708109
59.870 21.172106
59.875 20.869844
59.880 20.507124
59.885 19.53944
59.890 19.245453
59.895 19.147253
59.900 19.042063
59.905 19.089731
59.910 19.590805
59.915 19.789246
59.920 19.822206
59.925 19.472998
59.930 19.688141
59.935 19.892662
59.940 19.43421
59.945 19.062965
59.950 19.394623
59.955 20.150751
59.960 20.842394
59.965 21.465759
59.970 21.582632
59.975 20.822414
59.980 20.787514
59.985 20.327139
59.990 20.347481
59.995 20.230141
60.000 19.015707
60.005 18.347027
60.010 19.362394
60.015 19.962923
60.020 19.959667
60.025 19.356705
60.030 18.981405
60.035 19.605312
60.040 20.198254
60.045 20.092804
60.050 19.999243
60.055 20.390631
60.060 20.777283
60.065 20.982994
60.070 20.964384
60.075 21.16855
60.080 21.02874
60.085 20.998079
60.090 20.76955
60.095 20.838762
60.100 20.913521
60.105 20.508646
60.110 20.193121
60.115 19.370951
60.120 19.525848
60.125 19.703449
60.130 19.571236
60.135 19.461517
60.140 19.125231
60.145 19.298002
60.150 19.861303
60.155 19.688921
60.160 19.600502
60.165 19.49943
60.170 19.933477
60.175 20.267147
60.180 19.891226
60.185 20.461332
60.190 20.235109
60.195 20.438282
60.200 20.55331
60.205 19.872984
60.210 19.680651
60.215 19.490837
60.220 18.786331
60.225 19.082212
60.230 19.084253
60.235 19.095425
60.240 19.50358
60.245 19.837612
60.250 20.101515
60.255 19.915461
60.260 19.454775
60.265 19.89159
60.270 19.623013
60.275 19.928003
60.280 19.700821
60.285 19.567924
60.290 19.560343
60.295 19.70986
60.300 19.557848
60.305 19.635998
60.310 18.940449
60.315 18.779345
60.320 18.897263
60.325 19.793749
60.330 19.459801
60.335 18.806496
60.340 18.698267
60.345 18.587393
60.350 18.93429
60.355 18.727301
60.360 17.940516
60.365 18.062662
60.370 17.687346
60.375 17.732103
60.380 17.758486
60.385 17.316999
60.390 17.062607
60.395 17.735863
60.400 17.445259
60.405 17.931999
60.410 17.957403
60.415 18.165314
60.420 18.340084
60.425 18.562584
60.430 17.926558
60.435 17.9533
60.440 18.11968
60.445 17.978901
60.450 17.996393
60.455 18.06809
60.460 17.893511
60.465 18.437666
60.470 19.042555
60.475 19.045248
60.480 18.836374
60.485 18.613064
60.490 18.540993
60.495 18.628187
60.500 18.490465
60.505 18.601254
60.510 18.944349
60.515 19.016081
60.520 19.197145
60.525 19.212379
60.530 18.811716
60.535 18.279099
60.540 17.364729
60.545 16.808737
60.550 17.035341
60.555 17.099894
60.560 16.99255
60.565 16.742125
60.570 17.036402
60.575 17.224798
60.580 17.347651
60.585 17.132387
60.590 16.663567
60.595 16.894295
60.600 17.175604
60.605 17.237223
60.610 17.537979
60.615 17.461414
60.620 17.416643
60.625 17.743223
60.630 17.252356
60.635 16.99473
60.640 17.27541
60.645 18.050138
60.650 18.750914
60.655 18.624706
60.660 18.92474
60.665 19.101786
60.670 18.730862
60.675 18.175566
60.680 17.279812
60.685 16.693832
60.690 16.828768
60.695 16.591949
60.700 17.122066
60.705 17.352524
60.710 16.950064
60.715 16.266178
60.720 16.04048
60.725 15.72817
60.730 15.436545
60.735 15.449672
60.740 16.1175
60.745 16.136927
60.750 16.405649
60.755 16.309769
60.760 16.727995
60.765 17.034203
60.770 17.118931
60.775 16.550617
60.780 16.808409
60.785 17.038723
60.790 16.967392
60.795 17.085464
60.800 17.535858
60.805 17.766575
60.810 18.327496
60.815 18.15556
60.820 17.46446
60.825 17.596991
60.830 17.119366
60.835 16.553095
60.840 15.915835
60.845 15.560002
60.850 15.829448
60.855 16.024792
60.860 16.142952
60.865 15.770165
60.870 15.323912
60.875 14.983013
60.880 14.206204
60.885 13.996258
60.890 14.243593
60.895 14.063405
60.900 14.750722
60.905 15.264742
60.910 15.46579
60.915 16.31188
60.920 16.421141
60.925 15.835706
60.930 15.67393
60.935 15.090792
60.940 14.63253
60.945 15.001222
60.950 15.332475
60.955 15.433696
60.960 16.136324
60.965 16.560818
60.970 16.726347
60.975 16.886503
60.980 16.840254
60.985 16.424685
60.990 16.245937
60.995 16.232422
61.000 16.371349
61.005 16.519127
61.010 16.37339
61.015 16.226257
61.020 16.177465
61.025 16.104259
61.030 15.642395
61.035 15.658144
61.040 15.900754
61.045 15.47574
61.050 15.278334
61.055 14.890683
61.060 15.175289
61.065 15.22926
61.070 15.158175
61.075 15.00347
61.080 15.455626
61.085 15.628449
61.090 16.001368
61.095 15.982972
61.100 16.071928
61.105 16.012774
61.110 15.700752
61.115 15.587896
61.120 15.665748
61.125 16.01507
61.130 16.052526
61.135 16.151951
61.140 16.397549
61.145 16.946287
61.150 17.125656
61.155 17.204243
61.160 16.905148
61.165 16.895397
61.170 17.050549
61.175 16.617022
61.180 16.198807
61.185 16.565102
61.190 17.057428
61.195 16.934557
61.200 16.895264
61.205 16.981852
61.210 16.838787
61.215 16.836912
61.220 16.133671
61.225 15.41887
61.230 15.730412
61.235 15.376642
61.240 14.786305
61.245 15.004834
61.250 15.280033
61.255 15.222549
61.260 15.279458
61.265 15.488102
61.270 15.743687
61.275 16.241137
61.280 16.453373
61.285 16.108912
61.290 16.598726
61.295 16.642702
61.300 16.626793
61.305 16.781149
61.310 16.667536
61.315 16.842516
61.320 17.148024
61.325 16.45755
61.330 16.017292
61.335 15.691396
61.340 15.623463
61.345 14.952015
61.350 14.739216
61.355 14.597207
61.360 15.190236
61.365 16.080915
61.370 16.657379
61.375 16.676962
61.380 16.830133
61.385 16.825829
61.390 16.737785
61.395 16.20929
61.400 15.523339
61.405 14.60493
61.410 14.726917
61.415 14.659369
61.420 14.443421
61.425 14.812631
61.430 14.743517
61.435 14.611028
61.440 15.251915
61.445 15.644209
61.450 16.024593
61.455 16.053791
61.460 15.777977
61.465 16.017132
61.470 15.977045
61.475 15.682541
61.480 15.102161
61.485 14.815834
61.490 14.68122
61.495 14.412879
61.500 14.400451
61.505 14.507236
61.510 14.831647
61.515 15.751944
61.520 16.357464
61.525 17.348841
61.530 17.597626
61.535 17.580662
61.540 17.421251
61.545 17.212948
61.550 16.326113
61.555 15.649013
61.560 14.474153
61.565 14.509877
61.570 14.73971
61.575 15.292308
61.580 14.911933
61.585 14.907795
61.590 15.3435
61.595 15.759482
61.600 15.783125
61.605 15.529678
61.610 15.93959
61.615 16.814007
61.620 16.853359
61.625 16.981339
61.630 16.689562
61.635 16.703646
61.640 17.053213
61.645 16.544779
61.650 15.869531
61.655 15.783998
61.660 15.606002
61.665 15.999427
61.670 16.379202
61.675 16.302631
61.680 15.663321
61.685 15.777861
61.690 15.856389
61.695 15.205993
61.700 14.586493
61.705 13.711153
61.710 13.363028
61.715 13.431347
61.720 13.501607
61.725 13.504756
61.730 14.010227
61.735 14.218843
61.740 14.41947
61.745 14.366802
61.750 14.345592
61.755 14.89582
61.760 15.323562
61.765 15.416218
61.770 15.708992
61.775 15.986399
61.780 16.213295
61.785 16.021084
61.790 15.661243
61.795 15.162437
61.800 14.950338
61.805 15.251133
61.810 15.260429
61.815 15.542474
61.820 15.736701
61.825 15.650551
61.830 16.429426
61.835 17.04915
61.840 16.911758
61.845 16.850473
61.850 16.67334
61.855 16.868324
61.860 16.551487
61.865 15.80828
61.870 15.29608
61.875 15.440311
61.880 15.593766
61.885 15.47622
61.890 15.555503
61.895 15.45649
61.900 15.823802
61.905 15.852674
61.910 15.900276
61.915 15.91588
61.920 15.981296
61.925 16.109938
61.930 16.626787
61.935 16.879446
61.940 16.561277
61.945 16.190149
61.950 16.184813
61.955 16.249523
61.960 15.740364
61.965 15.19851
61.970 14.737364
61.975 15.256538
61.980 15.096737
61.985 14.702991
61.990 14.272277
61.995 13.645149
62.000 13.717808
62.005 13.826924
62.010 13.833932
62.015 14.040291
62.020 14.31919
62.025 15.123281
62.030 15.888034
62.035 16.135298
62.040 16.073662
62.045 15.945016
62.050 15.952704
62.055 16.121208
62.060 15.596308
62.065 15.644523
62.070 15.222877
62.075 15.177873
62.080 14.685487
62.085 14.152775
62.090 14.078738
62.095 14.433558
62.100 15.124898
62.105 15.61497
62.110 15.536584
62.115 15.814301
62.120 16.49725
62.125 16.902304
62.130 16.932192
62.135 16.260698
62.140 16.126886
62.145 16.003147
62.150 16.40748
62.155 16.390623
62.160 16.051132
62.165 15.68863
62.170 15.839646
62.175 16.140211
62.180 16.59321
62.185 16.478447
62.190 15.68034
62.195 15.942767
62.200 16.115406
62.205 16.207977
62.210 16.3349
62.215 16.567308
62.220 16.801409
62.225 17.107563
62.230 16.762506
62.235 16.610697
62.240 16.758064
62.245 16.610172
62.250 16.300383
62.255 15.49204
62.260 15.367466
62.265 15.977792
62.270 16.225847
62.275 16.552271
62.280 16.645405
62.285 17.106869
62.290 17.285093
62.295 18.057318
62.300 17.923357
62.305 17.225737
62.310 16.414793
62.315 16.113167
62.320 15.370594
62.325 15.543041
62.330 14.875196
62.335 14.566487
62.340 15.175368
62.345 15.184073
62.350 14.981586
62.355 14.966632
62.360 15.295125
62.365 15.527718
62.370 15.795964
62.375 15.711027
62.380 15.569591
62.385 15.88783
62.390 16.317493
62.395 16.062483
62.400 15.761156
62.405 15.543888
62.410 15.520933
62.415 15.966989
62.420 15.850906
62.425 15.712505
62.430 15.400269
62.435 15.3442
62.440 15.67358
62.445 16.66946
62.450 17.291351
62.455 17.629299
62.460 17.892262
62.465 18.427835
62.470 18.915276
62.475 18.630831
62.480 18.816893
62.485 17.981207
62.490 17.742796
62.495 17.83754
62.500 17.615246
62.505 17.542234
62.510 17.112486
62.515 16.015369
62.520 16.090029
62.525 15.986829
62.530 15.350196
62.535 14.936809
62.540 14.847675
62.545 15.003342
62.550 15.044834
62.555 15.225331
62.560 15.214417
62.565 15.969048
62.570 16.166393
62.575 16.132032
62.580 16.0609
62.585 15.879706
62.590 15.408528
62.595 15.160009
62.600 14.795579
62.605 14.95906
62.610 15.222107
62.615 14.814288
62.620 14.989192
62.625 15.664192
62.630 15.861597
62.635 16.03697
62.640 15.480858
62.645 14.858636
62.650 15.051341
62.655 15.453341
62.660 15.881164
62.665 16.0014
62.670 16.127159
62.675 16.75445
62.680 17.178612
62.685 17.560364
62.690 17.040787
62.695 16.460655
62.700 16.395189
62.705 16.349449
62.710 16.243221
62.715 16.258791
62.720 16.177843
62.725 16.195898
62.730 16.187593
62.735 16.301868
62.740 16.755156
62.745 16.932034
62.750 17.289045
62.755 17.355782
62.760 17.71513
62.765 17.889534
62.770 17.506014
62.775 16.497877
62.780 15.94444
62.785 15.995785
62.790 16.216452
62.795 16.321747
62.800 16.411812
62.805 17.318747
62.810 18.220778
62.815 18.551701
62.820 18.17207
62.825 17.956688
62.830 17.782341
62.835 17.581385
62.840 17.08877
62.845 16.652851
62.850 17.218143
62.855 17.311552
62.860 17.010721
62.865 16.832577
62.870 16.980307
62.875 16.862595
62.880 16.794254
62.885 16.195358
62.890 15.804832
62.895 15.731413
62.900 15.716308
62.905 15.432851
62.910 15.112425
62.915 15.407949
62.920 15.651242
62.925 15.988011
62.930 15.851824
62.935 15.7529
62.940 15.688728
62.945 15.728752
62.950 15.075916
62.955 14.444398
62.960 14.57713
62.965 15.002625
62.970 15.499488
62.975 16.225958
62.980 16.99103
62.985 17.705166
62.990 18.472803
62.995 18.797585
63.000 18.619865
63.005 18.576494
63.010 18.156363
63.015 18.168907
63.020 17.999359
63.025 17.117682
63.030 16.451468
63.035 16.139017
63.040 15.69468
63.045 15.255984
63.050 14.946363
63.055 14.784302
63.060 15.141153
63.065 14.875119
63.070 15.219154
63.075 15.349961
63.080 15.57011
63.085 15.482285
63.090 15.568373
63.095 15.780984
63.100 16.693495
63.105 17.004751
63.110 17.259823
63.115 17.033087
63.120 16.884996
63.125 16.261248
63.130 15.645603
63.135 14.932355
63.140 14.306397
63.145 13.70026
63.150 13.652596
63.155 13.643691
63.160 14.364767
63.165 14.757682
63.170 15.150026
63.175 14.903352
63.180 15.134479
63.185 15.454607
63.190 15.680895
63.195 15.754245
63.200 15.78101
63.205 15.382371
63.210 15.916142
63.215 15.837436
63.220 15.795966
63.225 15.716416
63.230 15.699086
63.235 15.527628
63.240 16.163549
63.245 16.401983
63.250 16.72341
63.255 16.527332
63.260 17.044361
63.265 17.323568
63.270 17.813175
63.275 17.805225
63.280 17.870861
63.285 18.243507
63.290 18.37886
63.295 17.781038
63.300 17.487812
63.305 17.161221
63.310 16.181946
63.315 15.550705
63.320 15.185584
63.325 15.031357
63.330 14.989697
63.335 14.427884
63.340 14.484362
63.345 15.483631
63.350 15.809614
63.355 15.96174
63.360 16.22435
63.365 16.685514
63.370 17.39768
63.375 17.620861
63.380 17.339632
63.385 17.324514
63.390 17.245819
63.395 17.168646
63.400 16.781578
63.405 16.460051
63.410 16.478746
63.415 16.697214
63.420 17.312372
63.425 17.990818
63.430 18.196239
63.435 18.517269
63.440 18.438595
63.445 18.481689
63.450 18.885107
63.455 18.058603
63.460 18.194336
63.465 18.477318
63.470 18.616562
63.475 18.778345
63.480 18.799082
63.485 18.372433
63.490 18.889118
63.495 18.891174
63.500 18.835781
63.505 18.818729
63.510 18.732809
63.515 18.095032
63.520 17.631411
63.525 16.606213
63.530 16.653502
63.535 17.199127
63.540 17.199091
63.545 17.171768
63.550 17.296885
63.555 17.934423
63.560 18.510885
63.565 17.537668
63.570 16.452368
63.575 16.663555
63.580 16.374401
63.585 16.419081
63.590 15.935887
63.595 15.557925
63.600 15.9955
63.605 16.490267
63.610 16.362661
63.615 17.183889
63.620 17.609102
63.625 17.969664
63.630 17.996349
63.635 17.673897
63.640 17.247534
63.645 16.99424
63.650 16.223696
63.655 15.938128
63.660 16.139072
63.665 16.45418
63.670 15.916189
63.675 15.712085
63.680 16.169777
63.685 16.729168
63.690 17.226439
63.695 16.927748
63.700 17.35029
63.705 18.289211
63.710 18.642155
63.715 18.217939
63.720 18.219801
63.725 18.102465
63.730 17.94314
63.735 17.750227
63.740 17.72506
63.745 17.892653
63.750 18.133862
63.755 17.528843
63.760 17.167711
63.765 17.130625
63.770 16.645674
63.775 16.576408
63.780 16.311766
63.785 16.063332
63.790 15.982003
63.795 16.112246
63.800 16.291191
63.805 16.181368
63.810 16.086395
63.815 16.342289
63.820 17.021133
63.825 17.020216
63.830 16.767214
63.835 16.942419
63.840 17.532228
63.845 17.840479
63.850 17.849558
63.855 17.459404
63.860 17.745712
63.865 17.890778
63.870 17.299181
63.875 17.104881
63.880 16.902168
63.885 17.091869
63.890 17.194862
63.895 17.234644
63.900 16.95155
63.905 17.009735
63.910 16.852924
63.915 16.491404
63.920 15.803329
63.925 16.098595
63.930 15.923511
63.935 15.990131
63.940 16.282606
63.945 16.432074
63.950 16.157787
63.955 16.376951
63.960 15.856966
63.965 16.112167
63.970 16.581133
63.975 16.25688
63.980 16.430727
63.985 17.163733
63.990 17.736217
63.995 18.76902
64.000 18.866028
64.005 18.979357
64.010 19.271784
64.015 19.39632
64.020 19.537474
64.025 19.335686
64.030 18.945831
64.035 19.043533
64.040 19.287441
64.045 19.751881
64.050 20.041542
64.055 19.862484
64.060 19.69478
64.065 18.936581
64.070 18.410456
64.075 17.915144
64.080 17.384109
64.085 16.830559
64.090 16.33777
64.095 15.886767
64.100 16.039883
64.105 16.065876
64.110 16.154009
64.115 16.451897
64.120 16.329931
64.125 16.206675
64.130 16.381659
64.135 16.502861
64.140 16.911882
64.145 16.445971
64.150 16.090189
64.155 16.302099
64.160 16.559877
64.165 16.508802
64.170 16.856182
64.175 16.860764
64.180 17.073204
64.185 17.324526
64.190 17.269651
64.195 17.664738
64.200 18.110426
64.205 17.55637
64.210 17.564306
64.215 17.328396
64.220 17.065565
64.225 17.147173
64.230 16.803432
64.235 16.567411
64.240 16.801266
64.245 16.375782
64.250 16.738932
64.255 17.215103
64.260 17.240059
64.265 17.380371
64.270 17.00136
64.275 17.065779
64.280 17.305548
64.285 17.632244
64.290 17.413546
64.295 17.128958
64.300 17.592901
64.305 18.219433
64.310 18.529917
64.315 18.167835
64.320 17.959843
64.325 18.417498
64.330 18.411106
64.335 17.854975
64.340 17.454138
64.345 17.866459
64.350 19.071531
64.355 19.412766
64.360 20.481743
64.365 20.707424
64.370 20.488214
64.375 20.033321
64.380 19.31608
64.385 18.658329
64.390 18.510773
64.395 17.909492
64.400 17.84796
64.405 18.008894
64.410 18.207352
64.415 18.063074
64.420 18.165512
64.425 18.074636
64.430 18.023838
64.435 18.35146
64.440 19.180746
64.445 19.565369
64.450 19.568624
64.455 19.284218
64.460 19.49548
64.465 19.262152
64.470 18.504177
64.475 18.064489
64.480 18.601826
64.485 18.851192
64.490 18.584749
64.495 17.662352
64.500 17.369364
64.505 17.606218
64.510 17.239796
64.515 16.784315
64.520 16.4611
64.525 16.584991
64.530 16.821306
64.535 16.994184
64.540 16.831469
64.545 17.162012
64.550 17.628662
64.555 17.914238
64.560 18.331032
64.565 18.998787
64.570 19.742189
64.575 20.165953
64.580 20.225212
64.585 19.620586
64.590 19.541027
64.595 19.307552
64.600 18.63982
64.605 18.045736
64.610 17.830645
64.615 17.663128
64.620 17.759327
64.625 17.88591
64.630 18.001534
64.635 17.912508
64.640 17.639637
64.645 17.680834
64.650 18.030682
64.655 17.853678
64.660 17.494884
64.665 17.678389
64.670 17.971565
64.675 18.206074
64.680 18.247923
64.685 17.867386
64.690 18.154297
64.695 18.081404
64.700 17.845016
64.705 17.768127
64.710 18.618843
64.715 18.402557
64.720 18.557482
64.725 18.480719
64.730 18.691418
64.735 18.68384
64.740 18.467419
64.745 18.357212
64.750 19.235971
64.755 19.495804
64.760 19.746435
64.765 19.849003
64.770 19.77006
64.775 20.213436
64.780 20.219231
64.785 19.769131
64.790 19.623949
64.795 19.153954
64.800 19.37471
64.805 19.322672
64.810 19.008154
64.815 18.672171
64.820 18.841444
64.825 18.460737
64.830 18.572285
64.835 18.168629
64.840 18.207766
64.845 18.043512
64.850 18.352631
64.855 18.806652
64.860 19.669024
64.865 19.625475
64.870 19.38966
64.875 19.289377
64.880 18.938911
64.885 18.132042
64.890 18.016905
64.895 17.437456
64.900 17.613892
64.905 18.35428
64.910 18.952131
64.915 19.504066
64.920 20.052488
64.925 19.977976
64.930 20.227966
64.935 20.735971
64.940 20.123558
64.945 20.362272
64.950 20.468191
64.955 19.736433
64.960 19.385521
64.965 18.976049
64.970 18.705088
64.975 19.309973
64.980 19.553654
64.985 19.848793
64.990 19.858862
64.995 20.28083
65.000 20.864786
65.005 21.457867
65.010 21.740892
65.015 21.154663
65.020 21.892731
65.025 22.500748
65.030 22.991404
65.035 23.240141
65.040 22.845894
65.045 22.939568
65.050 23.355795
65.055 22.873594
65.060 22.884636
65.065 22.483112
65.070 22.082062
65.075 21.69639
65.080 21.759077
65.085 21.68494
65.090 21.86869
65.095 21.961416
65.100 21.977133
65.105 22.358355
65.110 22.825661
65.115 21.992228
65.120 21.482479
65.125 21.426001
65.130 21.420286
65.135 21.870052
65.140 22.283083
65.145 22.581404
65.150 23.566038
65.155 24.152853
65.160 23.821514
65.165 24.442505
65.170 23.956181
65.175 23.185633
65.180 22.909328
65.185 22.520132
65.190 22.415167
65.195 22.016172
65.200 21.517363
65.205 21.46895
65.210 21.088285
65.215 20.261974
65.220 19.862839
65.225 20.132378
65.230 21.27508
65.235 21.566454
65.240 22.18149
65.245 22.736807
65.250 22.945162
65.255 23.375532
65.260 23.519751
65.265 22.90469
65.270 22.960915
65.275 22.610645
65.280 22.752253
65.285 23.004358
65.290 22.776537
65.295 22.96286
65.300 22.942038
65.305 22.221878
65.310 22.920033
65.315 22.933842
65.320 22.900948
65.325 23.19091
65.330 22.974754
65.335 23.556648
65.340 24.303503
65.345 24.111046
65.350 24.285849
65.355 24.0795
65.360 23.781391
65.365 23.507425
65.370 23.132748
65.375 23.09647
65.380 23.355225
65.385 24.103199
65.390 24.670944
65.395 24.500916
65.400 24.468805
65.405 25.075527
65.410 25.020176
65.415 24.769892
65.420 24.220915
65.425 24.445463
65.430 24.987417
65.435 25.697596
65.440 25.528801
65.445 24.848064
65.450 24.379
65.455 24.199844
65.460 23.662861
65.465 23.543579
65.470 23.224279
65.475 23.505028
65.480 23.782934
65.485 24.196104
65.490 24.495493
65.495 24.723486
65.500 24.555889
65.505 24.759933
65.510 24.575539
65.515 24.47204
65.520 24.608356
65.525 25.556089
65.530 26.462448
65.535 26.832027
65.540 27.177296
65.545 28.431181
65.550 28.536501
65.555 28.051086
65.560 27.675922
65.565 27.892096
65.570 28.169889
65.575 28.060045
65.580 27.951668
65.585 28.275831
65.590 28.814299
65.595 28.923643
65.600 28.761103
65.605 28.891996
65.610 28.989813
65.615 28.935865
65.620 29.594133
65.625 30.542349
65.630 30.923887
65.635 31.398226
65.640 31.391296
65.645 31.919056
65.650 32.730988
65.655 32.714249
65.660 32.419167
65.665 32.070805
65.670 31.917831
65.675 31.983728
65.680 31.447916
65.685 31.076502
65.690 30.84963
65.695 30.441975
65.700 30.31761
65.705 30.282915
65.710 30.27911
65.715 30.175669
65.720 29.479818
65.725 30.144743
65.730 31.179981
65.735 31.566626
65.740 31.742388
65.745 31.95118
65.750 32.049515
65.755 32.273296
65.760 32.052132
65.765 31.852907
65.770 32.109177
65.775 31.925907
65.780 32.222763
65.785 32.739361
65.790 32.879452
65.795 32.691113
65.800 32.921215
65.805 33.492725
65.810 33.422321
65.815 33.226723
65.820 33.355949
65.825 33.990387
65.830 34.742447
65.835 34.436459
65.840 34.182743
65.845 35.51152
65.850 35.851101
65.855 35.756226
65.860 35.321201
65.865 34.484665
65.870 35.156654
65.875 35.094959
65.880 34.764164
65.885 34.932888
65.890 35.577789
65.895 36.084702
65.900 36.59325
65.905 35.900509
65.910 35.582268
65.915 36.306499
65.920 36.955799
65.925 37.597157
65.930 38.008041
65.935 38.395096
65.940 38.044632
65.945 38.220219
65.950 37.225506
65.955 36.581219
65.960 36.169434
65.965 36.666782
65.970 37.059521
65.975 38.064995
65.980 38.153652
65.985 38.118855
65.990 38.297012
65.995 37.704102
66.000 37.282482
66.005 37.524437
66.010 37.488384
66.015 38.14167
66.020 38.626839
66.025 38.721161
66.030 39.222054
66.035 38.604328
66.040 37.920979
66.045 37.61602
66.050 37.130264
66.055 36.94508
66.060 36.784168
66.065 36.031006
66.070 36.40173
66.075 37.405075
66.080 36.824352
66.085 36.758442
66.090 36.998131
66.095 37.177464
66.100 37.463146
66.105 37.603676
66.110 37.036041
66.115 37.797291
66.120 37.460014
66.125 36.922211
66.130 37.154095
66.135 36.831287
66.140 36.540127
66.145 36.770493
66.150 36.27174
66.155 36.114052
66.160 35.85833
66.165 36.106991
66.170 36.681816
66.175 37.495125
66.180 37.496281
66.185 37.474022
66.190 37.350342
66.195 37.998066
66.200 37.868938
66.205 37.20813
66.210 35.753448
66.215 35.682343
66.220 35.709114
66.225 35.864132
66.230 35.554314
66.235 35.066422
66.240 34.405724
66.245 34.745762
66.250 34.211411
66.255 34.483616
66.260 34.29385
66.265 34.605274
66.270 35.05687
66.275 35.151073
66.280 35.313004
66.285 35.404556
66.290 35.14172
66.295 35.468342
66.300 35.291649
66.305 34.994621
66.310 34.674065
66.315 34.29829
66.320 33.833977
66.325 33.654606
66.330 32.779114
66.335 32.232525
66.340 32.00515
66.345 31.615402
66.350 31.307232
66.355 31.149055
66.360 31.399616
66.365 31.198965
66.370 31.101288
66.375 31.532501
66.380 31.500647
66.385 31.304716
66.390 30.920729
66.395 30.139643
66.400 29.963528
66.405 29.721802
66.410 29.632755
66.415 29.585066
66.420 29.418133
66.425 30.425867
66.430 29.95372
66.435 30.122412
66.440 29.39069
66.445 28.016247
66.450 27.336945
66.455 26.573195
66.460 25.94488
66.465 26.482584
66.470 27.100166
66.475 27.871548
66.480 28.147547
66.485 28.635572
66.490 28.642328
66.495 27.967871
66.500 27.100836
66.505 25.521708
66.510 25.114592
66.515 24.644543
66.520 24.696175
66.525 25.069431
66.530 26.017431
66.535 26.361528
66.540 26.740389
66.545 26.583277
66.550 26.76906
66.555 26.174673
66.560 25.899008
66.565 25.563099
66.570 25.22632
66.575 25.156687
66.580 24.725313
66.585 24.628962
66.590 25.027914
66.595 25.40621
66.600 25.020378
66.605 24.989248
66.610 25.023046
66.615 25.020681
66.620 25.010614
66.625 24.108639
66.630 23.537159
66.635 23.100559
66.640 23.051989
66.645 23.710545
66.650 24.116365
66.655 24.156307
66.660 24.427767
66.665 24.918297
66.670 25.367809
66.675 24.929806
66.680 24.578592
66.685 24.57128
66.690 24.761747
66.695 24.718161
66.700 24.465506
66.705 24.361959
66.710 24.200024
66.715 22.731647
66.720 22.943134
66.725 23.123903
66.730 22.924072
66.735 22.925842
66.740 22.582186
66.745 22.806416
66.750 23.447809
66.755 23.44593
66.760 22.946501
66.765 22.862001
66.770 23.259075
66.775 23.72489
66.780 24.050295
66.785 24.139067
66.790 23.519131
66.795 23.532204
66.800 22.99021
66.805 22.516605
66.810 21.86377
66.815 21.475397
66.820 21.40312
66.825 21.693726
66.830 21.160217
66.835 21.08848
66.840 21.097738
66.845 21.67594
66.850 22.03298
66.855 21.642162
66.860 22.005964
66.865 22.537935
66.870 22.835306
66.875 22.271168
66.880 21.661524
66.885 21.530155
66.890 21.232677
66.895 21.316156
66.900 21.272699
66.905 21.545631
66.910 21.958023
66.915 22.033693
66.920 21.76829
66.925 22.303883
66.930 22.084839
66.935 22.772892
66.940 22.410837
66.945 22.763012
66.950 22.552206
66.955 22.769009
66.960 22.159473
66.965 21.629004
66.970 21.296782
66.975 21.706972
66.980 21.810482
66.985 21.922289
66.990 21.90377
66.995 22.087858
67.000 22.007109
67.005 22.458027
67.010 22.104853
67.015 21.724779
67.020 21.384647
67.025 21.182337
67.030 21.191332
67.035 21.06728
67.040 20.465694
67.045 20.234699
67.050 20.484612
67.055 21.063574
67.060 21.161266
67.065 21.530607
67.070 21.152357
67.075 21.700562
67.080 21.996414
67.085 22.311188
67.090 22.252665
67.095 21.895304
67.100 21.429407
67.105 21.571751
67.110 21.40225
67.115 21.005541
67.120 20.529596
67.125 20.195694
67.130 20.414244
67.135 20.426281
67.140 20.740335
67.145 20.394552
67.150 20.270685
67.155 20.423672
67.160 20.660212
67.165 20.655939
67.170 20.279627
67.175 19.284418
67.180 19.373623
67.185 19.132187
67.190 18.861458
67.195 19.163109
67.200 19.215666
67.205 19.663658
67.210 20.306591
67.215 20.229763
67.220 20.320478
67.225 20.380978
67.230 20.164713
67.235 20.381763
67.240 20.37557
67.245 20.313013
67.250 20.240849
67.255 20.436817
67.260 20.479219
67.265 20.555122
67.270 20.795719
67.275 20.259329
67.280 20.15731
67.285 20.546322
67.290 20.538761
67.295 20.892244
67.300 20.475914
67.305 19.809465
67.310 20.194141
67.315 19.824556
67.320 19.541376
67.325 19.756172
67.330 19.370026
67.335 19.780886
67.340 19.98329
67.345 19.746883
67.350 20.063213
67.355 19.990778
67.360 19.549965
67.365 19.865618
67.370 20.011274
67.375 20.528175
67.380 20.757223
67.385 20.834772
67.390 21.307035
67.395 21.46982
67.400 20.784708
67.405 21.011362
67.410 21.072439
67.415 21.306936
67.420 21.275118
67.425 20.480797
67.430 20.047163
67.435 20.177586
67.440 19.658907
67.445 19.398464
67.450 18.804575
67.455 18.958984
67.460 19.363823
67.465 19.677662
67.470 19.733341
67.475 19.490961
67.480 19.67288
67.485 20.308397
67.490 20.188433
67.495 20.432842
67.500 20.259007
67.505 20.490181
67.510 20.551926
67.515 20.51569
67.520 20.701178
67.525 20.628956
67.530 20.783949
67.535 20.848774
67.540 20.465372
67.545 20.644571
67.550 20.358877
67.555 19.462696
67.560 19.472252
67.565 19.651684
67.570 19.595078
67.575 19.853931
67.580 20.033442
67.585 20.236017
67.590 20.492756
67.595 20.755774
67.600 21.299685
67.605 21.874161
67.610 21.872738
67.615 21.398487
67.620 21.9809
67.625 21.955873
67.630 21.798052
67.635 21.239311
67.640 20.760595
67.645 20.064516
67.650 19.587961
67.655 19.277922
67.660 19.418383
67.665 19.669436
67.670 19.819324
67.675 19.907204
67.680 20.841105
67.685 21.709101
67.690 22.164547
67.695 22.469305
67.700 21.71019
67.705 21.271038
67.710 21.042271
67.715 20.722471
67.720 20.447105
67.725 20.365225
67.730 19.741404
67.735 19.923044
67.740 20.491253
67.745 20.812429
67.750 20.719933
67.755 20.35384
67.760 19.816374
67.765 19.938787
67.770 20.160439
67.775 20.05558
67.780 19.980331
67.785 20.100468
67.790 20.162369
67.795 20.888906
67.800 21.795517
67.805 21.371922
67.810 21.109295
67.815 21.192184
67.820 21.501627
67.825 21.449842
67.830 20.986971
67.835 20.642628
67.840 21.050568
67.845 21.169035
67.850 21.359999
67.855 20.672316
67.860 20.571272
67.865 20.291529
67.870 20.539394
67.875 20.384293
67.880 20.117243
67.885 20.381601
67.890 20.763964
67.895 20.664125
67.900 20.521252
67.905 20.40447
67.910 20.696882
67.915 20.720865
67.920 20.358194
67.925 20.303278
67.930 20.439518
67.935 20.36718
67.940 19.581398
67.945 19.196184
67.950 19.347488
67.955 19.504303
67.960 19.767763
67.965 19.740822
67.970 19.560831
67.975 20.119213
67.980 20.02401
67.985 20.01836
67.990 20.048548
67.995 20.151443
68.000 20.142683
68.005 20.650227
68.010 20.41119
68.015 20.585936
68.020 20.166729
68.025 19.757774
68.030 19.606169
68.035 19.135517
68.040 18.807247
68.045 17.945351
68.050 18.010641
68.055 18.095449
68.060 18.15383
68.065 17.7728
68.070 18.076328
68.075 17.953585
68.080 18.576508
68.085 18.683418
68.090 18.922699
68.095 19.350967
68.100 19.878122
68.105 20.640621
68.110 21.471127
68.115 21.416758
68.120 21.612925
68.125 21.636337
68.130 21.23123
68.135 21.367805
68.140 20.850462
68.145 20.210474
68.150 20.495287
68.155 20.354469
68.160 20.53549
68.165 20.793602
68.170 20.116426
68.175 20.639076
68.180 20.843557
68.185 20.763622
68.190 21.216049
68.195 21.569513
68.200 21.671425
68.205 22.179008
68.210 21.798513
68.215 21.381365
68.220 20.620508
68.225 19.899401
68.230 19.35128
68.235 19.15468
68.240 19.239834
68.245 19.742237
68.250 20.715271
68.255 21.511219
68.260 21.790628
68.265 22.285673
68.270 22.535316
68.275 22.432154
68.280 22.437714
68.285 22.17956
68.290 21.689417
68.295 21.664635
68.300 21.526072
68.305 21.264698
68.310 21.187731
68.315 20.439827
68.320 20.373173
68.325 20.651461
68.330 20.396912
68.335 20.053535
68.340 19.887049
68.345 20.03422
68.350 20.294706
68.355 20.222023
68.360 19.881195
68.365 19.608389
68.370 19.543158
68.375 19.494827
68.380 18.922134
68.385 18.531235
68.390 17.697208
68.395 18.154282
68.400 18.803581
68.405 19.293993
68.410 19.425264
68.415 19.768251
68.420 20.47444
68.425 20.606047
68.430 20.097357
68.435 19.495808
68.440 19.148146
68.445 18.96595
68.450 18.668663
68.455 19.023148
68.460 20.242043
68.465 20.764168
68.470 21.541822
68.475 21.928673
68.480 21.848574
68.485 21.995359
68.490 21.77598
68.495 21.291136
68.500 20.999052
68.505 20.661562
68.510 20.640081
68.515 20.826164
68.520 20.856224
68.525 20.148598
68.530 20.021606
68.535 19.620296
68.540 19.799305
68.545 19.879316
68.550 19.831541
68.555 19.766539
68.560 20.759687
68.565 21.085529
68.570 21.178028
68.575 21.350863
68.580 21.370472
68.585 21.274441
68.590 20.80978
68.595 20.073292
68.600 19.62775
68.605 19.804174
68.610 19.470263
68.615 19.342243
68.620 19.9151
68.625 20.559362
68.630 21.233921
68.635 21.933304
68.640 22.048372
68.645 22.159571
68.650 22.500307
68.655 22.417406
68.660 22.253653
68.665 22.022877
68.670 21.994593
68.675 21.701605
68.680 20.791391
68.685 20.895733
68.690 21.416313
68.695 22.200613
68.700 22.003725
68.705 22.039732
68.710 22.545778
68.715 22.968699
68.720 22.227377
68.725 21.684904
68.730 21.474445
68.735 21.510992
68.740 21.573809
68.745 21.189817
68.750 21.146862
68.755 21.54229
68.760 20.988119
68.765 20.819849
68.770 20.824049
68.775 20.380043
68.780 20.35409
68.785 20.132984
68.790 20.437534
68.795 20.948805
68.800 20.529949
68.805 20.228657
68.810 20.419319
68.815 20.817333
68.820 20.689423
68.825 20.056047
68.830 19.651556
68.835 19.971357
68.840 20.62826
68.845 20.884092
68.850 21.116039
68.855 21.512661
68.860 22.27644
68.865 22.543081
68.870 22.393496
68.875 21.955
68.880 21.785419
68.885 22.205025
68.890 21.906685
68.895 21.782791
68.900 21.9426
68.905 21.838013
68.910 21.542759
68.915 21.124981
68.920 20.910345
68.925 20.933956
68.930 20.970335
68.935 20.742264
68.940 21.339247
68.945 22.100094
68.950 21.795261
68.955 22.289814
68.960 22.708166
68.965 23.23284
68.970 23.627148
68.975 24.001444
68.980 23.959543
68.985 23.981218
68.990 23.360598
68.995 22.757252
69.000 22.038855
69.005 21.678595
69.010 21.272032
69.015 20.932638
69.020 21.721174
69.025 22.062201
69.030 21.872553
69.035 22.088049
69.040 22.053474
69.045 22.174351
69.050 22.713457
69.055 22.170317
69.060 22.463455
69.065 22.211037
69.070 22.698179
69.075 23.478502
69.080 23.75967
69.085 23.993286
69.090 24.750416
69.095 24.957903
69.100 25.944506
69.105 25.985706
69.110 25.600805
69.115 25.797098
69.120 25.62587
69.125 25.608063
69.130 26.012154
69.135 25.68684
69.140 25.700752
69.145 25.516697
69.150 25.06356
69.155 24.552448
69.160 23.822027
69.165 23.258644
69.170 23.048872
69.175 23.043995
69.180 22.972738
69.185 23.366476
69.190 24.218094
69.195 24.41083
69.200 24.903994
69.205 24.776409
69.210 25.139915
69.215 25.540373
69.220 24.761168
69.225 24.305216
69.230 24.77227
69.235 24.56941
69.240 25.342171
69.245 25.313858
69.250 24.656469
69.255 25.41041
69.260 25.558657
69.265 25.286619
69.270 25.756975
69.275 26.358702
69.280 26.950296
69.285 27.410305
69.290 26.993715
69.295 26.619057
69.300 26.687357
69.305 26.834282
69.310 26.791336
69.315 26.462248
69.320 26.483101
69.325 26.523327
69.330 26.760832
69.335 26.973326
69.340 25.868839
69.345 25.500563
69.350 26.486147
69.355 27.367321
69.360 28.259506
69.365 28.390301
69.370 28.868309
69.375 30.043886
69.380 29.948017
69.385 29.557526
69.390 28.921108
69.395 28.516167
69.400 28.875353
69.405 29.523745
69.410 29.915415
69.415 30.210188
69.420 30.055723
69.425 30.326767
69.430 30.860186
69.435 30.067066
69.440 29.995176
69.445 30.294071
69.450 29.582966
69.455 29.637005
69.460 29.367285
69.465 29.516211
69.470 29.848753
69.475 28.916838
69.480 28.496378
69.485 28.688925
69.490 28.530195
69.495 29.243553
69.500 28.932482
69.505 28.650257
69.510 28.92289
69.515 28.937191
69.520 29.615807
69.525 30.247898
69.530 30.079584
69.535 30.547792
69.540 30.61297
69.545 30.570829
69.550 30.773275
69.555 31.284349
69.560 31.416443
69.565 31.743362
69.570 32.390266
69.575 32.477436
69.580 32.117012
69.585 31.688889
69.590 31.277315
69.595 31.314178
69.600 31.210699
69.605 30.136908
69.610 30.234381
69.615 30.434263
69.620 30.726549
69.625 30.724775
69.630 30.136692
69.635 30.358509
69.640 30.984833
69.645 30.535242
69.650 29.962673
69.655 29.043644
69.660 28.258654
69.665 28.309139
69.670 27.761425
69.675 27.592842
69.680 27.438927
69.685 28.184322
69.690 28.391376
69.695 29.125601
69.700 29.232555
69.705 29.169725
69.710 29.66272
69.715 29.582041
69.720 29.140121
69.725 28.951532
69.730 28.123137
69.735 27.95826
69.740 27.229172
69.745 26.800838
69.750 26.705374
69.755 26.345263
69.760 26.213188
69.765 26.072746
69.770 26.185055
69.775 26.302538
69.780 26.524466
69.785 26.270369
69.790 26.876863
69.795 27.550623
69.800 27.235207
69.805 26.985165
69.810 27.236414
69.815 27.844835
69.820 27.740217
69.825 27.60784
69.830 27.784426
69.835 28.356728
69.840 27.593344
69.845 26.926807
69.850 26.863207
69.855 27.296078
69.860 26.548958
69.865 25.635874
69.870 25.719028
69.875 26.297728
69.880 25.629911
69.885 24.697174
69.890 23.926287
69.895 23.666958
69.900 22.609211
69.905 22.04899
69.910 21.484938
69.915 21.616388
69.920 21.914354
69.925 22.242954
69.930 22.605219
69.935 22.993742
69.940 23.300556
69.945 23.528841
69.950 23.083746
69.955 23.605343
69.960 23.192101
69.965 23.106577
69.970 23.053869
69.975 22.216413
69.980 22.417646
69.985 22.671789
69.990 21.9608
69.995 22.013281
70.000 22.330053
70.005 22.456739
70.010 22.06736
70.015 21.165487
70.020 21.272642
70.025 21.036634
70.030 21.551249
70.035 21.399546
70.040 20.911692
70.045 21.262789
70.050 21.556953
70.055 21.472837
70.060 21.4321
70.065 20.685928
70.070 20.687698
70.075 21.195724
70.080 21.012844
70.085 21.290405
70.090 20.950459
70.095 20.288637
70.100 19.968128
70.105 19.586008
70.110 19.686392
70.115 19.508915
70.120 19.851648
70.125 20.582376
70.130 20.84432
70.135 20.697189
70.140 20.714624
70.145 20.789339
70.150 20.509569
70.155 19.83469
70.160 19.417383
70.165 19.602453
70.170 20.192787
70.175 19.938984
70.180 19.937237
70.185 20.461403
70.190 20.803686
70.195 20.746805
70.200 20.793196
70.205 20.740269
70.210 20.637569
70.215 20.652779
70.220 19.881727
70.225 19.482561
70.230 19.483013
70.235 19.696133
70.240 19.761631
70.245 19.635166
70.250 19.669529
70.255 20.171059
70.260 20.045359
70.265 20.00791
70.270 19.41251
70.275 19.085041
70.280 19.119583
70.285 19.653845
70.290 19.439642
70.295 19.289564
70.300 19.7204
70.305 20.519812
70.310 21.523661
70.315 21.545879
70.320 21.719543
70.325 21.642
70.330 21.553495
70.335 20.905207
70.340 20.021275
70.345 19.34853
70.350 18.907108
70.355 18.69091
70.360 18.95854
70.365 18.472136
70.370 18.580149
70.375 18.217934
70.380 18.956001
70.385 18.570457
70.390 18.287788
70.395 18.240904
70.400 18.957886
70.405 18.570621
70.410 18.436319
70.415 17.988462
70.420 17.871881
70.425 17.64432
70.430 17.981504
70.435 17.72571
70.440 18.351984
70.445 18.395508
70.450 18.798702
70.455 18.96138
70.460 18.445293
70.465 18.203545
70.470 18.254066
70.475 18.160574
70.480 18.560217
70.485 18.538811
70.490 19.242142
70.495 20.192009
70.500 20.752769
70.505 20.928699
70.510 20.645052
70.515 20.457687
70.520 20.152151
70.525 20.093613
70.530 19.971842
70.535 19.680569
70.540 19.739971
70.545 19.713976
70.550 19.281395
70.555 19.176489
70.560 19.405443
70.565 19.603592
70.570 19.841906
70.575 19.786306
70.580 19.970732
70.585 19.763451
70.590 19.348166
70.595 18.768599
70.600 18.207041
70.605 17.731819
70.610 17.178295
70.615 16.928278
70.620 17.155306
70.625 17.047539
70.630 17.120182
70.635 17.214558
70.640 17.902554
70.645 18.560772
70.650 19.206823
70.655 19.655533
70.660 19.893154
70.665 19.78931
70.670 19.645216
70.675 19.298496
70.680 18.877071
70.685 18.53089
70.690 18.770857
70.695 19.330387
70.700 19.20327
70.705 18.851559
70.710 18.659512
70.715 18.963699
70.720 18.434538
70.725 17.802822
70.730 17.785353
70.735 18.119677
70.740 19.172361
70.745 18.895767
70.750 19.686712
70.755 20.408585
70.760 19.885563
70.765 19.407583
70.770 18.872988
70.775 18.71088
70.780 18.345633
70.785 17.420162
70.790 17.846033
70.795 17.656273
70.800 17.571205
70.805 17.657671
70.810 17.770311
70.815 17.706032
70.820 18.024376
70.825 18.314898
70.830 18.374819
70.835 18.894449
70.840 18.844812
70.845 18.889582
70.850 19.260399
70.855 18.514755
70.860 18.612532
70.865 19.081566
70.870 19.249794
70.875 18.587118
70.880 18.552992
70.885 18.589212
70.890 19.104977
70.895 19.04571
70.900 19.153357
70.905 19.127863
70.910 19.663847
70.915 19.379295
70.920 18.476671
70.925 17.963509
70.930 17.384476
70.935 17.151014
70.940 17.442209
70.945 17.475439
70.950 17.904205
70.955 18.385765
70.960 18.490175
70.965 18.926426
70.970 18.88652
70.975 18.218695
70.980 17.760893
70.985 17.001566
70.990 17.090843
70.995 17.238886
71.000 17.146929
71.005 17.513397
71.010 18.411678
71.015 18.456413
71.020 18.719976
71.025 18.841875
71.030 18.789213
71.035 19.063267
71.040 19.393738
71.045 19.390032
71.050 19.72113
71.055 19.862211
71.060 19.640184
71.065 19.183378
71.070 18.513664
71.075 17.969643
71.080 18.07778
71.085 18.429159
71.090 18.578608
71.095 18.710577
71.100 19.077175
71.105 18.886156
71.110 18.358448
71.115 17.863462
71.120 17.358067
71.125 17.396004
71.130 17.690517
71.135 17.530205
71.140 17.593102
71.145 18.425861
71.150 19.170254
71.155 19.096762
71.160 19.393892
71.165 20.023722
71.170 19.963308
71.175 19.495136
71.180 18.617897
71.185 18.245649
71.190 18.790962
71.195 18.873926
71.200 18.681854
71.205 19.227606
71.210 20.40271
71.215 20.48597
71.220 20.410301
71.225 19.764265
71.230 19.460119
71.235 19.766394
71.240 19.193766
71.245 18.26947
71.250 18.222412
71.255 18.580173
71.260 18.549662
71.265 18.884069
71.270 19.111609
71.275 19.182539
71.280 19.981562
71.285 20.520092
71.290 20.407425
71.295 19.826313
71.300 18.925587
71.305 18.516348
71.310 18.511009
71.315 18.013317
71.320 17.437922
71.325 17.946436
71.330 17.981377
71.335 18.23979
71.340 18.100264
71.345 18.264921
71.350 18.211143
71.355 18.087132
71.360 17.639593
71.365 18.367037
71.370 17.981653
71.375 17.872995
71.380 17.717571
71.385 17.797272
71.390 18.023333
71.395 17.755157
71.400 17.733791
71.405 18.279932
71.410 17.723513
71.415 17.54447
71.420 16.846655
71.425 16.683037
71.430 16.611601
71.435 16.724199
71.440 16.713461
71.445 16.676542
71.450 17.089479
71.455 17.987078
71.460 18.001614
71.465 17.949053
71.470 18.309473
71.475 19.019156
71.480 19.267666
71.485 18.767273
71.490 18.53546
71.495 18.883026
71.500 18.682409
71.505 17.435352
71.510 17.329815
71.515 17.429941
71.520 17.635002
71.525 17.555147
71.530 17.284969
71.535 17.617266
71.540 17.730017
71.545 17.709545
71.550 18.264067
71.555 18.192909
71.560 17.93956
71.565 18.204775
71.570 18.472765
71.575 18.590708
71.580 18.51483
71.585 18.32476
71.590 18.791924
71.595 18.86651
71.600 18.815748
71.605 18.655317
71.610 18.885628
71.615 18.507282
71.620 18.307592
71.625 18.090279
71.630 18.583189
71.635 19.009275
71.640 18.883211
71.645 19.3067
71.650 19.904272
71.655 20.148178
71.660 20.216339
71.665 19.634861
71.670 20.024733
71.675 19.995022
71.680 19.266117
71.685 19.148966
71.690 19.462734
71.695 19.740604
71.700 20.166937
71.705 19.657505
71.710 20.017687
71.715 19.994177
71.720 19.549299
71.725 18.960445
71.730 18.74777
71.735 18.066376
71.740 18.132153
71.745 18.51845
71.750 19.071486
71.755 19.664822
71.760 19.703928
71.765 19.533001
71.770 19.739674
71.775 19.398584
71.780 18.96805
71.785 19.013628
71.790 18.457844
71.795 18.957497
71.800 19.263472
71.805 18.909227
71.810 18.262165
71.815 18.047686
71.820 17.625301
71.825 17.257805
71.830 16.296173
71.835 16.094618
71.840 16.792343
71.845 17.448082
71.850 17.253368
71.855 17.683832
71.860 18.171812
71.865 18.631937
71.870 19.001337
71.875 18.851364
71.880 19.023571
71.885 18.857985
71.890 18.737793
71.895 18.468365
71.900 18.333721
71.905 18.173721
71.910 17.712856
71.915 17.904207
71.920 17.800598
71.925 17.93273
71.930 18.050837
71.935 18.104788
71.940 18.114521
71.945 17.799969
71.950 17.862173
71.955 18.04637
71.960 17.884125
71.965 18.292068
71.970 18.30858
71.975 18.748178
71.980 19.219193
71.985 19.215328
71.990 19.245785
71.995 19.339199
72.000 18.811987
72.005 18.3132
72.010 17.985453
72.015 17.929316
72.020 18.444277
72.025 18.381807
72.030 17.946218
72.035 18.094357
72.040 18.015562
72.045 18.140112
72.050 18.150862
72.055 17.353706
72.060 17.689684
72.065 17.786901
72.070 18.034344
72.075 18.247593
72.080 17.657751
72.085 17.298794
72.090 17.568853
72.095 17.563509
72.100 17.645658
72.105 17.202278
72.110 17.057354
72.115 17.264357
72.120 17.755051
72.125 17.986822
72.130 18.103197
72.135 18.157549
72.140 18.275383
72.145 18.3806
72.150 17.860842
72.155 17.241219
72.160 17.128668
72.165 17.374691
72.170 17.841881
72.175 18.334538
72.180 18.201155
72.185 18.562347
72.190 18.556154
72.195 18.014824
72.200 17.899183
72.205 17.548189
72.210 17.390732
72.215 17.609295
72.220 17.887316
72.225 18.313599
72.230 18.92382
72.235 18.960108
72.240 19.227842
72.245 19.019295
72.250 18.210476
72.255 18.418526
72.260 17.731682
72.265 17.246248
72.270 16.49247
72.275 16.540909
72.280 16.888887
72.285 16.85425
72.290 16.860102
72.295 17.492275
72.300 17.629997
72.305 17.562019
72.310 17.302229
72.315 17.640451
72.320 17.714151
72.325 17.380318
72.330 17.458813
72.335 17.576761
72.340 17.944277
72.345 17.651663
72.350 18.139635
72.355 18.337744
72.360 18.423828
72.365 18.207411
72.370 17.977741
72.375 18.415285
72.380 18.156837
72.385 18.191767
72.390 17.414394
72.395 17.365944
72.400 17.418554
72.405 17.557673
72.410 17.476204
72.415 17.810211
72.420 17.492508
72.425 17.711855
72.430 17.834259
72.435 17.557627
72.440 17.573959
72.445 17.500534
72.450 17.416203
72.455 18.343096
72.460 18.277822
72.465 17.948717
72.470 17.864025
72.475 17.381105
72.480 16.90593
72.485 16.504128
72.490 15.810929
72.495 16.209904
72.500 16.495234
72.505 16.805182
72.510 16.814371
72.515 17.056511
72.520 17.353109
72.525 17.590912
72.530 17.68298
72.535 17.657154
72.540 17.269829
72.545 17.607738
72.550 18.081327
72.555 18.464396
72.560 18.500097
72.565 18.415428
72.570 18.440229
72.575 19.508301
72.580 19.89106
72.585 19.488939
72.590 19.320185
72.595 18.96311
72.600 18.882919
72.605 19.147934
72.610 18.241274
72.615 18.071688
72.620 18.267864
72.625 18.567503
72.630 18.444307
72.635 17.968613
72.640 17.51679
72.645 17.35434
72.650 17.2894
72.655 16.910244
72.660 16.624937
72.665 16.78134
72.670 17.062849
72.675 17.253199
72.680 17.403198
72.685 17.380726
72.690 17.485872
72.695 17.411377
72.700 17.376259
72.705 17.055717
72.710 16.908514
72.715 16.808706
72.720 16.541603
72.725 16.393152
72.730 17.107271
72.735 17.381237
72.740 17.415915
72.745 18.004789
72.750 17.762465
72.755 17.58526
72.760 17.543612
72.765 16.900671
72.770 17.043108
72.775 17.275396
72.780 16.589817
72.785 16.811121
72.790 16.611231
72.795 15.920308
72.800 15.780188
72.805 15.252804
72.810 15.214329
72.815 14.934518
72.820 14.19488
72.825 13.611578
72.830 13.998977
72.835 14.41104
72.840 14.531889
72.845 14.926198
72.850 15.623187
72.855 16.207565
72.860 17.014393
72.865 16.907818
72.870 16.97261
72.875 17.251902
72.880 16.977911
72.885 16.601873
72.890 16.54225
72.895 17.228674
72.900 17.41198
72.905 17.287176
72.910 17.370481
72.915 16.98254
72.920 17.346968
72.925 17.190931
72.930 17.094952
72.935 17.364433
72.940 17.29693
72.945 17.514681
72.950 18.136196
72.955 18.298523
72.960 17.944246
72.965 17.289396
72.970 16.374033
72.975 16.37735
72.980 15.924489
72.985 15.889077
72.990 16.137632
72.995 16.464382
73.000 16.462088
