!@!!GADDS PLOTSO FILE: Chi integration type
!@!!Title/SampleName: map-16
!@!!Comment: ?
!@!!User: Bruker Instrument Administrator
!@!!Site: University of Illinois Chicago
!@!!Frame: map-16_01_000.gfrm
!@!!Wavelengths    1.54184   1.54056   1.54439
!@!!Frame angles: 2Theta: 63.000 Omega: 50.000 Phi: 0.000 Chi: 90.000
!@!!Integration range: 2Theta: 53.000 to 73.000  Gamma: -105.000 to -75.000
!@!!Integration method: bin normalized
!@!N
!@!SS
!@!M
!@!L 0.0 0.0 0.0 0.0
!@!XDegrees
!@!YCounts
53.000 6.629708
53.005 6.788686
53.010 6.836334
53.015 6.764271
53.020 6.646695
53.025 6.288007
53.030 5.822319
53.035 5.800253
53.040 5.848488
53.045 5.452396
53.050 5.912848
53.055 6.328247
53.060 6.882261
53.065 7.21888
53.070 7.087309
53.075 7.339332
53.080 7.720263
53.085 7.449416
53.090 7.251254
53.095 7.066264
53.100 7.330399
53.105 7.917942
53.110 8.228527
53.115 8.462118
53.120 8.09834
53.125 8.2043
53.130 7.966762
53.135 7.424707
53.140 6.712952
53.145 5.919156
53.150 5.418104
53.155 5.387174
53.160 5.568202
53.165 5.835473
53.170 5.895714
53.175 5.901953
53.180 6.171047
53.185 6.429857
53.190 6.316361
53.195 6.167723
53.200 6.270358
53.205 6.117992
53.210 6.088966
53.215 6.281467
53.220 7.196082
53.225 7.628712
53.230 7.73686
53.235 7.957286
53.240 8.274418
53.245 8.537362
53.250 8.1325
53.255 7.251803
53.260 7.034045
53.265 6.885073
53.270 7.127882
53.275 7.27922
53.280 7.347011
53.285 7.487942
53.290 7.772951
53.295 7.82348
53.300 7.706196
53.305 7.880342
53.310 7.853171
53.315 7.486606
53.320 6.951587
53.325 6.42733
53.330 6.591121
53.335 6.336857
53.340 6.155078
53.345 6.200925
53.350 6.619259
53.355 6.802096
53.360 7.032641
53.365 7.01781
53.370 7.139038
53.375 6.961679
53.380 6.690904
53.385 6.482052
53.390 6.714468
53.395 7.249958
53.400 7.064916
53.405 6.779577
53.410 6.782934
53.415 6.885152
53.420 7.095094
53.425 7.004369
53.430 6.760322
53.435 6.934481
53.440 7.000935
53.445 7.060352
53.450 6.822032
53.455 6.456758
53.460 6.142135
53.465 5.937115
53.470 5.760065
53.475 5.701819
53.480 5.988991
53.485 6.256888
53.490 6.956506
53.495 7.177839
53.500 7.201352
53.505 7.534651
53.510 7.706492
53.515 7.862532
53.520 8.017774
53.525 7.904462
53.530 7.789455
53.535 7.972528
53.540 7.897809
53.545 7.747137
53.550 7.836621
53.555 7.393727
53.560 7.394838
53.565 7.837374
53.570 7.740359
53.575 7.840957
53.580 7.668457
53.585 7.549996
53.590 8.151472
53.595 7.718828
53.600 7.517571
53.605 7.56438
53.610 7.752813
53.615 8.120002
53.620 7.789349
53.625 7.651366
53.630 8.131056
53.635 7.978621
53.640 7.836783
53.645 7.666924
53.650 7.458941
53.655 7.575547
53.660 7.440933
53.665 7.61736
53.670 7.891705
53.675 7.457995
53.680 6.918242
53.685 6.930715
53.690 7.362743
53.695 7.35495
53.700 7.232736
53.705 7.099911
53.710 7.58035
53.715 7.770633
53.720 7.671747
53.725 7.250247
53.730 7.208809
53.735 6.843851
53.740 7.057985
53.745 6.865854
53.750 7.059932
53.755 7.456746
53.760 7.676982
53.765 7.707787
53.770 8.067291
53.775 7.918611
53.780 7.928294
53.785 7.800685
53.790 7.538174
53.795 7.415783
53.800 7.618892
53.805 7.360734
53.810 7.734664
53.815 7.858778
53.820 8.024812
53.825 8.179002
53.830 8.152477
53.835 8.022727
53.840 8.044484
53.845 8.148968
53.850 7.777532
53.855 7.686092
53.860 7.748316
53.865 7.736311
53.870 7.990112
53.875 7.902976
53.880 7.716029
53.885 7.972963
53.890 7.965156
53.895 7.823999
53.900 7.56484
53.905 7.670159
53.910 7.523331
53.915 7.6723
53.920 7.910902
53.925 7.917769
53.930 7.847981
53.935 7.771404
53.940 7.983389
53.945 8.009416
53.950 7.86793
53.955 7.357277
53.960 7.418449
53.965 7.280294
53.970 7.010612
53.975 7.032027
53.980 7.243126
53.985 7.278722
53.990 7.364257
53.995 7.382796
54.000 7.622151
54.005 7.618292
54.010 7.542005
54.015 7.522221
54.020 7.697237
54.025 7.851824
54.030 7.744502
54.035 7.698236
54.040 7.642282
54.045 7.803656
54.050 8.369132
54.055 8.365428
54.060 8.086598
54.065 8.445658
54.070 8.772121
54.075 9.133657
54.080 9.155754
54.085 9.174686
54.090 9.331946
54.095 9.260408
54.100 8.738116
54.105 8.33182
54.110 7.92697
54.115 7.405875
54.120 7.285292
54.125 6.975368
54.130 7.013967
54.135 7.907047
54.140 8.415639
54.145 8.584879
54.150 8.827493
54.155 8.93028
54.160 9.374768
54.165 9.650639
54.170 8.991796
54.175 8.536239
54.180 8.477886
54.185 8.498801
54.190 8.143934
54.195 7.754671
54.200 8.040056
54.205 8.559629
54.210 8.834799
54.215 8.676202
54.220 8.685261
54.225 8.948892
54.230 8.845181
54.235 8.943835
54.240 8.986765
54.245 8.617502
54.250 8.700513
54.255 8.944301
54.260 9.172886
54.265 9.516493
54.270 9.182984
54.275 9.166609
54.280 9.108693
54.285 9.20535
54.290 9.227108
54.295 8.850054
54.300 8.21978
54.305 8.014152
54.310 7.739554
54.315 8.165838
54.320 7.664861
54.325 7.295975
54.330 7.48288
54.335 7.336239
54.340 7.015087
54.345 7.240832
54.350 6.784159
54.355 7.234677
54.360 7.544042
54.365 7.553554
54.370 8.016005
54.375 8.361375
54.380 8.571995
54.385 8.541199
54.390 8.270403
54.395 7.994108
54.400 8.166392
54.405 8.246572
54.410 8.402228
54.415 8.016643
54.420 8.260448
54.425 8.401378
54.430 8.317786
54.435 8.352649
54.440 8.236494
54.445 7.812125
54.450 7.831928
54.455 7.480384
54.460 7.40297
54.465 7.534972
54.470 7.443516
54.475 7.902822
54.480 8.198645
54.485 8.025991
54.490 7.977776
54.495 8.357818
54.500 8.170496
54.505 7.75811
54.510 7.401189
54.515 7.544565
54.520 7.698606
54.525 7.870205
54.530 7.833634
54.535 8.305779
54.540 8.438278
54.545 8.266519
54.550 8.492662
54.555 9.02009
54.560 9.06137
54.565 8.989681
54.570 8.816247
54.575 9.099188
54.580 9.02506
54.585 8.550577
54.590 8.19481
54.595 8.03868
54.600 7.92956
54.605 7.759432
54.610 7.763689
54.615 7.94272
54.620 8.00269
54.625 7.954297
54.630 8.498627
54.635 8.890365
54.640 9.091549
54.645 9.099264
54.650 9.218132
54.655 9.617692
54.660 9.613345
54.665 9.102242
54.670 9.246716
54.675 9.362091
54.680 9.653707
54.685 10.046576
54.690 10.001626
54.695 9.702585
54.700 9.587391
54.705 9.480066
54.710 9.568805
54.715 9.890094
54.720 9.471201
54.725 9.592686
54.730 10.183505
54.735 9.968585
54.740 9.367189
54.745 8.833463
54.750 8.654593
54.755 8.543595
54.760 8.345919
54.765 8.230656
54.770 8.520154
54.775 8.910266
54.780 8.789133
54.785 8.381876
54.790 8.333916
54.795 8.229879
54.800 8.100829
54.805 8.068123
54.810 7.719119
54.815 7.252635
54.820 7.051965
54.825 6.86384
54.830 7.232155
54.835 7.53003
54.840 7.937284
54.845 8.427883
54.850 9.286913
54.855 10.015182
54.860 10.3204
54.865 9.933788
54.870 9.651571
54.875 9.821733
54.880 10.002766
54.885 9.690762
54.890 9.790741
54.895 10.047032
54.900 9.98166
54.905 9.67685
54.910 9.204216
54.915 9.164793
54.920 9.194901
54.925 8.847346
54.930 8.460559
54.935 8.590295
54.940 8.852599
54.945 8.637875
54.950 8.583323
54.955 8.578598
54.960 8.673156
54.965 8.875495
54.970 8.828914
54.975 8.581935
54.980 8.688767
54.985 8.902476
54.990 8.65269
54.995 9.053002
55.000 9.508356
55.005 9.565816
55.010 9.714062
55.015 9.965495
55.020 10.3358
55.025 10.419171
55.030 10.003466
55.035 10.07919
55.040 10.260631
55.045 10.051949
55.050 9.761498
55.055 10.070936
55.060 10.335166
55.065 9.810862
55.070 9.441233
55.075 9.498528
55.080 9.987179
55.085 9.814342
55.090 9.412811
55.095 9.43726
55.100 9.660501
55.105 9.591941
55.110 9.602242
55.115 9.520077
55.120 9.372563
55.125 9.130608
55.130 9.38695
55.135 9.842201
55.140 9.954945
55.145 10.033687
55.150 9.56359
55.155 9.865592
55.160 9.303752
55.165 8.949798
55.170 8.780367
55.175 8.542036
55.180 8.261513
55.185 8.413446
55.190 8.323262
55.195 8.961802
55.200 9.418407
55.205 9.125078
55.210 9.212782
55.215 9.264479
55.220 9.45858
55.225 9.507777
55.230 9.129669
55.235 8.641563
55.240 8.947021
55.245 9.481311
55.250 9.837609
55.255 9.685705
55.260 9.467666
55.265 9.96361
55.270 9.889966
55.275 9.808425
55.280 9.663375
55.285 9.338333
55.290 9.24249
55.295 9.353672
55.300 9.4759
55.305 9.707444
55.310 9.870225
55.315 9.955492
55.320 10.049459
55.325 10.345181
55.330 10.233267
55.335 10.457722
55.340 10.555223
55.345 10.223847
55.350 10.345366
55.355 10.643344
55.360 10.96976
55.365 10.735655
55.370 10.127976
55.375 9.644704
55.380 9.675496
55.385 9.389434
55.390 9.482022
55.395 9.212121
55.400 9.43805
55.405 9.463192
55.410 9.593388
55.415 9.452159
55.420 9.24296
55.425 9.454834
55.430 9.616781
55.435 9.518004
55.440 9.752447
55.445 9.85488
55.450 10.017608
55.455 9.858121
55.460 9.896438
55.465 10.417984
55.470 10.33063
55.475 10.312352
55.480 9.988082
55.485 9.864066
55.490 9.678947
55.495 8.337426
55.500 8.603261
55.505 9.209488
55.510 9.640774
55.515 9.777371
55.520 9.820727
55.525 10.258327
55.530 10.545484
55.535 10.164374
55.540 9.556274
55.545 8.839298
55.550 8.630544
55.555 9.126817
55.560 9.349999
55.565 9.298952
55.570 8.849996
55.575 8.705659
55.580 9.20017
55.585 9.308002
55.590 8.801771
55.595 8.653661
55.600 8.684807
55.605 8.916219
55.610 8.96776
55.615 9.155681
55.620 9.255909
55.625 9.329264
55.630 10.157866
55.635 10.953377
55.640 11.039074
55.645 10.91954
55.650 11.120845
55.655 11.257052
55.660 10.842894
55.665 9.740117
55.670 8.752335
55.675 8.36819
55.680 8.47371
55.685 8.454363
55.690 8.511744
55.695 8.570376
55.700 8.907855
55.705 9.076215
55.710 9.773336
55.715 10.081457
55.720 9.817017
55.725 10.120366
55.730 10.671319
55.735 10.854049
55.740 11.093041
55.745 11.204673
55.750 11.010694
55.755 10.871625
55.760 10.884877
55.765 10.670389
55.770 10.710954
55.775 10.764849
55.780 10.180953
55.785 10.023234
55.790 9.847319
55.795 9.779367
55.800 9.806823
55.805 9.669525
55.810 9.797935
55.815 10.44465
55.820 10.920372
55.825 10.806038
55.830 10.584144
55.835 10.621632
55.840 10.419428
55.845 10.045135
55.850 9.628943
55.855 9.456491
55.860 9.507529
55.865 9.459315
55.870 9.37379
55.875 9.604749
55.880 9.859871
55.885 10.006232
55.890 9.916745
55.895 9.726915
55.900 9.52177
55.905 9.159881
55.910 9.560008
55.915 9.424066
55.920 9.396253
55.925 9.443825
55.930 9.733555
55.935 10.096602
55.940 10.645205
55.945 10.718799
55.950 10.948032
55.955 11.117166
55.960 11.073695
55.965 11.053695
55.970 10.849222
55.975 10.837725
55.980 10.494791
55.985 10.427001
55.990 9.837502
55.995 10.038726
56.000 10.51043
56.005 10.739944
56.010 10.509773
56.015 10.430002
56.020 10.538885
56.025 10.759336
56.030 10.936917
56.035 10.65228
56.040 10.269624
56.045 10.069987
56.050 10.354168
56.055 10.191222
56.060 10.020806
56.065 9.53978
56.070 9.680161
56.075 9.658639
56.080 10.198406
56.085 9.92978
56.090 9.727033
56.095 9.520207
56.100 9.341056
56.105 9.334373
56.110 9.411062
56.115 8.963925
56.120 9.500888
56.125 9.968046
56.130 10.174126
56.135 10.238971
56.140 9.901435
56.145 10.498441
56.150 10.464331
56.155 10.110668
56.160 10.275266
56.165 10.317625
56.170 10.398746
56.175 10.315921
56.180 9.962602
56.185 10.43636
56.190 10.428197
56.195 10.080792
56.200 10.269341
56.205 10.917583
56.210 11.034236
56.215 10.78237
56.220 11.087068
56.225 11.524081
56.230 12.098313
56.235 12.220777
56.240 11.902451
56.245 11.989584
56.250 11.777046
56.255 11.450354
56.260 11.239858
56.265 10.750163
56.270 10.365961
56.275 10.247749
56.280 10.458844
56.285 10.919503
56.290 10.477714
56.295 10.613264
56.300 10.716029
56.305 10.587569
56.310 10.523639
56.315 9.978699
56.320 9.355474
56.325 9.550372
56.330 9.229424
56.335 9.384712
56.340 9.401109
56.345 9.6599
56.350 9.860563
56.355 9.855034
56.360 9.793897
56.365 10.000731
56.370 9.811567
56.375 9.965636
56.380 10.012076
56.385 10.445374
56.390 10.962308
56.395 11.135472
56.400 11.174104
56.405 11.800662
56.410 12.166746
56.415 12.326278
56.420 12.484099
56.425 12.260732
56.430 12.728045
56.435 12.834551
56.440 12.649044
56.445 12.500558
56.450 12.244367
56.455 11.596328
56.460 11.887912
56.465 11.614863
56.470 11.509489
56.475 11.153815
56.480 11.353301
56.485 11.326276
56.490 11.732223
56.495 11.517754
56.500 11.727932
56.505 12.3402
56.510 12.113006
56.515 11.840508
56.520 12.324729
56.525 12.423283
56.530 12.403795
56.535 12.072018
56.540 11.773545
56.545 12.186578
56.550 11.586572
56.555 10.46183
56.560 10.2982
56.565 9.859322
56.570 9.770113
56.575 9.419391
56.580 9.322306
56.585 9.834332
56.590 10.749807
56.595 10.90258
56.600 10.916919
56.605 10.81685
56.610 11.23895
56.615 11.43354
56.620 11.279904
56.625 10.684961
56.630 11.004609
56.635 11.224755
56.640 11.030722
56.645 11.097445
56.650 11.223177
56.655 11.771406
56.660 11.690411
56.665 11.525451
56.670 11.685029
56.675 11.828013
56.680 10.979889
56.685 10.945314
56.690 11.174643
56.695 11.503255
56.700 11.260429
56.705 11.09142
56.710 11.226638
56.715 11.802731
56.720 11.657849
56.725 11.769402
56.730 11.487004
56.735 11.689348
56.740 11.843437
56.745 11.987979
56.750 12.265396
56.755 11.924313
56.760 12.108595
56.765 12.943782
56.770 13.255744
56.775 13.51866
56.780 13.495571
56.785 13.036451
56.790 13.223262
56.795 12.793306
56.800 12.096741
56.805 11.545858
56.810 11.059312
56.815 11.097859
56.820 11.373393
56.825 11.211102
56.830 11.557252
56.835 11.891419
56.840 12.376524
56.845 12.728333
56.850 12.246261
56.855 12.584263
56.860 12.735582
56.865 12.235402
56.870 12.445107
56.875 12.164678
56.880 11.85587
56.885 12.190915
56.890 11.953638
56.895 11.83848
56.900 11.420217
56.905 10.929358
56.910 10.974318
56.915 11.155663
56.920 10.808494
56.925 10.332952
56.930 10.304323
56.935 10.666861
56.940 10.568014
56.945 10.439908
56.950 10.453436
56.955 10.694022
56.960 11.195244
56.965 11.173667
56.970 10.90949
56.975 11.105071
56.980 11.068399
56.985 10.771229
56.990 10.798277
56.995 11.247839
57.000 11.823641
57.005 12.095414
57.010 12.190466
57.015 12.345797
57.020 12.655684
57.025 12.764708
57.030 12.195246
57.035 12.252752
57.040 12.652134
57.045 12.734134
57.050 12.280012
57.055 12.078659
57.060 11.819645
57.065 11.849748
57.070 11.231072
57.075 10.626207
57.080 11.072217
57.085 11.133986
57.090 10.920431
57.095 10.867709
57.100 11.025836
57.105 11.660614
57.110 11.959415
57.115 11.903282
57.120 12.499576
57.125 12.873693
57.130 13.034205
57.135 12.926494
57.140 13.078169
57.145 12.88342
57.150 12.60352
57.155 12.516259
57.160 12.3071
57.165 12.462728
57.170 12.679798
57.175 12.246332
57.180 12.762219
57.185 12.659516
57.190 12.62031
57.195 12.701671
57.200 12.250031
57.205 11.974257
57.210 12.361753
57.215 12.270493
57.220 12.544037
57.225 12.649888
57.230 12.820565
57.235 12.946594
57.240 12.711617
57.245 11.849792
57.250 11.488792
57.255 11.785658
57.260 11.96386
57.265 12.22169
57.270 12.540937
57.275 12.771997
57.280 13.333168
57.285 13.070969
57.290 12.359718
57.295 12.199192
57.300 11.875583
57.305 11.768166
57.310 11.866658
57.315 11.859144
57.320 11.760682
57.325 12.57711
57.330 12.769607
57.335 12.777216
57.340 12.706569
57.345 12.240355
57.350 12.6795
57.355 12.881322
57.360 12.633973
57.365 12.644337
57.370 12.475442
57.375 12.698429
57.380 12.948102
57.385 12.748175
57.390 12.32303
57.395 12.051435
57.400 12.182049
57.405 12.284021
57.410 12.641758
57.415 12.872757
57.420 12.622029
57.425 12.869123
57.430 12.891828
57.435 12.797972
57.440 13.023124
57.445 12.780831
57.450 12.702417
57.455 12.85346
57.460 12.596418
57.465 12.594111
57.470 12.60342
57.475 12.204215
57.480 12.090166
57.485 12.179849
57.490 12.209699
57.495 12.772726
57.500 12.565214
57.505 12.458561
57.510 12.286412
57.515 12.287759
57.520 12.325844
57.525 12.470704
57.530 12.11249
57.535 12.165829
57.540 12.177443
57.545 12.383297
57.550 12.556343
57.555 12.866665
57.560 13.24146
57.565 13.212102
57.570 13.076015
57.575 13.620927
57.580 13.522462
57.585 13.216222
57.590 12.7559
57.595 12.689156
57.600 13.320889
57.605 13.122738
57.610 12.794218
57.615 12.954632
57.620 13.026558
57.625 12.585783
57.630 12.53174
57.635 12.212002
57.640 12.43754
57.645 12.058317
57.650 12.29247
57.655 12.314095
57.660 11.919959
57.665 11.799901
57.670 11.269676
57.675 11.523932
57.680 11.689416
57.685 11.676428
57.690 11.799922
57.695 12.428182
57.700 12.497083
57.705 12.493771
57.710 12.211949
57.715 12.161297
57.720 12.242045
57.725 12.386657
57.730 12.247809
57.735 12.257823
57.740 12.661491
57.745 12.874777
57.750 13.222844
57.755 13.171121
57.760 13.364536
57.765 13.415223
57.770 13.339326
57.775 13.019471
57.780 12.330227
57.785 12.232904
57.790 12.226683
57.795 11.823405
57.800 11.535048
57.805 11.672991
57.810 12.366453
57.815 12.932377
57.820 12.716041
57.825 12.877396
57.830 13.33026
57.835 13.575325
57.840 13.809991
57.845 13.616425
57.850 13.638894
57.855 13.807452
57.860 13.323406
57.865 12.97309
57.870 13.074766
57.875 12.655663
57.880 12.68772
57.885 12.594707
57.890 12.577502
57.895 12.821966
57.900 12.977912
57.905 13.394369
57.910 13.493511
57.915 13.078966
57.920 13.28249
57.925 13.263781
57.930 13.722739
57.935 13.857833
57.940 13.813717
57.945 13.886263
57.950 14.072912
57.955 13.686986
57.960 13.220591
57.965 12.811933
57.970 12.566718
57.975 11.86528
57.980 11.888165
57.985 11.969564
57.990 12.553986
57.995 12.988043
58.000 12.976952
58.005 13.626386
58.010 14.33019
58.015 14.518698
58.020 13.99713
58.025 13.444366
58.030 13.073227
58.035 12.844221
58.040 12.346116
58.045 11.522804
58.050 11.042759
58.055 11.615033
58.060 11.852281
58.065 12.363976
58.070 12.427673
58.075 11.857245
58.080 12.992886
58.085 13.8315
58.090 13.598643
58.095 13.142389
58.100 12.870368
58.105 12.883936
58.110 13.263287
58.115 12.45508
58.120 12.286472
58.125 12.225977
58.130 12.336123
58.135 12.513697
58.140 12.915491
58.145 13.190083
58.150 13.216758
58.155 13.124884
58.160 13.387891
58.165 13.226723
58.170 13.156182
58.175 13.00316
58.180 12.856123
58.185 12.484839
58.190 12.644027
58.195 12.364613
58.200 12.833261
58.205 13.107747
58.210 12.849089
58.215 12.806422
58.220 12.780179
58.225 12.721189
58.230 12.841525
58.235 12.461
58.240 11.930017
58.245 12.174563
58.250 12.34696
58.255 12.231375
58.260 12.220695
58.265 12.834496
58.270 13.00388
58.275 12.863727
58.280 13.16455
58.285 13.155404
58.290 12.895898
58.295 12.716865
58.300 11.909615
58.305 11.765038
58.310 11.809591
58.315 11.619719
58.320 11.792934
58.325 12.089889
58.330 11.919024
58.335 12.314281
58.340 12.625832
58.345 12.931784
58.350 12.168006
58.355 12.301144
58.360 12.593016
58.365 12.445882
58.370 12.403949
58.375 12.540971
58.380 12.52152
58.385 13.188801
58.390 13.24644
58.395 13.929873
58.400 14.359759
58.405 14.088323
58.410 14.396038
58.415 14.759706
58.420 14.756022
58.425 14.590335
58.430 14.192749
58.435 14.295622
58.440 14.594824
58.445 14.386988
58.450 14.121636
58.455 13.990254
58.460 14.332333
58.465 14.641258
58.470 14.52529
58.475 14.35037
58.480 13.748428
58.485 13.708197
58.490 13.867784
58.495 13.526957
58.500 12.9673
58.505 12.918595
58.510 13.361794
58.515 13.395375
58.520 13.152122
58.525 12.88231
58.530 13.101589
58.535 13.534939
58.540 13.530871
58.545 13.194922
58.550 13.72595
58.555 13.94219
58.560 13.902545
58.565 13.858288
58.570 13.950904
58.575 14.130181
58.580 14.184917
58.585 14.133179
58.590 14.096664
58.595 14.352302
58.600 13.833465
58.605 13.18586
58.610 13.077716
58.615 13.05599
58.620 13.07553
58.625 13.449314
58.630 13.505647
58.635 13.852592
58.640 14.496929
58.645 14.754201
58.650 14.659999
58.655 14.716711
58.660 14.633201
58.665 14.49693
58.670 14.749321
58.675 14.908374
58.680 15.223915
58.685 15.259805
58.690 14.999898
58.695 15.547789
58.700 15.860142
58.705 15.822641
58.710 15.174047
58.715 14.8897
58.720 15.078545
58.725 15.079472
58.730 13.958167
58.735 13.573547
58.740 13.348077
58.745 13.636775
58.750 13.794388
58.755 13.872354
58.760 14.525855
58.765 14.650622
58.770 14.701582
58.775 14.778462
58.780 14.686868
58.785 14.364115
58.790 14.084675
58.795 13.466372
58.800 13.080883
58.805 13.092219
58.810 12.645354
58.815 12.504272
58.820 12.739429
58.825 12.989757
58.830 13.140492
58.835 13.758617
58.840 13.753524
58.845 14.360066
58.850 14.478807
58.855 14.653215
58.860 15.037484
58.865 15.226492
58.870 15.264069
58.875 14.897841
58.880 15.047749
58.885 15.181327
58.890 14.716211
58.895 13.994058
58.900 13.880042
58.905 13.817636
58.910 14.022393
58.915 13.492673
58.920 13.129806
58.925 13.308127
58.930 13.639165
58.935 13.971681
58.940 14.013143
58.945 14.303691
58.950 14.428604
58.955 14.619237
58.960 14.279009
58.965 13.827552
58.970 13.671568
58.975 13.76437
58.980 13.334707
58.985 13.091296
58.990 13.066846
58.995 13.253091
59.000 13.483745
59.005 13.832915
59.010 14.004268
59.015 14.534758
59.020 14.788594
59.025 14.949336
59.030 15.498474
59.035 15.62649
59.040 15.646324
59.045 15.574456
59.050 15.386626
59.055 15.269978
59.060 15.373407
59.065 15.205259
59.070 15.446354
59.075 15.357484
59.080 15.33291
59.085 15.172568
59.090 15.135319
59.095 15.074148
59.100 15.365391
59.105 15.499859
59.110 16.002779
59.115 16.52293
59.120 16.87936
59.125 16.998119
59.130 17.060816
59.135 16.431627
59.140 16.207319
59.145 15.910357
59.150 15.698588
59.155 15.738986
59.160 16.111189
59.165 16.051371
59.170 16.035904
59.175 15.473846
59.180 15.041975
59.185 14.923763
59.190 14.789178
59.195 14.266354
59.200 14.126028
59.205 14.077237
59.210 14.046528
59.215 14.021848
59.220 13.947011
59.225 14.056003
59.230 14.642521
59.235 14.519207
59.240 14.922806
59.245 15.377975
59.250 15.417884
59.255 15.276074
59.260 14.907164
59.265 14.610373
59.270 14.131126
59.275 14.002707
59.280 14.041195
59.285 14.664534
59.290 14.975348
59.295 15.625934
59.300 15.85869
59.305 16.611832
59.310 16.316784
59.315 16.152744
59.320 15.581796
59.325 15.638132
59.330 15.653829
59.335 15.622429
59.340 15.429082
59.345 15.850963
59.350 15.99232
59.355 16.18194
59.360 16.298351
59.365 15.645058
59.370 15.437286
59.375 15.610936
59.380 15.473105
59.385 15.46074
59.390 15.410235
59.395 15.3401
59.400 16.192404
59.405 16.333065
59.410 16.721411
59.415 16.494432
59.420 15.949925
59.425 15.540553
59.430 15.14076
59.435 14.883126
59.440 15.246399
59.445 14.930542
59.450 14.995142
59.455 14.955641
59.460 15.159482
59.465 15.18157
59.470 15.382375
59.475 15.238943
59.480 15.001504
59.485 15.416718
59.490 16.216564
59.495 17.014786
59.500 17.105175
59.505 17.00779
59.510 17.17564
59.515 17.785959
59.520 17.76659
59.525 17.573223
59.530 17.268044
59.535 17.360178
59.540 16.817331
59.545 16.269529
59.550 16.134825
59.555 16.294367
59.560 16.184587
59.565 15.558458
59.570 15.608459
59.575 15.488871
59.580 15.53544
59.585 15.380947
59.590 15.078664
59.595 15.217335
59.600 15.734057
59.605 15.480897
59.610 15.810179
59.615 16.143986
59.620 16.088461
59.625 16.320492
59.630 16.723539
59.635 16.764906
59.640 16.771572
59.645 16.671019
59.650 16.504051
59.655 16.537096
59.660 16.712381
59.665 16.323389
59.670 16.217579
59.675 16.298033
59.680 16.507956
59.685 16.897999
59.690 17.23403
59.695 17.664309
59.700 17.885872
59.705 17.535461
59.710 17.829741
59.715 17.68618
59.720 17.283775
59.725 17.060432
59.730 16.790169
59.735 16.523411
59.740 16.855671
59.745 16.664289
59.750 16.798571
59.755 16.958141
59.760 16.628424
59.765 16.765718
59.770 17.175045
59.775 17.204157
59.780 17.595304
59.785 18.269278
59.790 18.229469
59.795 18.559629
59.800 18.861233
59.805 19.174068
59.810 19.377323
59.815 19.017359
59.820 18.102818
59.825 18.051409
59.830 17.623756
59.835 17.348089
59.840 17.454906
59.845 17.064846
59.850 17.0914
59.855 17.203394
59.860 17.714863
59.865 18.238043
59.870 18.08671
59.875 18.032207
59.880 18.186638
59.885 18.354351
59.890 18.640173
59.895 19.010065
59.900 19.296736
59.905 19.590469
59.910 19.701754
59.915 20.361626
59.920 20.525314
59.925 20.952999
59.930 20.877287
59.935 21.313055
59.940 21.331528
59.945 21.277115
59.950 21.118401
59.955 20.779882
59.960 20.227303
59.965 19.823872
59.970 19.153038
59.975 19.071104
59.980 18.925247
59.985 18.816973
59.990 18.818722
59.995 18.459311
60.000 18.701733
60.005 18.382563
60.010 18.328085
60.015 18.456015
60.020 18.759619
60.025 19.244158
60.030 19.84655
60.035 19.743431
60.040 20.220669
60.045 20.294632
60.050 20.059902
60.055 19.795244
60.060 19.6399
60.065 19.517912
60.070 19.439299
60.075 19.447268
60.080 19.046442
60.085 18.968256
60.090 19.15
60.095 19.094809
60.100 18.841736
60.105 18.608118
60.110 18.540678
60.115 18.929941
60.120 19.48914
60.125 19.980204
60.130 20.336933
60.135 20.533096
60.140 20.587156
60.145 20.987867
60.150 21.04121
60.155 20.502371
60.160 19.416227
60.165 19.131964
60.170 19.395002
60.175 19.78392
60.180 19.553741
60.185 19.608612
60.190 19.546217
60.195 20.074585
60.200 20.347868
60.205 20.321503
60.210 20.611834
60.215 20.561977
60.220 20.127983
60.225 20.369282
60.230 20.133495
60.235 19.849426
60.240 19.331589
60.245 18.903936
60.250 18.96018
60.255 19.135021
60.260 18.909245
60.265 19.233084
60.270 20.140156
60.275 20.206121
60.280 20.453854
60.285 20.842583
60.290 21.745527
60.295 21.919811
60.300 21.666325
60.305 20.955168
60.310 21.179354
60.315 20.814442
60.320 20.730398
60.325 20.564711
60.330 20.717033
60.335 20.894466
60.340 20.673664
60.345 20.370083
60.350 20.28059
60.355 19.856888
60.360 19.304396
60.365 19.049643
60.370 19.10342
60.375 19.530838
60.380 19.747652
60.385 20.030119
60.390 20.127918
60.395 20.849455
60.400 20.840389
60.405 20.497473
60.410 20.383001
60.415 20.025084
60.420 19.934202
60.425 19.809708
60.430 19.238453
60.435 19.997637
60.440 19.857178
60.445 19.997744
60.450 20.023462
60.455 19.314665
60.460 19.044813
60.465 19.038647
60.470 18.725534
60.475 18.752771
60.480 18.378006
60.485 18.861036
60.490 19.57748
60.495 19.892937
60.500 19.795872
60.505 19.449909
60.510 19.784389
60.515 19.990614
60.520 20.019777
60.525 19.926069
60.530 19.582516
60.535 19.080242
60.540 19.483177
60.545 19.226086
60.550 18.790051
60.555 18.775234
60.560 18.613142
60.565 18.67495
60.570 18.484854
60.575 18.122942
60.580 18.219345
60.585 17.844666
60.590 17.808615
60.595 17.713074
60.600 17.511797
60.605 17.721254
60.610 17.938097
60.615 17.495468
60.620 18.064922
60.625 17.890532
60.630 17.781557
60.635 18.060183
60.640 18.205715
60.645 17.971012
60.650 18.284609
60.655 18.320656
60.660 18.164049
60.665 18.043932
60.670 18.072046
60.675 17.803087
60.680 17.28887
60.685 16.909479
60.690 16.307798
60.695 16.178724
60.700 16.497934
60.705 16.121075
60.710 16.360996
60.715 16.461094
60.720 16.907082
60.725 17.035086
60.730 17.238012
60.735 17.648012
60.740 17.680349
60.745 17.407156
60.750 17.365761
60.755 17.403608
60.760 17.602274
60.765 18.084944
60.770 17.900679
60.775 17.606752
60.780 17.606487
60.785 17.926519
60.790 17.341486
60.795 17.336313
60.800 16.923464
60.805 16.80328
60.810 17.45121
60.815 17.64773
60.820 17.531734
60.825 17.745081
60.830 17.729137
60.835 17.611565
60.840 17.348927
60.845 17.101772
60.850 17.279741
60.855 17.746159
60.860 17.913574
60.865 17.334314
60.870 17.177244
60.875 17.939079
60.880 18.062792
60.885 17.790941
60.890 17.805128
60.895 17.664207
60.900 18.020452
60.905 18.165316
60.910 18.124327
60.915 17.979105
60.920 17.523088
60.925 17.16597
60.930 17.826153
60.935 18.086414
60.940 17.56712
60.945 16.978914
60.950 17.176086
60.955 17.507143
60.960 17.729298
60.965 17.375057
60.970 17.221956
60.975 17.06028
60.980 16.989283
60.985 16.332506
60.990 16.366364
60.995 16.192715
61.000 16.143629
61.005 15.922016
61.010 16.059179
61.015 15.802443
61.020 15.537474
61.025 14.965529
61.030 15.236917
61.035 15.904941
61.040 15.637715
61.045 15.612828
61.050 15.62173
61.055 15.771891
61.060 15.875989
61.065 15.398746
61.070 14.68913
61.075 15.303165
61.080 15.580422
61.085 15.632027
61.090 16.007364
61.095 15.880049
61.100 15.932008
61.105 15.773199
61.110 15.548118
61.115 15.602726
61.120 15.576239
61.125 14.970667
61.130 15.291229
61.135 14.941936
61.140 15.19096
61.145 15.605995
61.150 15.12663
61.155 14.946877
61.160 15.302915
61.165 15.489653
61.170 15.379844
61.175 15.007562
61.180 14.61582
61.185 14.990655
61.190 15.64165
61.195 16.056042
61.200 16.404757
61.205 17.289728
61.210 17.490965
61.215 17.739773
61.220 17.752495
61.225 17.866188
61.230 17.979858
61.235 17.63872
61.240 17.012299
61.245 17.0306
61.250 17.046009
61.255 17.309011
61.260 17.601707
61.265 17.132376
61.270 16.716681
61.275 17.0837
61.280 16.769857
61.285 16.70734
61.290 16.256294
61.295 15.824245
61.300 15.979591
61.305 16.39679
61.310 16.01379
61.315 16.076654
61.320 16.456215
61.325 15.96194
61.330 15.58235
61.335 15.486026
61.340 15.533378
61.345 15.341457
61.350 15.36843
61.355 14.956057
61.360 15.139869
61.365 15.202577
61.370 15.119772
61.375 14.922343
61.380 15.216787
61.385 15.074575
61.390 14.995243
61.395 15.22935
61.400 15.404656
61.405 14.988988
61.410 14.874816
61.415 14.85219
61.420 15.003661
61.425 15.262434
61.430 15.308419
61.435 14.952019
61.440 14.874479
61.445 14.962513
61.450 14.654305
61.455 14.893658
61.460 14.745838
61.465 14.60127
61.470 15.327713
61.475 15.880938
61.480 15.819981
61.485 15.852656
61.490 15.641089
61.495 15.375779
61.500 14.849395
61.505 14.167674
61.510 14.003663
61.515 14.082065
61.520 14.571712
61.525 14.738071
61.530 15.320765
61.535 15.994289
61.540 16.487051
61.545 17.095121
61.550 17.635384
61.555 17.833212
61.560 18.040686
61.565 17.697119
61.570 17.86624
61.575 18.097607
61.580 17.372408
61.585 16.553904
61.590 16.168671
61.595 15.645806
61.600 15.446236
61.605 14.978089
61.610 14.974658
61.615 15.477868
61.620 15.848372
61.625 16.445023
61.630 16.615654
61.635 17.005964
61.640 17.050539
61.645 16.685404
61.650 16.383001
61.655 16.11306
61.660 15.563274
61.665 15.685781
61.670 15.578729
61.675 15.647588
61.680 15.667043
61.685 15.963842
61.690 16.343666
61.695 16.612629
61.700 16.666201
61.705 16.855072
61.710 16.80489
61.715 16.90299
61.720 16.938721
61.725 16.818516
61.730 16.894253
61.735 17.119341
61.740 16.853071
61.745 17.366243
61.750 17.156673
61.755 17.148428
61.760 17.085825
61.765 17.115135
61.770 17.033888
61.775 17.116701
61.780 16.827005
61.785 17.040981
61.790 17.214527
61.795 17.320316
61.800 17.421001
61.805 17.186077
61.810 17.36322
61.815 17.206879
61.820 17.156488
61.825 17.36025
61.830 16.984861
61.835 16.827
61.840 16.885666
61.845 16.53709
61.850 16.431961
61.855 16.397514
61.860 15.998731
61.865 16.150114
61.870 15.859283
61.875 15.884974
61.880 16.918934
61.885 17.373638
61.890 17.226351
61.895 16.919313
61.900 16.78697
61.905 16.967848
61.910 16.945389
61.915 15.978809
61.920 15.435606
61.925 15.340737
61.930 15.308858
61.935 15.253824
61.940 15.137527
61.945 15.497477
61.950 15.965978
61.955 16.176153
61.960 16.375462
61.965 16.551844
61.970 16.595375
61.975 16.527172
61.980 16.230804
61.985 15.817234
61.990 15.773121
61.995 16.111252
62.000 16.704849
62.005 16.544779
62.010 16.336611
62.015 15.777445
62.020 15.738686
62.025 15.892874
62.030 15.936259
62.035 15.367199
62.040 15.439119
62.045 15.373509
62.050 15.991292
62.055 15.576059
62.060 15.839431
62.065 15.922173
62.070 16.307709
62.075 16.398487
62.080 16.350086
62.085 16.359436
62.090 16.917509
62.095 16.36659
62.100 15.715447
62.105 15.227633
62.110 15.455919
62.115 15.678283
62.120 15.239137
62.125 15.406891
62.130 15.713545
62.135 16.186666
62.140 16.385929
62.145 16.298424
62.150 15.953965
62.155 16.312685
62.160 15.718834
62.165 15.463669
62.170 14.799663
62.175 14.525419
62.180 15.031596
62.185 15.552548
62.190 15.637588
62.195 15.862656
62.200 15.901177
62.205 16.393999
62.210 16.331226
62.215 16.000628
62.220 16.045916
62.225 15.368373
62.230 15.239554
62.235 15.161819
62.240 14.767994
62.245 14.934843
62.250 14.720184
62.255 14.758895
62.260 15.390994
62.265 15.126019
62.270 14.96854
62.275 14.905001
62.280 15.257029
62.285 15.289151
62.290 14.878769
62.295 15.112325
62.300 15.476733
62.305 15.946332
62.310 16.349775
62.315 16.216433
62.320 16.019842
62.325 16.220182
62.330 15.625123
62.335 15.355347
62.340 15.569036
62.345 14.973648
62.350 14.428545
62.355 14.797089
62.360 14.976929
62.365 15.415797
62.370 15.153502
62.375 14.874784
62.380 15.590135
62.385 16.250969
62.390 15.961453
62.395 15.841191
62.400 15.596976
62.405 16.129602
62.410 16.361723
62.415 16.319836
62.420 15.981427
62.425 15.683094
62.430 15.150339
62.435 15.573249
62.440 15.549302
62.445 15.59132
62.450 15.446236
62.455 15.789606
62.460 16.034172
62.465 16.527298
62.470 16.12759
62.475 16.267843
62.480 16.279501
62.485 16.558315
62.490 16.75375
62.495 17.355566
62.500 17.762455
62.505 18.443129
62.510 17.912195
62.515 18.233412
62.520 17.791796
62.525 17.302292
62.530 16.485977
62.535 16.199272
62.540 16.19253
62.545 16.370804
62.550 15.185728
62.555 14.550733
62.560 14.292843
62.565 14.190218
62.570 13.77105
62.575 13.138699
62.580 13.066471
62.585 13.586793
62.590 14.671952
62.595 14.768793
62.600 14.862901
62.605 14.929902
62.610 15.169753
62.615 15.337012
62.620 14.948517
62.625 14.708694
62.630 15.174959
62.635 15.441873
62.640 15.357358
62.645 15.159383
62.650 15.229499
62.655 15.682395
62.660 15.627418
62.665 15.710581
62.670 15.635536
62.675 15.929432
62.680 16.022968
62.685 15.872271
62.690 15.793302
62.695 15.67526
62.700 15.178745
62.705 15.25811
62.710 15.014202
62.715 14.829111
62.720 14.929933
62.725 14.742633
62.730 15.087224
62.735 15.759357
62.740 16.040735
62.745 16.232599
62.750 16.635311
62.755 16.92337
62.760 17.702169
62.765 17.384731
62.770 17.479567
62.775 16.946711
62.780 17.062
62.785 16.97069
62.790 16.945
62.795 16.085529
62.800 15.709129
62.805 15.623874
62.810 16.136642
62.815 15.973794
62.820 15.5543
62.825 15.301616
62.830 15.521187
62.835 15.832317
62.840 15.486694
62.845 14.964737
62.850 15.531146
62.855 16.267027
62.860 16.588028
62.865 16.692467
62.870 16.668247
62.875 16.490255
62.880 17.025007
62.885 16.529371
62.890 16.066658
62.895 15.724885
62.900 15.686081
62.905 15.793639
62.910 15.746531
62.915 15.330631
62.920 15.619757
62.925 15.580497
62.930 15.569088
62.935 15.277007
62.940 15.195423
62.945 15.496164
62.950 15.631978
62.955 15.356007
62.960 14.937761
62.965 14.673497
62.970 14.972994
62.975 15.411847
62.980 15.180569
62.985 15.11942
62.990 15.217828
62.995 15.643981
63.000 16.06168
63.005 16.043369
63.010 16.017929
63.015 16.233587
63.020 15.895395
63.025 16.006252
63.030 16.254848
63.035 16.553057
63.040 16.667778
63.045 16.392633
63.050 16.511803
63.055 16.816355
63.060 16.295828
63.065 15.63665
63.070 15.18305
63.075 15.429813
63.080 15.382839
63.085 15.678836
63.090 15.948997
63.095 16.488638
63.100 16.98427
63.105 16.656008
63.110 16.300169
63.115 16.40365
63.120 16.070065
63.125 15.86122
63.130 16.170612
63.135 16.542877
63.140 17.425205
63.145 17.719616
63.150 16.931692
63.155 16.670612
63.160 16.387115
63.165 15.571828
63.170 15.273213
63.175 14.596173
63.180 14.428038
63.185 14.711247
63.190 14.564443
63.195 14.714674
63.200 15.308125
63.205 15.501192
63.210 15.592584
63.215 15.546596
63.220 15.969296
63.225 15.857279
63.230 15.943504
63.235 16.040016
63.240 15.959083
63.245 15.739937
63.250 15.890345
63.255 15.793299
63.260 16.024506
63.265 15.98609
63.270 15.907182
63.275 15.856057
63.280 16.649466
63.285 17.282774
63.290 17.565687
63.295 17.660162
63.300 17.80265
63.305 17.815466
63.310 18.317154
63.315 18.062677
63.320 17.568871
63.325 17.470312
63.330 17.647125
63.335 17.205124
63.340 16.912872
63.345 16.85111
63.350 16.801157
63.355 16.921141
63.360 17.102411
63.365 16.849428
63.370 16.935633
63.375 17.095428
63.380 16.646067
63.385 16.178431
63.390 16.436874
63.395 16.38014
63.400 16.779068
63.405 16.660049
63.410 16.733332
63.415 16.749973
63.420 16.536188
63.425 16.507008
63.430 16.720091
63.435 16.572514
63.440 16.593433
63.445 16.7964
63.450 17.05875
63.455 17.148756
63.460 16.046127
63.465 15.693781
63.470 16.054327
63.475 16.451195
63.480 16.864389
63.485 17.435768
63.490 17.291344
63.495 17.655336
63.500 17.432423
63.505 17.29825
63.510 16.900686
63.515 16.513004
63.520 15.725219
63.525 16.07666
63.530 16.739548
63.535 17.452984
63.540 17.300219
63.545 17.485321
63.550 16.955376
63.555 17.132187
63.560 17.552183
63.565 17.232998
63.570 16.768156
63.575 17.234226
63.580 16.927727
63.585 17.31864
63.590 17.760025
63.595 17.517633
63.600 17.127291
63.605 16.811872
63.610 16.447853
63.615 16.542902
63.620 16.086105
63.625 15.625604
63.630 16.133478
63.635 16.626806
63.640 17.249096
63.645 17.173187
63.650 17.422798
63.655 17.32707
63.660 17.261839
63.665 15.960291
63.670 15.81175
63.675 15.795395
63.680 15.751253
63.685 15.341993
63.690 15.519651
63.695 15.9723
63.700 16.805277
63.705 16.443264
63.710 16.054264
63.715 16.07148
63.720 15.871472
63.725 15.607305
63.730 15.786191
63.735 16.186232
63.740 16.129286
63.745 15.919679
63.750 16.006905
63.755 16.300127
63.760 16.962448
63.765 17.169676
63.770 17.132179
63.775 17.373058
63.780 17.693539
63.785 17.721189
63.790 17.634142
63.795 17.534655
63.800 17.352701
63.805 17.044024
63.810 17.018616
63.815 17.220097
63.820 16.997814
63.825 17.503687
63.830 17.321142
63.835 16.708134
63.840 16.471111
63.845 16.509859
63.850 16.368044
63.855 16.804403
63.860 16.86245
63.865 16.661613
63.870 16.724638
63.875 17.019239
63.880 17.47543
63.885 17.219572
63.890 16.764545
63.895 16.839102
63.900 16.964327
63.905 16.714222
63.910 16.868383
63.915 16.38051
63.920 16.648476
63.925 16.896181
63.930 16.208969
63.935 16.429476
63.940 16.982164
63.945 16.455315
63.950 16.69154
63.955 16.453354
63.960 16.882069
63.965 17.70529
63.970 17.491358
63.975 17.137613
63.980 17.383993
63.985 17.762623
63.990 17.972956
63.995 17.45467
64.000 17.412956
64.005 17.883656
64.010 18.198549
64.015 18.576309
64.020 18.968121
64.025 19.500771
64.030 19.234541
64.035 19.305422
64.040 19.031075
64.045 18.918844
64.050 18.915993
64.055 18.07119
64.060 17.874924
64.065 18.69589
64.070 18.38101
64.075 18.282734
64.080 18.653395
64.085 18.501623
64.090 18.229385
64.095 17.516464
64.100 16.535946
64.105 16.688112
64.110 17.003508
64.115 16.753668
64.120 17.132221
64.125 17.28854
64.130 17.266745
64.135 17.26827
64.140 16.702236
64.145 16.118305
64.150 15.847871
64.155 14.809724
64.160 14.60164
64.165 15.105083
64.170 15.167245
64.175 15.482913
64.180 16.117144
64.185 16.575676
64.190 17.107832
64.195 17.212772
64.200 16.882965
64.205 16.771851
64.210 16.500235
64.215 15.944639
64.220 15.186964
64.225 14.83233
64.230 15.189269
64.235 15.630392
64.240 15.799605
64.245 15.574326
64.250 16.529858
64.255 17.521858
64.260 17.954453
64.265 18.020269
64.270 18.134253
64.275 17.636822
64.280 17.472569
64.285 16.356245
64.290 15.934054
64.295 15.723248
64.300 15.404399
64.305 15.461693
64.310 15.68541
64.315 15.895778
64.320 16.820599
64.325 17.113655
64.330 17.14963
64.335 16.878164
64.340 17.691547
64.345 18.291822
64.350 18.364399
64.355 17.728907
64.360 17.728245
64.365 18.201256
64.370 18.560598
64.375 17.756958
64.380 18.147165
64.385 18.409378
64.390 18.367962
64.395 18.526369
64.400 18.395063
64.405 17.906572
64.410 17.699041
64.415 17.196901
64.420 17.254032
64.425 17.295321
64.430 17.536175
64.435 18.295317
64.440 18.508852
64.445 18.802338
64.450 19.061243
64.455 18.462831
64.460 18.350142
64.465 18.190384
64.470 17.600014
64.475 17.431244
64.480 16.756241
64.485 16.669744
64.490 17.523207
64.495 17.860083
64.500 17.291882
64.505 17.348581
64.510 17.911386
64.515 18.266542
64.520 18.181698
64.525 18.030354
64.530 17.626339
64.535 17.777058
64.540 18.29183
64.545 18.298998
64.550 18.420761
64.555 18.537067
64.560 18.510836
64.565 18.977848
64.570 19.139547
64.575 18.556284
64.580 18.010996
64.585 17.720007
64.590 17.633301
64.595 17.233349
64.600 17.503239
64.605 17.549103
64.610 17.737436
64.615 18.548231
64.620 19.140348
64.625 18.963972
64.630 19.151926
64.635 18.814362
64.640 19.067673
64.645 18.997927
64.650 18.552559
64.655 18.712561
64.660 19.04915
64.665 19.280903
64.670 20.044636
64.675 19.329254
64.680 18.942366
64.685 18.973238
64.690 18.544704
64.695 18.138357
64.700 18.067583
64.705 17.278416
64.710 17.889544
64.715 18.045784
64.720 17.754847
64.725 17.786951
64.730 18.043404
64.735 17.618469
64.740 17.389811
64.745 17.506477
64.750 17.890968
64.755 18.283535
64.760 18.29603
64.765 18.570406
64.770 19.026108
64.775 19.48794
64.780 19.74515
64.785 19.553003
64.790 18.71847
64.795 18.244797
64.800 18.402287
64.805 18.520082
64.810 18.274675
64.815 18.272104
64.820 18.511805
64.825 19.238533
64.830 19.551918
64.835 18.887445
64.840 18.72851
64.845 19.059731
64.850 19.548304
64.855 19.300556
64.860 19.56098
64.865 19.578625
64.870 19.497036
64.875 19.903658
64.880 19.136194
64.885 17.871532
64.890 17.670454
64.895 17.134033
64.900 16.80397
64.905 16.983522
64.910 16.765707
64.915 16.768993
64.920 17.546024
64.925 17.836933
64.930 18.151127
64.935 18.514181
64.940 18.344181
64.945 18.398071
64.950 18.934822
64.955 18.975643
64.960 18.636732
64.965 18.875687
64.970 19.651367
64.975 19.966835
64.980 20.292814
64.985 20.602989
64.990 20.95229
64.995 21.786583
65.000 21.4214
65.005 20.770086
65.010 21.111904
65.015 20.654488
65.020 20.2318
65.025 19.994926
65.030 20.249823
65.035 20.7605
65.040 21.073553
65.045 20.625702
65.050 20.911648
65.055 21.14394
65.060 21.098173
65.065 20.501892
65.070 20.181187
65.075 19.466034
65.080 19.351271
65.085 19.228193
65.090 18.707762
65.095 18.448336
65.100 18.466406
65.105 18.477196
65.110 19.305399
65.115 19.720287
65.120 20.321329
65.125 20.812496
65.130 21.028769
65.135 21.421051
65.140 21.515091
65.145 21.36904
65.150 21.145264
65.155 20.438152
65.160 20.288279
65.165 20.164164
65.170 19.768436
65.175 19.993052
65.180 19.707006
65.185 19.455072
65.190 19.903315
65.195 20.947638
65.200 20.904291
65.205 21.229881
65.210 20.932495
65.215 21.313103
65.220 21.515945
65.225 20.702457
65.230 20.015766
65.235 20.201
65.240 19.921976
65.245 19.742279
65.250 19.561228
65.255 19.604937
65.260 19.848438
65.265 20.021597
65.270 20.345776
65.275 20.725197
65.280 21.122107
65.285 21.406818
65.290 21.5639
65.295 21.888655
65.300 21.75128
65.305 21.570892
65.310 21.484776
65.315 21.651525
65.320 21.443747
65.325 21.358416
65.330 21.240099
65.335 21.346552
65.340 21.23214
65.345 21.143383
65.350 20.858248
65.355 21.088005
65.360 21.330631
65.365 21.418139
65.370 21.552336
65.375 21.205147
65.380 21.070936
65.385 21.553301
65.390 21.779144
65.395 22.064037
65.400 21.903105
65.405 21.653265
65.410 22.512489
65.415 23.048628
65.420 23.216436
65.425 23.479761
65.430 23.176157
65.435 23.740452
65.440 24.301382
65.445 24.00573
65.450 23.60936
65.455 23.181929
65.460 22.854601
65.465 22.995296
65.470 22.626438
65.475 22.638885
65.480 23.185625
65.485 24.147245
65.490 25.212337
65.495 25.890549
65.500 26.207556
65.505 27.154961
65.510 27.361225
65.515 27.024864
65.520 26.338091
65.525 25.315268
65.530 24.643728
65.535 24.676689
65.540 24.792931
65.545 24.704233
65.550 24.754232
65.555 24.309525
65.560 24.793606
65.565 25.239159
65.570 24.933401
65.575 24.609318
65.580 25.28322
65.585 25.653498
65.590 25.913971
65.595 25.932446
65.600 25.949234
65.605 26.563782
65.610 27.563032
65.615 27.751631
65.620 28.156067
65.625 29.105261
65.630 29.412329
65.635 29.397659
65.640 29.514727
65.645 29.474966
65.650 29.13685
65.655 29.033512
65.660 28.933847
65.665 28.772369
65.670 29.207293
65.675 29.036036
65.680 29.399752
65.685 29.622494
65.690 29.684334
65.695 29.658192
65.700 29.974512
65.705 30.254164
65.710 30.416161
65.715 30.36264
65.720 31.122604
65.725 31.416491
65.730 32.22496
65.735 32.489204
65.740 32.47599
65.745 32.491356
65.750 32.994141
65.755 33.215527
65.760 33.680668
65.765 33.210777
65.770 33.775005
65.775 34.172657
65.780 34.582954
65.785 34.452572
65.790 34.14344
65.795 34.574005
65.800 35.492565
65.805 35.520519
65.810 35.762856
65.815 35.50658
65.820 35.029789
65.825 34.929729
65.830 35.256187
65.835 34.923431
65.840 35.141479
65.845 34.694675
65.850 34.970356
65.855 35.681759
65.860 36.534176
65.865 37.202114
65.870 37.043434
65.875 36.97998
65.880 37.693626
65.885 38.169628
65.890 38.280499
65.895 37.465031
65.900 36.601288
65.905 36.23127
65.910 36.270119
65.915 35.699108
65.920 35.205158
65.925 35.486042
65.930 36.730576
65.935 37.510525
65.940 38.786652
65.945 38.918194
65.950 39.436073
65.955 40.290939
65.960 41.020302
65.965 40.751144
65.970 40.344429
65.975 38.958267
65.980 38.343029
65.985 38.009117
65.990 37.86681
65.995 37.015465
66.000 35.997208
66.005 36.040047
66.010 37.13858
66.015 37.81929
66.020 38.380131
66.025 38.951126
66.030 39.563602
66.035 40.402176
66.040 39.984222
66.045 40.647636
66.050 40.522018
66.055 39.694851
66.060 38.590096
66.065 38.258472
66.070 38.105198
66.075 37.5359
66.080 36.704185
66.085 36.663651
66.090 36.502468
66.095 36.655693
66.100 36.455082
66.105 35.824493
66.110 37.128143
66.115 37.062698
66.120 36.744118
66.125 37.308842
66.130 37.517353
66.135 37.174835
66.140 37.804066
66.145 37.220325
66.150 36.675072
66.155 36.063179
66.160 35.085682
66.165 34.245499
66.170 34.581577
66.175 33.910435
66.180 33.439159
66.185 33.502934
66.190 33.810371
66.195 34.279789
66.200 35.408543
66.205 35.267929
66.210 35.824501
66.215 35.744335
66.220 35.155376
66.225 35.321129
66.230 35.492737
66.235 35.546402
66.240 35.120293
66.245 34.416096
66.250 34.49958
66.255 34.160194
66.260 33.177021
66.265 33.19619
66.270 32.515533
66.275 32.077412
66.280 31.684935
66.285 31.623554
66.290 32.627701
66.295 34.086304
66.300 33.748199
66.305 33.969585
66.310 33.932774
66.315 33.628078
66.320 34.042446
66.325 33.575294
66.330 32.653976
66.335 32.161263
66.340 30.689611
66.345 30.21393
66.350 30.349049
66.355 30.090496
66.360 30.197517
66.365 30.797688
66.370 31.627632
66.375 31.959444
66.380 32.345665
66.385 32.282745
66.390 32.10004
66.395 31.440113
66.400 30.738731
66.405 31.011162
66.410 30.72546
66.415 30.54896
66.420 30.313442
66.425 29.987225
66.430 29.840719
66.435 29.122431
66.440 28.063087
66.445 28.017117
66.450 27.513601
66.455 27.096321
66.460 26.550159
66.465 26.513653
66.470 26.538115
66.475 26.385046
66.480 27.360582
66.485 27.337336
66.490 27.273621
66.495 27.64447
66.500 27.935575
66.505 27.74577
66.510 27.976648
66.515 26.912809
66.520 27.076193
66.525 26.925074
66.530 26.947313
66.535 26.707758
66.540 26.273907
66.545 26.104998
66.550 26.24188
66.555 25.492376
66.560 24.805468
66.565 24.637642
66.570 24.782915
66.575 24.651411
66.580 24.667648
66.585 23.969988
66.590 24.22374
66.595 24.577034
66.600 24.1803
66.605 24.058493
66.610 24.169371
66.615 23.716249
66.620 24.084227
66.625 24.003199
66.630 23.821569
66.635 23.947214
66.640 24.644106
66.645 25.045977
66.650 24.822733
66.655 25.02681
66.660 25.034826
66.665 24.720053
66.670 24.509405
66.675 23.500443
66.680 23.816523
66.685 23.879684
66.690 23.575483
66.695 23.82407
66.700 23.619957
66.705 23.078535
66.710 22.454046
66.715 22.176968
66.720 22.622463
66.725 22.892941
66.730 22.895142
66.735 23.125296
66.740 23.465723
66.745 23.538363
66.750 22.89098
66.755 22.311665
66.760 22.243063
66.765 22.571087
66.770 22.557858
66.775 22.323412
66.780 22.033312
66.785 21.703325
66.790 21.356382
66.795 20.541658
66.800 20.017546
66.805 19.969097
66.810 20.077391
66.815 20.155155
66.820 20.744019
66.825 21.213644
66.830 21.498024
66.835 21.30051
66.840 20.943325
66.845 21.051577
66.850 21.213793
66.855 20.579744
66.860 19.780176
66.865 19.762238
66.870 20.437004
66.875 20.694626
66.880 20.721107
66.885 20.649786
66.890 20.90486
66.895 21.112726
66.900 20.867506
66.905 20.425091
66.910 20.582726
66.915 20.658899
66.920 20.932066
66.925 20.881863
66.930 21.23575
66.935 21.23373
66.940 21.616875
66.945 21.646994
66.950 21.708023
66.955 21.702599
66.960 21.356964
66.965 21.316521
66.970 22.015415
66.975 21.740475
66.980 21.719225
66.985 21.423353
66.990 21.774605
66.995 22.301685
67.000 22.484074
67.005 22.332495
67.010 21.920631
67.015 21.71707
67.020 21.744747
67.025 21.502588
67.030 21.194824
67.035 21.224676
67.040 21.275406
67.045 21.48345
67.050 21.312138
67.055 21.035154
67.060 20.65156
67.065 21.06144
67.070 21.587553
67.075 21.695871
67.080 21.894371
67.085 22.629251
67.090 22.500532
67.095 23.161156
67.100 23.023783
67.105 22.506804
67.110 22.600941
67.115 22.482891
67.120 21.909594
67.125 21.907925
67.130 21.983192
67.135 22.06477
67.140 21.823093
67.145 21.668907
67.150 21.608063
67.155 21.90707
67.160 22.736345
67.165 22.567419
67.170 22.062281
67.175 21.588276
67.180 21.809734
67.185 22.03854
67.190 21.825165
67.195 21.737303
67.200 21.651817
67.205 21.630625
67.210 22.070038
67.215 21.437408
67.220 21.607685
67.225 21.490877
67.230 20.870441
67.235 20.671427
67.240 20.689539
67.245 19.932793
67.250 19.951874
67.255 19.623053
67.260 19.564692
67.265 20.213041
67.270 20.022964
67.275 20.032097
67.280 20.163578
67.285 20.60137
67.290 20.431164
67.295 20.150206
67.300 20.126831
67.305 20.734953
67.310 20.763838
67.315 21.604965
67.320 21.895523
67.325 21.976
67.330 21.722187
67.335 21.160564
67.340 20.953346
67.345 20.866682
67.350 20.292145
67.355 19.889532
67.360 20.389025
67.365 20.313196
67.370 20.319538
67.375 20.49032
67.380 20.901228
67.385 20.975273
67.390 20.549356
67.395 20.083864
67.400 20.219948
67.405 20.503321
67.410 20.272688
67.415 19.802664
67.420 19.725073
67.425 19.982695
67.430 19.859467
67.435 19.758041
67.440 19.470163
67.445 19.44301
67.450 19.238594
67.455 19.318821
67.460 19.244198
67.465 19.242599
67.470 19.467764
67.475 19.781647
67.480 19.706266
67.485 20.074554
67.490 19.693712
67.495 19.877026
67.500 20.799831
67.505 20.458914
67.510 20.258802
67.515 19.861927
67.520 19.603947
67.525 19.967875
67.530 19.990479
67.535 19.277765
67.540 19.246759
67.545 19.011168
67.550 19.544268
67.555 19.669428
67.560 19.202187
67.565 19.190815
67.570 19.561346
67.575 19.469732
67.580 20.160198
67.585 20.354912
67.590 20.572123
67.595 21.014172
67.600 21.437561
67.605 21.088318
67.610 21.529457
67.615 21.580685
67.620 21.609934
67.625 21.202356
67.630 21.077194
67.635 20.87109
67.640 20.860359
67.645 20.595659
67.650 20.317429
67.655 20.744879
67.660 20.680222
67.665 20.770529
67.670 20.878101
67.675 21.24732
67.680 20.720287
67.685 19.726339
67.690 19.505825
67.695 20.029606
67.700 19.444176
67.705 19.745712
67.710 19.822794
67.715 20.477995
67.720 20.960508
67.725 20.947235
67.730 20.724268
67.735 21.203777
67.740 20.972521
67.745 20.710699
67.750 20.60597
67.755 20.610542
67.760 20.448273
67.765 20.443083
67.770 20.327576
67.775 20.369795
67.780 20.557196
67.785 20.402843
67.790 20.236078
67.795 20.284145
67.800 20.251574
67.805 20.101397
67.810 19.480019
67.815 19.259752
67.820 19.436054
67.825 19.532595
67.830 19.559805
67.835 19.627262
67.840 19.520811
67.845 20.084538
67.850 20.32226
67.855 20.258205
67.860 20.254292
67.865 20.062164
67.870 19.892435
67.875 20.512947
67.880 20.180391
67.885 20.317366
67.890 20.502352
67.895 20.132645
67.900 19.670488
67.905 19.339272
67.910 18.753683
67.915 18.65362
67.920 17.549299
67.925 17.382397
67.930 18.005941
67.935 18.869194
67.940 18.910019
67.945 19.139027
67.950 19.471359
67.955 20.3958
67.960 20.616072
67.965 20.766153
67.970 20.685879
67.975 21.048988
67.980 21.080799
67.985 21.382784
67.990 21.357424
67.995 20.896681
68.000 20.193552
68.005 20.49445
68.010 20.314926
68.015 20.047607
68.020 19.786682
68.025 19.873066
68.030 20.45739
68.035 21.026093
68.040 21.135345
68.045 21.620445
68.050 21.809782
68.055 22.242758
68.060 22.103537
68.065 21.892855
68.070 22.077654
68.075 21.857199
68.080 22.143049
68.085 22.578526
68.090 22.045219
68.095 21.982435
68.100 21.821146
68.105 21.565588
68.110 21.703655
68.115 21.444473
68.120 20.822546
68.125 20.408546
68.130 20.792139
68.135 20.705687
68.140 20.70356
68.145 20.357309
68.150 20.414608
68.155 21.215708
68.160 21.723595
68.165 21.30028
68.170 21.169514
68.175 21.251274
68.180 21.428707
68.185 21.210636
68.190 21.277828
68.195 21.468565
68.200 21.640751
68.205 21.893488
68.210 21.740864
68.215 21.774431
68.220 21.50852
68.225 20.872389
68.230 20.694002
68.235 20.837435
68.240 21.108034
68.245 21.292088
68.250 21.300575
68.255 21.557243
68.260 21.575117
68.265 21.729151
68.270 21.233202
68.275 21.068695
68.280 20.224209
68.285 20.216938
68.290 20.249496
68.295 20.339283
68.300 20.288034
68.305 20.580496
68.310 21.060272
68.315 21.82884
68.320 21.968443
68.325 21.507034
68.330 21.749439
68.335 21.699072
68.340 21.621782
68.345 21.236383
68.350 20.536556
68.355 20.007458
68.360 20.00532
68.365 19.73167
68.370 19.360142
68.375 19.254898
68.380 18.924942
68.385 19.038866
68.390 18.939539
68.395 18.961401
68.400 18.822664
68.405 19.458908
68.410 19.603939
68.415 20.129147
68.420 20.400459
68.425 21.04557
68.430 21.125732
68.435 21.302908
68.440 20.80896
68.445 20.464373
68.450 20.252451
68.455 20.305086
68.460 20.066847
68.465 20.470793
68.470 20.700945
68.475 20.909685
68.480 21.258238
68.485 21.32436
68.490 21.419737
68.495 20.910295
68.500 20.939529
68.505 21.209366
68.510 21.686554
68.515 21.614954
68.520 21.060341
68.525 21.506294
68.530 21.543457
68.535 21.630733
68.540 21.254684
68.545 20.381641
68.550 20.344151
68.555 20.097887
68.560 20.135527
68.565 20.695436
68.570 20.387104
68.575 20.809931
68.580 21.12431
68.585 21.730745
68.590 22.237585
68.595 22.094847
68.600 21.670467
68.605 21.855478
68.610 21.399258
68.615 21.31727
68.620 20.559067
68.625 20.352438
68.630 20.001211
68.635 19.544302
68.640 19.13961
68.645 18.794909
68.650 18.833317
68.655 19.189178
68.660 19.336418
68.665 19.301117
68.670 19.354433
68.675 19.566883
68.680 19.844252
68.685 19.710026
68.690 19.507992
68.695 19.518667
68.700 19.557642
68.705 19.630751
68.710 18.922308
68.715 18.704456
68.720 19.161695
68.725 19.549225
68.730 19.791042
68.735 20.277342
68.740 20.474667
68.745 21.73702
68.750 22.071909
68.755 21.677485
68.760 21.601736
68.765 21.759989
68.770 22.128626
68.775 22.640297
68.780 22.356146
68.785 22.158676
68.790 22.186234
68.795 22.149916
68.800 22.627466
68.805 22.596746
68.810 21.849854
68.815 21.617268
68.820 21.401014
68.825 21.352123
68.830 20.889601
68.835 20.400234
68.840 19.688828
68.845 20.355835
68.850 20.832251
68.855 21.681904
68.860 21.692816
68.865 21.52689
68.870 21.288559
68.875 21.434681
68.880 20.919399
68.885 20.336786
68.890 20.408207
68.895 20.107208
68.900 19.953594
68.905 19.910666
68.910 20.161268
68.915 20.527355
68.920 21.178829
68.925 20.826874
68.930 21.550474
68.935 22.129627
68.940 22.745399
68.945 22.472517
68.950 22.331913
68.955 22.640354
68.960 23.015676
68.965 23.441471
68.970 23.910303
68.975 23.534719
68.980 23.856085
68.985 24.684399
68.990 24.74239
68.995 24.47909
69.000 24.139368
69.005 24.394396
69.010 24.369596
69.015 24.262478
69.020 23.682329
69.025 23.553228
69.030 23.920071
69.035 23.776123
69.040 23.290056
69.045 23.775352
69.050 23.936531
69.055 23.873154
69.060 23.405857
69.065 23.51474
69.070 23.677612
69.075 23.73316
69.080 23.414047
69.085 23.273296
69.090 23.723251
69.095 23.764729
69.100 23.914362
69.105 24.705751
69.110 24.689373
69.115 24.878841
69.120 24.264074
69.125 24.336466
69.130 24.709259
69.135 24.598091
69.140 24.60346
69.145 24.535082
69.150 24.530516
69.155 24.973829
69.160 24.822971
69.165 24.936005
69.170 24.573526
69.175 25.280525
69.180 25.619452
69.185 26.17787
69.190 26.424263
69.195 26.207516
69.200 25.996561
69.205 25.501972
69.210 25.038204
69.215 24.502565
69.220 23.865055
69.225 23.782927
69.230 24.167532
69.235 24.373672
69.240 24.599604
69.245 24.324343
69.250 25.057501
69.255 25.641777
69.260 25.325073
69.265 25.545902
69.270 25.866316
69.275 25.606375
69.280 25.583042
69.285 25.259014
69.290 25.559322
69.295 26.217154
69.300 26.472906
69.305 26.930552
69.310 28.008099
69.315 28.541645
69.320 29.120197
69.325 29.066538
69.330 28.703072
69.335 28.489996
69.340 28.193495
69.345 28.217789
69.350 28.423422
69.355 27.585316
69.360 27.503456
69.365 27.537868
69.370 27.496862
69.375 27.396534
69.380 27.317226
69.385 26.99942
69.390 27.419899
69.395 27.348049
69.400 27.532402
69.405 27.755007
69.410 28.119394
69.415 28.323462
69.420 28.72389
69.425 28.950727
69.430 29.529093
69.435 30.060413
69.440 30.320335
69.445 30.484747
69.450 30.485613
69.455 30.606375
69.460 29.533367
69.465 28.99658
69.470 28.78812
69.475 28.232275
69.480 27.486584
69.485 27.123194
69.490 27.116907
69.495 27.792585
69.500 27.829901
69.505 27.320755
69.510 27.398901
69.515 28.563131
69.520 28.116505
69.525 27.971733
69.530 27.563953
69.535 28.195417
69.540 28.828636
69.545 28.653387
69.550 27.864691
69.555 28.110569
69.560 28.765818
69.565 29.187555
69.570 29.0168
69.575 29.573177
69.580 29.816778
69.585 29.31274
69.590 28.846169
69.595 28.721703
69.600 28.129303
69.605 27.335199
69.610 26.929359
69.615 27.093821
69.620 28.220076
69.625 28.509113
69.630 28.162745
69.635 28.177589
69.640 28.020126
69.645 27.467665
69.650 27.733942
69.655 27.310026
69.660 26.860256
69.665 26.237232
69.670 25.830206
69.675 25.479183
69.680 25.591843
69.685 25.534376
69.690 26.137333
69.695 27.168966
69.700 28.237644
69.705 29.007008
69.710 28.683226
69.715 28.381056
69.720 27.69132
69.725 27.349897
69.730 26.965549
69.735 26.09424
69.740 25.815231
69.745 26.150333
69.750 26.331686
69.755 26.277172
69.760 25.67223
69.765 25.093916
69.770 25.272255
69.775 24.963186
69.780 25.150389
69.785 25.567799
69.790 25.70396
69.795 25.299759
69.800 25.798075
69.805 26.000692
69.810 26.419666
69.815 26.594198
69.820 26.612261
69.825 26.820311
69.830 26.680635
69.835 25.766581
69.840 25.172754
69.845 24.870375
69.850 24.693638
69.855 24.291748
69.860 23.952194
69.865 23.851614
69.870 23.750273
69.875 23.787294
69.880 23.466375
69.885 23.345795
69.890 23.402868
69.895 23.860693
69.900 24.914383
69.905 25.349518
69.910 25.413097
69.915 25.328156
69.920 25.291344
69.925 25.072557
69.930 24.823839
69.935 24.461573
69.940 24.302557
69.945 24.252874
69.950 24.050352
69.955 23.443537
69.960 23.348339
69.965 23.250164
69.970 22.940395
69.975 22.943436
69.980 23.038059
69.985 23.110592
69.990 22.92024
69.995 22.692902
70.000 22.541847
70.005 21.739176
70.010 21.464046
70.015 20.954863
70.020 20.358557
70.025 20.396439
70.030 20.312143
70.035 19.62921
70.040 19.922911
70.045 19.549982
70.050 19.537102
70.055 19.734056
70.060 20.172935
70.065 20.027378
70.070 20.278181
70.075 20.426991
70.080 20.457439
70.085 20.606785
70.090 20.183792
70.095 19.61692
70.100 20.241621
70.105 20.445349
70.110 20.119991
70.115 20.105253
70.120 19.717669
70.125 19.754713
70.130 19.814833
70.135 19.013395
70.140 18.633226
70.145 19.024088
70.150 18.959082
70.155 18.939823
70.160 18.947151
70.165 18.491045
70.170 18.634943
70.175 18.88303
70.180 18.217102
70.185 18.498732
70.190 18.741625
70.195 19.47212
70.200 20.023201
70.205 20.124121
70.210 19.938118
70.215 20.11101
70.220 20.258821
70.225 20.286255
70.230 19.768106
70.235 19.211317
70.240 18.811569
70.245 19.157362
70.250 19.58724
70.255 19.787895
70.260 20.00445
70.265 20.206017
70.270 20.049856
70.275 19.816975
70.280 19.528404
70.285 19.876471
70.290 19.510416
70.295 18.937029
70.300 18.845648
70.305 19.243616
70.310 19.757507
70.315 19.816332
70.320 18.609129
70.325 18.258642
70.330 17.736874
70.335 17.569624
70.340 17.475842
70.345 17.497507
70.350 17.469513
70.355 17.80538
70.360 18.160511
70.365 18.766617
70.370 18.921621
70.375 18.961229
70.380 19.083878
70.385 19.241993
70.390 19.312355
70.395 19.471102
70.400 19.744625
70.405 19.739571
70.410 19.135315
70.415 18.574621
70.420 17.854254
70.425 18.260244
70.430 18.704874
70.435 19.482193
70.440 20.100246
70.445 20.469269
70.450 20.44747
70.455 20.837606
70.460 20.745701
70.465 19.961704
70.470 19.230059
70.475 19.013765
70.480 19.850372
70.485 19.985136
70.490 20.004847
70.495 19.591644
70.500 19.762693
70.505 19.778997
70.510 19.650946
70.515 19.583954
70.520 20.022717
70.525 20.296513
70.530 20.557678
70.535 20.613596
70.540 20.855833
70.545 21.695246
70.550 21.273556
70.555 20.524834
70.560 20.423018
70.565 20.50193
70.570 20.448048
70.575 19.61315
70.580 19.050058
70.585 19.145634
70.590 19.199451
70.595 18.689533
70.600 18.721779
70.605 19.186907
70.610 19.310728
70.615 19.247646
70.620 19.038372
70.625 19.173405
70.630 19.543135
70.635 19.865137
70.640 19.442945
70.645 18.889399
70.650 18.900324
70.655 19.218941
70.660 19.043449
70.665 18.63891
70.670 17.442516
70.675 17.807024
70.680 17.340937
70.685 16.705715
70.690 16.976683
70.695 17.183928
70.700 17.385874
70.705 17.900717
70.710 17.998512
70.715 18.367611
70.720 17.940529
70.725 17.43495
70.730 17.367498
70.735 17.540339
70.740 17.509935
70.745 17.572533
70.750 17.775625
70.755 18.617771
70.760 18.992701
70.765 18.45001
70.770 17.876747
70.775 18.188635
70.780 18.085096
70.785 18.690683
70.790 18.649574
70.795 18.908421
70.800 18.913958
70.805 18.735411
70.810 18.633821
70.815 18.560709
70.820 18.021273
70.825 17.737957
70.830 17.695396
70.835 18.168272
70.840 18.500645
70.845 18.673698
70.850 19.328115
70.855 19.784349
70.860 19.62846
70.865 19.613483
70.870 19.244511
70.875 18.940554
70.880 18.553116
70.885 18.176676
70.890 18.691269
70.895 18.370459
70.900 18.258085
70.905 18.460878
70.910 18.657883
70.915 19.07177
70.920 18.928148
70.925 18.680563
70.930 19.14406
70.935 19.598797
70.940 19.824232
70.945 19.946529
70.950 19.33037
70.955 18.878637
70.960 18.579407
70.965 18.431612
70.970 18.383327
70.975 18.128948
70.980 17.963261
70.985 18.282322
70.990 18.199024
70.995 18.401863
71.000 18.667509
71.005 18.705368
71.010 18.798378
71.015 19.184351
71.020 19.673796
71.025 19.888329
71.030 19.3248
71.035 19.090563
71.040 18.955824
71.045 19.163561
71.050 18.980928
71.055 19.098133
71.060 18.977192
71.065 19.258883
71.070 18.75387
71.075 19.352785
71.080 18.581156
71.085 18.147287
71.090 17.453575
71.095 18.240765
71.100 18.678148
71.105 18.551395
71.110 18.0581
71.115 18.182323
71.120 18.056433
71.125 18.495619
71.130 18.217379
71.135 17.988317
71.140 18.132368
71.145 17.889828
71.150 18.446951
71.155 18.699635
71.160 18.013351
71.165 17.823122
71.170 18.287758
71.175 18.325039
71.180 18.15048
71.185 17.964605
71.190 17.969398
71.195 18.253044
71.200 18.450157
71.205 18.366642
71.210 18.301054
71.215 18.444284
71.220 18.640261
71.225 18.862337
71.230 19.053616
71.235 18.626734
71.240 18.825155
71.245 19.03533
71.250 19.376556
71.255 19.2836
71.260 19.064173
71.265 19.335581
71.270 19.363977
71.275 19.010714
71.280 18.701517
71.285 18.401045
71.290 18.92169
71.295 18.964069
71.300 18.3776
71.305 18.108667
71.310 17.994764
71.315 18.034739
71.320 18.122725
71.325 17.707008
71.330 17.364086
71.335 17.849171
71.340 18.094227
71.345 17.965864
71.350 17.972137
71.355 17.545198
71.360 17.507408
71.365 17.544651
71.370 17.380468
71.375 17.761456
71.380 17.83259
71.385 17.990486
71.390 18.016111
71.395 18.074636
71.400 17.960096
71.405 17.55027
71.410 17.234015
71.415 17.450607
71.420 17.256523
71.425 17.240444
71.430 17.033819
71.435 17.387217
71.440 17.731121
71.445 17.939909
71.450 18.042309
71.455 18.237364
71.460 18.148323
71.465 18.552883
71.470 19.127659
71.475 18.913857
71.480 19.070446
71.485 19.081123
71.490 19.201069
71.495 19.45487
71.500 19.168983
71.505 18.865578
71.510 18.414604
71.515 18.013708
71.520 17.573839
71.525 17.32126
71.530 17.244459
71.535 17.249023
71.540 17.535194
71.545 18.436056
71.550 18.642988
71.555 18.974369
71.560 18.624979
71.565 18.391775
71.570 17.863525
71.575 17.594873
71.580 17.325478
71.585 17.282417
71.590 17.784
71.595 18.232924
71.600 18.514282
71.605 18.868465
71.610 18.690815
71.615 18.534933
71.620 18.388355
71.625 17.848696
71.630 18.071926
71.635 17.898611
71.640 18.489071
71.645 18.729437
71.650 18.456278
71.655 18.412113
71.660 18.392887
71.665 18.401421
71.670 17.943581
71.675 17.373514
71.680 17.419441
71.685 17.419018
71.690 17.811012
71.695 17.73708
71.700 17.729305
71.705 17.228928
71.710 17.466038
71.715 18.181293
71.720 18.767982
71.725 18.602341
71.730 18.32865
71.735 18.038143
71.740 18.549078
71.745 19.271561
71.750 18.809954
71.755 18.459808
71.760 18.395872
71.765 18.550848
71.770 18.406923
71.775 18.17688
71.780 17.60216
71.785 17.871784
71.790 17.961809
71.795 18.714209
71.800 18.816826
71.805 19.418224
71.810 19.566423
71.815 19.540398
71.820 19.17466
71.825 18.730663
71.830 18.263342
71.835 18.47311
71.840 18.594738
71.845 18.290817
71.850 18.40222
71.855 18.445881
71.860 18.338051
71.865 19.112156
71.870 19.042776
71.875 18.982138
71.880 18.920067
71.885 18.851122
71.890 18.806179
71.895 18.032606
71.900 17.475986
71.905 17.40379
71.910 17.478645
71.915 17.211235
71.920 17.229897
71.925 17.246117
71.930 17.259384
71.935 17.444504
71.940 17.218496
71.945 16.754618
71.950 17.815907
71.955 17.609287
71.960 17.655197
71.965 17.638643
71.970 17.942574
71.975 18.26495
71.980 18.653267
71.985 18.029255
71.990 18.599646
71.995 19.232353
72.000 19.334185
72.005 18.419666
72.010 17.9126
72.015 16.790768
72.020 16.371368
72.025 15.899305
72.030 15.830484
72.035 15.955576
72.040 15.941039
72.045 16.440752
72.050 17.222281
72.055 17.644823
72.060 17.669823
72.065 17.088528
72.070 17.671627
72.075 17.954615
72.080 17.536272
72.085 17.491032
72.090 17.873814
72.095 18.132841
72.100 18.752634
72.105 18.573715
72.110 18.293737
72.115 18.317513
72.120 18.772919
72.125 18.800364
72.130 18.675982
72.135 18.135593
72.140 18.053122
72.145 18.638388
72.150 18.462343
72.155 18.239605
72.160 17.95738
72.165 17.403795
72.170 17.59767
72.175 17.546175
72.180 17.445871
72.185 17.253756
72.190 16.975668
72.195 17.026344
72.200 16.781282
72.205 17.130777
72.210 17.312624
72.215 16.606491
72.220 16.507767
72.225 16.453333
72.230 16.538317
72.235 16.669388
72.240 16.360617
72.245 16.85984
72.250 18.462732
72.255 19.388922
72.260 19.930119
72.265 20.174986
72.270 20.298088
72.275 19.85494
72.280 19.891905
72.285 19.074837
72.290 18.985756
72.295 18.788
72.300 19.039827
72.305 19.579403
72.310 19.920544
72.315 19.54874
72.320 18.891146
72.325 18.585552
72.330 18.533741
72.335 18.220385
72.340 18.270508
72.345 17.664011
72.350 17.323708
72.355 17.358332
72.360 17.426777
72.365 17.926689
72.370 18.341797
72.375 18.136297
72.380 18.718323
72.385 19.060787
72.390 18.751059
72.395 17.979156
72.400 17.239937
72.405 17.016392
72.410 17.454184
72.415 17.548349
72.420 17.468046
72.425 17.853111
72.430 18.574226
72.435 18.35465
72.440 18.137487
72.445 17.711067
72.450 17.656536
72.455 18.233292
72.460 18.642056
72.465 18.698656
72.470 18.726933
72.475 18.608311
72.480 18.888803
72.485 18.706963
72.490 18.004263
72.495 17.932367
72.500 17.783232
72.505 17.929815
72.510 17.403955
72.515 17.199999
72.520 17.324942
72.525 17.730644
72.530 17.251289
72.535 17.407637
72.540 17.567421
72.545 17.755457
72.550 17.253799
72.555 17.047434
72.560 16.787544
72.565 16.916767
72.570 16.782166
72.575 17.231947
72.580 17.486662
72.585 17.920424
72.590 18.197805
72.595 17.870911
72.600 17.815037
72.605 17.484453
72.610 17.635384
72.615 17.945738
72.620 17.836174
72.625 17.874477
72.630 17.917435
72.635 18.010725
72.640 17.657391
72.645 17.118639
72.650 16.855257
72.655 16.502672
72.660 16.288986
72.665 16.131277
72.670 16.878744
72.675 17.231142
72.680 16.790276
72.685 16.659067
72.690 16.941944
72.695 17.466364
72.700 17.850719
72.705 17.503075
72.710 17.899429
72.715 18.568249
72.720 18.481461
72.725 18.01675
72.730 18.133783
72.735 18.64208
72.740 18.944359
72.745 18.553093
72.750 18.697887
72.755 18.748558
72.760 18.331839
72.765 18.296394
72.770 17.37549
72.775 17.042639
72.780 16.492661
72.785 16.265123
72.790 16.578892
72.795 16.266983
72.800 15.548375
72.805 15.627842
72.810 16.074303
72.815 16.693756
72.820 16.587612
72.825 17.012835
72.830 17.049221
72.835 17.394287
72.840 17.497929
72.845 17.05983
72.850 16.843813
72.855 16.638819
72.860 16.263515
72.865 16.406841
72.870 16.504755
72.875 16.627321
72.880 16.912537
72.885 16.439327
72.890 16.094
72.895 16.267618
72.900 15.826908
72.905 15.210604
72.910 15.129048
72.915 15.601208
72.920 16.06971
72.925 16.816114
72.930 17.009521
72.935 17.351681
72.940 17.598558
72.945 17.114784
72.950 17.208328
72.955 17.488785
72.960 17.072077
72.965 17.389229
72.970 16.933172
72.975 17.16688
72.980 17.369463
72.985 16.305004
72.990 16.479105
72.995 16.006859
73.000 15.81581
