!@!!GADDS PLOTSO FILE: Chi integration type
!@!!Title/SampleName: map-1a
!@!!Comment: ?
!@!!User: Bruker Instrument Administrator
!@!!Site: University of Illinois Chicago
!@!!Frame: map-1a_01_000.gfrm
!@!!Wavelengths    1.54184   1.54056   1.54439
!@!!Frame angles: 2Theta: 63.000 Omega: 50.000 Phi: 0.000 Chi: 90.000
!@!!Integration range: 2Theta: 53.000 to 73.000  Gamma: -105.000 to -75.000
!@!!Integration method: bin normalized
!@!N
!@!SS
!@!M
!@!L 0.0 0.0 0.0 0.0
!@!XDegrees
!@!YCounts
53.000 8.457302
53.005 8.588407
53.010 8.282794
53.015 8.617179
53.020 8.790526
53.025 8.455381
53.030 8.636443
53.035 8.687762
53.040 8.713395
53.045 8.869678
53.050 8.76677
53.055 8.404228
53.060 8.240229
53.065 8.16756
53.070 7.944101
53.075 8.394696
53.080 8.285002
53.085 8.213298
53.090 8.643538
53.095 8.726968
53.100 8.70682
53.105 8.460777
53.110 8.559146
53.115 8.571403
53.120 8.769773
53.125 8.836506
53.130 8.624571
53.135 8.91314
53.140 8.648436
53.145 8.367211
53.150 8.505867
53.155 8.459692
53.160 8.576381
53.165 8.579108
53.170 8.441467
53.175 8.810062
53.180 8.87958
53.185 8.684808
53.190 8.069581
53.195 8.134297
53.200 8.749815
53.205 8.524185
53.210 8.451307
53.215 8.397874
53.220 8.80387
53.225 9.184694
53.230 8.863611
53.235 8.633533
53.240 8.789382
53.245 8.965425
53.250 8.669096
53.255 8.524349
53.260 8.925151
53.265 8.948072
53.270 9.05423
53.275 9.082433
53.280 9.053103
53.285 8.974609
53.290 8.837523
53.295 8.396555
53.300 8.490628
53.305 8.054454
53.310 8.174777
53.315 8.554317
53.320 9.211699
53.325 9.47613
53.330 9.417608
53.335 9.382599
53.340 9.395628
53.345 8.945723
53.350 8.668396
53.355 8.192051
53.360 8.15447
53.365 8.237556
53.370 8.318099
53.375 8.271123
53.380 8.366938
53.385 8.334127
53.390 7.928061
53.395 7.690084
53.400 7.836123
53.405 7.768597
53.410 7.830552
53.415 7.890619
53.420 8.720922
53.425 9.468073
53.430 9.857686
53.435 9.932277
53.440 10.193379
53.445 10.465337
53.450 10.380543
53.455 9.839613
53.460 9.560549
53.465 9.487528
53.470 9.368412
53.475 8.826934
53.480 8.338063
53.485 8.147972
53.490 8.291116
53.495 8.398029
53.500 8.463276
53.505 8.920921
53.510 9.586123
53.515 9.715918
53.520 9.875778
53.525 10.011922
53.530 9.931178
53.535 9.785103
53.540 9.467708
53.545 9.668608
53.550 10.078925
53.555 10.160726
53.560 9.928316
53.565 9.758984
53.570 9.930345
53.575 10.044285
53.580 9.422511
53.585 8.967693
53.590 8.520373
53.595 8.980837
53.600 9.154158
53.605 8.8761
53.610 9.00246
53.615 9.108031
53.620 9.175489
53.625 9.336417
53.630 9.041531
53.635 8.884562
53.640 8.779297
53.645 8.726457
53.650 8.743016
53.655 9.101265
53.660 9.373428
53.665 9.451089
53.670 9.798793
53.675 10.039582
53.680 10.209913
53.685 10.480915
53.690 9.908114
53.695 9.474257
53.700 9.788467
53.705 9.463417
53.710 9.16473
53.715 9.055762
53.720 9.214717
53.725 9.221433
53.730 8.657233
53.735 8.460491
53.740 8.650403
53.745 9.243473
53.750 9.030626
53.755 9.12214
53.760 9.117628
53.765 9.477508
53.770 9.883015
53.775 9.621478
53.780 9.995779
53.785 10.074722
53.790 9.791265
53.795 10.389606
53.800 10.71199
53.805 10.352891
53.810 10.322878
53.815 10.02107
53.820 10.195392
53.825 10.717904
53.830 10.246089
53.835 10.00573
53.840 10.033099
53.845 9.601372
53.850 9.636451
53.855 9.529067
53.860 9.529066
53.865 9.468597
53.870 9.141758
53.875 9.673672
53.880 9.84016
53.885 9.647061
53.890 9.463566
53.895 9.197509
53.900 9.275366
53.905 9.270112
53.910 8.966998
53.915 8.907731
53.920 8.83947
53.925 8.605198
53.930 8.888455
53.935 9.059647
53.940 9.045817
53.945 8.919825
53.950 9.135567
53.955 9.763576
53.960 10.345166
53.965 9.934829
53.970 10.047354
53.975 10.252825
53.980 10.286633
53.985 10.329957
53.990 10.114806
53.995 10.389329
54.000 10.288879
54.005 10.191741
54.010 9.880963
54.015 9.320804
54.020 8.851242
54.025 8.756289
54.030 8.939544
54.035 9.725528
54.040 9.907082
54.045 10.01349
54.050 10.739459
54.055 10.97418
54.060 10.446053
54.065 9.818503
54.070 9.611323
54.075 9.507141
54.080 9.900024
54.085 9.67121
54.090 9.720967
54.095 9.685456
54.100 9.733166
54.105 9.539797
54.110 9.658695
54.115 8.977021
54.120 8.891416
54.125 9.21292
54.130 9.797149
54.135 10.174585
54.140 10.598086
54.145 10.476864
54.150 10.924593
54.155 10.964592
54.160 10.752802
54.165 10.361585
54.170 9.600633
54.175 9.306674
54.180 9.460509
54.185 9.497132
54.190 9.805084
54.195 9.640258
54.200 9.810266
54.205 9.700525
54.210 9.791551
54.215 9.855116
54.220 9.590734
54.225 9.714874
54.230 10.004924
54.235 10.339648
54.240 10.313447
54.245 10.1689
54.250 10.230424
54.255 10.046605
54.260 9.359901
54.265 9.15293
54.270 9.595657
54.275 9.648358
54.280 9.557264
54.285 9.250608
54.290 9.477037
54.295 9.726
54.300 9.167315
54.305 9.476049
54.310 10.17869
54.315 10.379816
54.320 10.394178
54.325 10.495616
54.330 11.341249
54.335 11.937406
54.340 11.409673
54.345 11.342084
54.350 11.88203
54.355 12.065151
54.360 11.811789
54.365 11.628881
54.370 11.665991
54.375 11.852966
54.380 10.891305
54.385 10.869022
54.390 10.724216
54.395 10.715923
54.400 10.113874
54.405 10.10354
54.410 10.43495
54.415 10.775748
54.420 10.698081
54.425 10.76438
54.430 10.736971
54.435 11.009727
54.440 10.950531
54.445 11.085158
54.450 10.771548
54.455 10.523901
54.460 10.319077
54.465 10.350462
54.470 9.76417
54.475 9.620514
54.480 9.704575
54.485 9.656773
54.490 9.981023
54.495 10.144832
54.500 9.931101
54.505 9.806254
54.510 9.33663
54.515 9.410836
54.520 9.67089
54.525 9.669618
54.530 10.03102
54.535 10.203009
54.540 10.732513
54.545 10.892008
54.550 10.656742
54.555 10.686256
54.560 10.471025
54.565 10.286557
54.570 10.120773
54.575 9.752045
54.580 10.012631
54.585 10.165184
54.590 10.046354
54.595 9.896572
54.600 9.897304
54.605 10.017182
54.610 10.661328
54.615 10.758724
54.620 10.770463
54.625 11.054237
54.630 11.418283
54.635 11.391939
54.640 11.767315
54.645 11.254507
54.650 11.17369
54.655 11.335916
54.660 11.293623
54.665 11.228131
54.670 11.165285
54.675 10.92637
54.680 11.099315
54.685 10.717422
54.690 10.533185
54.695 10.633572
54.700 10.407232
54.705 10.834363
54.710 11.197821
54.715 11.109968
54.720 11.015597
54.725 11.453024
54.730 11.061795
54.735 11.485519
54.740 10.741997
54.745 9.817261
54.750 9.483364
54.755 9.554148
54.760 9.562963
54.765 9.674061
54.770 9.326575
54.775 9.993103
54.780 10.137671
54.785 10.288551
54.790 10.248249
54.795 10.29185
54.800 10.643897
54.805 10.583
54.810 10.692703
54.815 11.199879
54.820 11.181878
54.825 10.940199
54.830 10.969562
54.835 10.858661
54.840 11.086729
54.845 11.172688
54.850 11.370269
54.855 11.903923
54.860 11.688766
54.865 10.849314
54.870 10.623667
54.875 10.493773
54.880 10.388384
54.885 10.080079
54.890 9.649667
54.895 10.14989
54.900 10.966314
54.905 11.131674
54.910 10.897088
54.915 10.860199
54.920 10.767692
54.925 11.011188
54.930 10.663506
54.935 10.407183
54.940 10.225848
54.945 10.107946
54.950 10.268959
54.955 10.414835
54.960 10.623277
54.965 10.809243
54.970 10.60607
54.975 10.622817
54.980 10.929528
54.985 11.115873
54.990 11.089212
54.995 11.008542
55.000 11.174002
55.005 11.490809
55.010 11.813099
55.015 11.726617
55.020 11.700073
55.025 11.505592
55.030 11.634339
55.035 11.898707
55.040 11.892447
55.045 12.05359
55.050 12.040597
55.055 11.824927
55.060 11.667384
55.065 11.410903
55.070 10.682836
55.075 10.457932
55.080 10.253118
55.085 10.654295
55.090 11.09483
55.095 11.767915
55.100 11.892524
55.105 12.472014
55.110 12.362707
55.115 12.099979
55.120 11.572816
55.125 11.624002
55.130 11.382449
55.135 11.014541
55.140 10.732718
55.145 10.682502
55.150 11.17305
55.155 10.865449
55.160 10.407905
55.165 10.461439
55.170 10.660657
55.175 10.447026
55.180 10.486378
55.185 10.531895
55.190 11.041945
55.195 10.97385
55.200 10.778552
55.205 10.607082
55.210 11.196239
55.215 11.519761
55.220 11.223293
55.225 11.563915
55.230 11.403557
55.235 11.981686
55.240 12.086308
55.245 11.892637
55.250 11.875411
55.255 11.852728
55.260 11.606642
55.265 11.495203
55.270 11.300337
55.275 11.608656
55.280 11.767847
55.285 11.317004
55.290 11.173966
55.295 10.963725
55.300 10.985148
55.305 10.902588
55.310 10.443579
55.315 10.11149
55.320 10.314782
55.325 10.161774
55.330 10.402766
55.335 10.556763
55.340 10.542027
55.345 10.658105
55.350 11.153226
55.355 11.755843
55.360 12.582376
55.365 12.31281
55.370 12.361662
55.375 11.95741
55.380 11.620161
55.385 10.986362
55.390 10.556699
55.395 10.086577
55.400 10.009458
55.405 10.418777
55.410 10.73814
55.415 10.914555
55.420 10.590853
55.425 10.177259
55.430 9.98581
55.435 10.092198
55.440 9.961906
55.445 10.186255
55.450 10.543326
55.455 10.718425
55.460 11.128438
55.465 11.485008
55.470 11.679207
55.475 11.613491
55.480 11.078376
55.485 10.767853
55.490 10.619078
55.495 10.63761
55.500 11.261548
55.505 11.431428
55.510 11.563407
55.515 12.073798
55.520 12.23675
55.525 12.568999
55.530 12.153376
55.535 11.489603
55.540 11.037962
55.545 10.928051
55.550 10.829062
55.555 11.0151
55.560 10.596219
55.565 10.498144
55.570 10.979143
55.575 11.609018
55.580 11.833726
55.585 12.492576
55.590 13.008705
55.595 13.19758
55.600 13.199049
55.605 12.79645
55.610 12.358294
55.615 12.381101
55.620 11.991121
55.625 11.676637
55.630 11.897227
55.635 12.072014
55.640 12.084751
55.645 12.099018
55.650 12.078329
55.655 12.059441
55.660 11.752743
55.665 11.771969
55.670 11.626881
55.675 11.599492
55.680 11.669696
55.685 11.856631
55.690 11.931584
55.695 12.338815
55.700 12.261023
55.705 12.458652
55.710 11.793672
55.715 11.586329
55.720 11.386292
55.725 10.861502
55.730 10.965741
55.735 10.684137
55.740 10.408351
55.745 10.834688
55.750 10.888822
55.755 11.219123
55.760 11.574028
55.765 11.347253
55.770 11.588192
55.775 11.76884
55.780 11.673328
55.785 11.898652
55.790 11.971853
55.795 11.819687
55.800 11.775172
55.805 11.864538
55.810 12.26991
55.815 11.950713
55.820 11.598717
55.825 12.02585
55.830 12.370214
55.835 12.709278
55.840 12.824551
55.845 12.675636
55.850 13.061743
55.855 13.031796
55.860 12.588434
55.865 12.486398
55.870 12.505617
55.875 12.361005
55.880 12.227328
55.885 12.510912
55.890 12.60488
55.895 12.588768
55.900 12.491118
55.905 11.899083
55.910 11.915234
55.915 12.071552
55.920 11.840804
55.925 11.410927
55.930 11.117121
55.935 11.140473
55.940 11.613533
55.945 12.209097
55.950 12.181463
55.955 11.785082
55.960 11.593171
55.965 11.313902
55.970 12.136159
55.975 12.070467
55.980 11.970531
55.985 12.161472
55.990 12.374387
55.995 12.743956
56.000 12.701183
56.005 12.037381
56.010 11.655498
56.015 11.606233
56.020 11.50728
56.025 11.600094
56.030 11.769535
56.035 11.782443
56.040 11.984364
56.045 12.335017
56.050 12.023874
56.055 12.088923
56.060 12.087288
56.065 11.725493
56.070 11.514573
56.075 11.481369
56.080 11.568632
56.085 11.828313
56.090 11.840543
56.095 11.788976
56.100 12.097194
56.105 12.1669
56.110 11.956238
56.115 11.722997
56.120 11.693183
56.125 11.853093
56.130 12.089654
56.135 12.281346
56.140 12.694188
56.145 12.421273
56.150 11.89187
56.155 11.655216
56.160 11.87364
56.165 11.563947
56.170 11.592995
56.175 11.341243
56.180 11.739056
56.185 12.147247
56.190 12.117123
56.195 11.779559
56.200 11.964919
56.205 11.926089
56.210 12.307343
56.215 12.376959
56.220 12.318082
56.225 12.382967
56.230 12.389313
56.235 12.439672
56.240 12.228631
56.245 11.556039
56.250 11.628164
56.255 11.899302
56.260 12.051476
56.265 12.285968
56.270 12.051017
56.275 12.163905
56.280 11.745018
56.285 11.681749
56.290 11.51836
56.295 11.296077
56.300 11.624266
56.305 11.916677
56.310 12.345177
56.315 13.073533
56.320 13.114492
56.325 12.865393
56.330 12.465745
56.335 12.004449
56.340 11.84066
56.345 11.953664
56.350 11.738569
56.355 12.206561
56.360 12.42356
56.365 12.930943
56.370 13.121481
56.375 12.977678
56.380 12.748911
56.385 12.365417
56.390 11.82824
56.395 11.812655
56.400 11.614137
56.405 11.413047
56.410 11.486045
56.415 12.018907
56.420 12.921601
56.425 13.108898
56.430 13.498795
56.435 13.654366
56.440 13.627581
56.445 13.888798
56.450 13.550708
56.455 12.686334
56.460 12.746977
56.465 12.208978
56.470 12.484701
56.475 12.457221
56.480 11.737785
56.485 11.763577
56.490 12.186868
56.495 11.782314
56.500 11.8105
56.505 10.878298
56.510 10.698763
56.515 10.324038
56.520 10.388803
56.525 11.150203
56.530 11.418023
56.535 11.616162
56.540 12.22115
56.545 12.592877
56.550 13.02871
56.555 12.92129
56.560 12.426199
56.565 12.43477
56.570 12.610677
56.575 12.743805
56.580 13.030362
56.585 13.161556
56.590 12.956898
56.595 12.705939
56.600 12.988873
56.605 13.006288
56.610 13.217596
56.615 13.438145
56.620 13.440399
56.625 13.632566
56.630 14.061418
56.635 13.960755
56.640 13.921845
56.645 13.643745
56.650 12.584965
56.655 12.074451
56.660 12.309329
56.665 12.304943
56.670 11.709414
56.675 11.938894
56.680 12.66175
56.685 13.595978
56.690 13.895718
56.695 13.552437
56.700 13.429806
56.705 14.020904
56.710 14.355485
56.715 14.28083
56.720 14.042917
56.725 13.74224
56.730 14.411799
56.735 14.621582
56.740 14.292891
56.745 13.394893
56.750 13.418262
56.755 13.781055
56.760 13.888472
56.765 13.421652
56.770 13.327376
56.775 13.615582
56.780 13.754504
56.785 13.47939
56.790 12.833361
56.795 12.302092
56.800 12.020123
56.805 12.087283
56.810 11.464163
56.815 11.612616
56.820 11.738438
56.825 12.002877
56.830 12.278052
56.835 11.974214
56.840 12.256595
56.845 12.766268
56.850 11.875001
56.855 11.720756
56.860 11.86033
56.865 12.036109
56.870 12.643557
56.875 12.718408
56.880 12.506511
56.885 12.981097
56.890 13.01014
56.895 13.189171
56.900 12.673385
56.905 11.846187
56.910 11.351634
56.915 11.238824
56.920 11.285599
56.925 11.469525
56.930 11.799813
56.935 12.069869
56.940 12.575601
56.945 12.664645
56.950 12.429192
56.955 12.169316
56.960 12.013702
56.965 11.429938
56.970 11.99552
56.975 11.841139
56.980 12.079637
56.985 12.587492
56.990 12.800407
56.995 13.139624
57.000 13.586169
57.005 12.883227
57.010 12.865371
57.015 13.254191
57.020 13.117458
57.025 12.795383
57.030 12.088943
57.035 12.038409
57.040 13.072215
57.045 13.552447
57.050 13.3654
57.055 13.230892
57.060 13.590286
57.065 14.471658
57.070 13.926444
57.075 13.486874
57.080 13.227982
57.085 13.659151
57.090 13.866246
57.095 13.472479
57.100 13.183586
57.105 13.719105
57.110 13.484597
57.115 13.979558
57.120 14.034255
57.125 14.805425
57.130 15.800496
57.135 15.645897
57.140 15.618671
57.145 16.087528
57.150 15.585938
57.155 14.908608
57.160 14.027268
57.165 13.328797
57.170 13.173573
57.175 13.121327
57.180 12.798935
57.185 12.764541
57.190 13.260479
57.195 13.492123
57.200 14.07299
57.205 14.326704
57.210 13.815387
57.215 13.816322
57.220 14.020003
57.225 13.77427
57.230 13.707195
57.235 13.322097
57.240 13.313929
57.245 13.678595
57.250 13.240275
57.255 13.059917
57.260 13.084991
57.265 13.2617
57.270 13.479521
57.275 13.946253
57.280 14.18495
57.285 14.83488
57.290 15.160734
57.295 15.064182
57.300 15.075574
57.305 15.212533
57.310 14.997226
57.315 14.952785
57.320 14.865786
57.325 14.345747
57.330 14.678123
57.335 14.745912
57.340 14.420601
57.345 14.361778
57.350 14.529799
57.355 14.302255
57.360 14.507021
57.365 14.087032
57.370 14.132546
57.375 14.16662
57.380 14.00928
57.385 13.444398
57.390 13.150896
57.395 13.600039
57.400 14.193666
57.405 14.162632
57.410 14.893714
57.415 15.136835
57.420 15.713517
57.425 16.103947
57.430 15.76324
57.435 15.619861
57.440 15.22652
57.445 14.817971
57.450 15.292334
57.455 15.794631
57.460 15.226551
57.465 15.04123
57.470 15.071891
57.475 15.29114
57.480 14.926465
57.485 14.081857
57.490 13.623775
57.495 14.147902
57.500 14.085804
57.505 14.644988
57.510 14.690173
57.515 14.861732
57.520 14.841886
57.525 14.755589
57.530 14.415392
57.535 14.196779
57.540 13.69289
57.545 13.746591
57.550 13.940312
57.555 14.521899
57.560 14.688985
57.565 14.934439
57.570 15.042411
57.575 15.018554
57.580 14.868246
57.585 14.558324
57.590 14.872126
57.595 14.635021
57.600 14.786999
57.605 14.414432
57.610 14.03003
57.615 14.166981
57.620 14.00342
57.625 14.388176
57.630 14.359914
57.635 14.147675
57.640 14.71368
57.645 14.968055
57.650 14.850946
57.655 14.614466
57.660 14.214307
57.665 14.452468
57.670 14.252135
57.675 14.272986
57.680 14.184555
57.685 14.28218
57.690 14.43861
57.695 14.192585
57.700 14.266692
57.705 14.925893
57.710 14.287793
57.715 14.268723
57.720 14.072106
57.725 13.733384
57.730 13.377526
57.735 12.649626
57.740 12.574365
57.745 13.432611
57.750 13.556543
57.755 13.715625
57.760 13.787019
57.765 13.759115
57.770 13.836155
57.775 13.377941
57.780 13.088914
57.785 13.437564
57.790 13.777335
57.795 13.652623
57.800 13.483954
57.805 13.448852
57.810 13.926163
57.815 13.864182
57.820 13.532841
57.825 13.491782
57.830 14.069285
57.835 14.677218
57.840 15.125186
57.845 15.009204
57.850 15.107614
57.855 15.01544
57.860 14.910164
57.865 14.536599
57.870 14.260612
57.875 14.195261
57.880 14.053509
57.885 14.180552
57.890 14.733151
57.895 14.744048
57.900 14.633842
57.905 14.408417
57.910 13.851954
57.915 13.911159
57.920 13.745813
57.925 13.837242
57.930 14.456827
57.935 15.08127
57.940 15.405864
57.945 15.517944
57.950 15.513244
57.955 15.688072
57.960 15.615955
57.965 14.874121
57.970 14.787649
57.975 15.133121
57.980 15.513879
57.985 15.401298
57.990 15.362459
57.995 15.608723
58.000 15.9633
58.005 15.833233
58.010 16.04826
58.015 16.091642
58.020 16.008701
58.025 15.618172
58.030 15.186675
58.035 14.973334
58.040 15.308362
58.045 15.726194
58.050 16.05958
58.055 16.514435
58.060 16.308912
58.065 15.858612
58.070 16.335526
58.075 16.161316
58.080 15.536942
58.085 15.362998
58.090 15.276707
58.095 15.69989
58.100 16.271444
58.105 15.79685
58.110 15.414288
58.115 14.849936
58.120 14.412571
58.125 14.110218
58.130 14.050281
58.135 14.320424
58.140 14.30778
58.145 14.64736
58.150 15.183532
58.155 15.648864
58.160 15.608047
58.165 15.824646
58.170 15.695326
58.175 16.17609
58.180 16.269039
58.185 16.328135
58.190 16.658415
58.195 16.857996
58.200 16.903805
58.205 16.912798
58.210 16.518623
58.215 16.734079
58.220 16.712729
58.225 16.304478
58.230 16.007906
58.235 15.830573
58.240 15.7151
58.245 15.401655
58.250 15.187263
58.255 15.061825
58.260 15.486871
58.265 16.092899
58.270 16.478737
58.275 16.974388
58.280 17.882795
58.285 18.131002
58.290 18.391874
58.295 18.103493
58.300 18.354795
58.305 18.515036
58.310 18.258581
58.315 17.358345
58.320 17.174879
58.325 17.085375
58.330 17.177814
58.335 17.450968
58.340 17.732393
58.345 18.038763
58.350 19.151892
58.355 19.116503
58.360 19.148079
58.365 18.727341
58.370 17.848871
58.375 17.981581
58.380 17.50292
58.385 17.047869
58.390 17.335957
58.395 17.757835
58.400 18.526979
58.405 18.596109
58.410 17.902168
58.415 18.396879
58.420 18.896387
58.425 19.299269
58.430 19.200468
58.435 18.607437
58.440 18.016106
58.445 18.158873
58.450 17.880154
58.455 17.353481
58.460 17.102869
58.465 17.134432
58.470 17.650845
58.475 18.006701
58.480 17.939465
58.485 17.852737
58.490 18.166348
58.495 18.168301
58.500 18.481756
58.505 18.069956
58.510 18.130003
58.515 18.312775
58.520 18.403183
58.525 18.669371
58.530 18.668148
58.535 19.317883
58.540 19.741058
58.545 19.65535
58.550 19.63216
58.555 19.313519
58.560 18.671412
58.565 18.380911
58.570 17.641117
58.575 18.044975
58.580 18.741524
58.585 19.036833
58.590 19.230015
58.595 19.766607
58.600 20.046541
58.605 20.17856
58.610 19.412682
58.615 18.675608
58.620 18.921791
58.625 19.255531
58.630 19.022381
58.635 18.574305
58.640 18.254522
58.645 18.115791
58.650 17.896912
58.655 17.823448
58.660 17.263927
58.665 17.296616
58.670 17.887646
58.675 18.852255
58.680 19.43812
58.685 20.015354
58.690 20.122917
58.695 20.786598
58.700 20.563871
58.705 19.646345
58.710 18.555773
58.715 18.255503
58.720 17.898987
58.725 17.530363
58.730 16.693205
58.735 17.204754
58.740 17.725906
58.745 18.221909
58.750 18.51947
58.755 18.464045
58.760 18.266886
58.765 18.879793
58.770 19.470139
58.775 19.869007
58.780 19.911554
58.785 20.263838
58.790 20.154034
58.795 19.987747
58.800 19.501478
58.805 18.857126
58.810 18.23777
58.815 17.588945
58.820 16.737236
58.825 16.590433
58.830 17.084396
58.835 16.790304
58.840 15.959736
58.845 15.993626
58.850 16.439856
58.855 16.749592
58.860 17.006224
58.865 16.951733
58.870 17.542248
58.875 18.015127
58.880 17.80335
58.885 17.668928
58.890 17.409996
58.895 17.183794
58.900 16.602287
58.905 17.193821
58.910 17.78232
58.915 17.908869
58.920 18.115414
58.925 18.211081
58.930 18.780973
58.935 18.820715
58.940 18.088501
58.945 17.658487
58.950 18.150347
58.955 17.943556
58.960 18.175224
58.965 17.996777
58.970 18.067038
58.975 18.409348
58.980 18.418653
58.985 18.439289
58.990 18.907494
58.995 18.77343
59.000 19.001764
59.005 19.114281
59.010 19.048607
59.015 19.125898
59.020 19.241791
59.025 19.679407
59.030 20.088413
59.035 19.808334
59.040 19.964466
59.045 19.752085
59.050 19.98698
59.055 19.793118
59.060 19.434431
59.065 19.711052
59.070 19.147377
59.075 18.692518
59.080 18.74
59.085 18.905182
59.090 19.169201
59.095 18.847866
59.100 18.270983
59.105 18.545946
59.110 18.603128
59.115 18.371435
59.120 18.099056
59.125 18.271051
59.130 18.257841
59.135 18.57329
59.140 19.381638
59.145 19.927025
59.150 20.195753
59.155 20.43709
59.160 20.280239
59.165 20.206694
59.170 20.368277
59.175 19.965343
59.180 20.236797
59.185 21.181707
59.190 20.782568
59.195 20.526968
59.200 20.411701
59.205 19.91498
59.210 20.233036
59.215 19.444918
59.220 18.064207
59.225 17.82688
59.230 18.109709
59.235 18.407257
59.240 18.208977
59.245 17.374912
59.250 17.182819
59.255 17.109467
59.260 17.529318
59.265 17.583036
59.270 17.315119
59.275 17.273844
59.280 17.535969
59.285 17.406475
59.290 17.528326
59.295 17.824093
59.300 17.941397
59.305 18.485003
59.310 18.574776
59.315 18.707529
59.320 19.092049
59.325 19.434858
59.330 19.264763
59.335 19.108047
59.340 18.837852
59.345 19.09798
59.350 19.282564
59.355 19.041676
59.360 19.095682
59.365 19.111223
59.370 18.910467
59.375 18.519346
59.380 18.12088
59.385 18.126942
59.390 19.171551
59.395 18.978731
59.400 18.807487
59.405 18.675468
59.410 18.727049
59.415 19.259211
59.420 19.110949
59.425 18.266109
59.430 18.470387
59.435 18.802349
59.440 19.303886
59.445 19.30195
59.450 19.074476
59.455 19.122404
59.460 19.109688
59.465 18.871666
59.470 18.258278
59.475 18.03751
59.480 17.961666
59.485 17.997023
59.490 18.517206
59.495 18.609756
59.500 18.146698
59.505 18.282532
59.510 18.435944
59.515 18.635042
59.520 18.886162
59.525 18.391481
59.530 18.28433
59.535 19.129927
59.540 19.568171
59.545 19.399326
59.550 19.766418
59.555 19.810705
59.560 20.110863
59.565 20.213552
59.570 19.842648
59.575 19.694071
59.580 19.746296
59.585 19.445612
59.590 19.632658
59.595 19.763895
59.600 20.066593
59.605 19.748219
59.610 20.207195
59.615 20.633587
59.620 20.872931
59.625 20.603949
59.630 20.490383
59.635 20.088976
59.640 20.07588
59.645 19.609516
59.650 18.980507
59.655 18.507166
59.660 18.875134
59.665 18.426752
59.670 18.369627
59.675 18.627464
59.680 19.037718
59.685 19.879044
59.690 20.157852
59.695 20.088417
59.700 20.582888
59.705 20.680361
59.710 20.446285
59.715 19.996134
59.720 19.495909
59.725 18.864176
59.730 18.44644
59.735 17.93944
59.740 18.02667
59.745 18.231941
59.750 18.648664
59.755 19.107885
59.760 19.491272
59.765 19.789396
59.770 20.060934
59.775 20.036175
59.780 19.959393
59.785 19.338266
59.790 19.027603
59.795 19.039425
59.800 19.242355
59.805 19.758043
59.810 19.354198
59.815 19.589624
59.820 19.755014
59.825 19.854176
59.830 20.440819
59.835 20.179171
59.840 20.238676
59.845 20.140812
59.850 19.374811
59.855 19.529423
59.860 19.318207
59.865 18.563753
59.870 18.627335
59.875 18.617855
59.880 19.068417
59.885 19.075003
59.890 19.017286
59.895 19.382442
59.900 19.814228
59.905 19.603291
59.910 19.603159
59.915 19.610697
59.920 19.940825
59.925 19.959997
59.930 20.00885
59.935 19.890697
59.940 19.888315
59.945 19.219261
59.950 18.988955
59.955 18.963659
59.960 18.731022
59.965 18.746449
59.970 18.894047
59.975 18.799557
59.980 19.821312
59.985 20.408623
59.990 20.476826
59.995 20.220606
60.000 19.706818
60.005 19.231352
60.010 19.293119
60.015 18.29744
60.020 18.099627
60.025 18.339617
60.030 18.496201
60.035 18.651106
60.040 19.275978
60.045 19.407755
60.050 19.924965
60.055 20.217937
60.060 19.767368
60.065 19.753765
60.070 19.417974
60.075 19.300241
60.080 19.32736
60.085 18.866661
60.090 18.662046
60.095 18.823551
60.100 19.058367
60.105 19.237366
60.110 18.774046
60.115 19.030787
60.120 19.267342
60.125 20.000841
60.130 20.595715
60.135 20.898518
60.140 21.272787
60.145 21.641739
60.150 21.648565
60.155 21.647552
60.160 21.026367
60.165 20.057188
60.170 19.984697
60.175 20.032272
60.180 20.023441
60.185 19.537113
60.190 19.68195
60.195 19.713593
60.200 20.319719
60.205 20.104794
60.210 19.831661
60.215 19.52721
60.220 19.010786
60.225 18.224916
60.230 18.214867
60.235 18.184519
60.240 17.778025
60.245 17.545879
60.250 17.514156
60.255 17.775848
60.260 17.999462
60.265 18.308096
60.270 18.127563
60.275 18.221514
60.280 18.918684
60.285 18.844194
60.290 18.34889
60.295 17.68511
60.300 16.395645
60.305 16.454927
60.310 16.34547
60.315 15.830568
60.320 16.071098
60.325 16.520702
60.330 16.625238
60.335 16.513027
60.340 16.28689
60.345 16.529024
60.350 16.519337
60.355 16.325424
60.360 16.391609
60.365 16.751261
60.370 16.925249
60.375 17.255638
60.380 17.222239
60.385 17.502443
60.390 17.608875
60.395 18.645187
60.400 18.871231
60.405 18.441448
60.410 17.819656
60.415 17.890638
60.420 17.45809
60.425 17.256105
60.430 16.453823
60.435 16.511183
60.440 16.871647
60.445 16.6796
60.450 16.240189
60.455 16.451523
60.460 16.781927
60.465 16.505119
60.470 16.632486
60.475 17.086605
60.480 17.710762
60.485 17.33383
60.490 17.018536
60.495 16.601322
60.500 16.848196
60.505 16.768873
60.510 16.369154
60.515 15.850272
60.520 15.94238
60.525 15.996131
60.530 16.447084
60.535 16.362926
60.540 16.171211
60.545 16.58283
60.550 17.07691
60.555 17.586807
60.560 17.730621
60.565 17.648785
60.570 18.061502
60.575 18.415539
60.580 18.068033
60.585 17.673321
60.590 17.78945
60.595 17.643822
60.600 17.642353
60.605 17.367571
60.610 17.271023
60.615 17.447466
60.620 17.778572
60.625 17.538713
60.630 17.831247
60.635 17.102449
60.640 16.461502
60.645 16.572971
60.650 17.042837
60.655 16.613424
60.660 16.542624
60.665 16.178793
60.670 17.052128
60.675 17.743708
60.680 17.412579
60.685 16.417475
60.690 16.537413
60.695 16.531689
60.700 16.572567
60.705 16.388432
60.710 15.730122
60.715 15.547374
60.720 16.414633
60.725 16.726637
60.730 16.619787
60.735 16.41744
60.740 16.423336
60.745 16.785128
60.750 16.718176
60.755 16.521927
60.760 16.513384
60.765 16.693584
60.770 16.471333
60.775 15.804152
60.780 15.852457
60.785 16.225285
60.790 16.316376
60.795 16.501053
60.800 16.371815
60.805 16.776989
60.810 17.248652
60.815 17.114956
60.820 17.200407
60.825 17.079615
60.830 16.680502
60.835 16.579573
60.840 16.465057
60.845 16.480167
60.850 16.534245
60.855 16.502823
60.860 16.395473
60.865 16.562763
60.870 16.36063
60.875 16.215446
60.880 15.981352
60.885 16.274954
60.890 16.038307
60.895 16.159418
60.900 16.03009
60.905 16.127653
60.910 16.82029
60.915 16.896088
60.920 17.024021
60.925 17.250204
60.930 17.678869
60.935 18.41851
60.940 18.806822
60.945 18.218889
60.950 18.27586
60.955 17.745991
60.960 16.910181
60.965 16.299843
60.970 15.911651
60.975 15.494117
60.980 15.742899
60.985 15.766228
60.990 15.655815
60.995 16.116207
61.000 16.459114
61.005 16.531456
61.010 16.929613
61.015 16.798603
61.020 16.221313
61.025 16.983437
61.030 17.25123
61.035 17.142754
61.040 17.326654
61.045 17.343971
61.050 17.477997
61.055 17.782787
61.060 17.46656
61.065 17.565836
61.070 17.513044
61.075 17.315187
61.080 17.205454
61.085 16.82365
61.090 16.582714
61.095 16.497015
61.100 16.415972
61.105 16.324064
61.110 16.275246
61.115 16.113237
61.120 16.083097
61.125 16.277023
61.130 15.942663
61.135 15.902946
61.140 15.66229
61.145 15.286956
61.150 15.331319
61.155 15.814981
61.160 16.355951
61.165 16.39963
61.170 16.589418
61.175 16.896719
61.180 17.098894
61.185 17.175713
61.190 16.867552
61.195 17.379501
61.200 17.987476
61.205 18.003353
61.210 18.309868
61.215 18.023417
61.220 18.058538
61.225 18.209
61.230 17.405687
61.235 17.385853
61.240 16.53628
61.245 16.149639
61.250 16.466927
61.255 16.915237
61.260 17.345701
61.265 17.192415
61.270 16.638317
61.275 17.248764
61.280 17.572901
61.285 17.688328
61.290 16.906897
61.295 16.487587
61.300 16.075365
61.305 16.638203
61.310 16.62702
61.315 16.540419
61.320 16.238838
61.325 16.404352
61.330 16.675367
61.335 17.345284
61.340 16.684555
61.345 16.759682
61.350 16.80456
61.355 16.510305
61.360 16.63735
61.365 16.726351
61.370 16.577068
61.375 16.854397
61.380 16.839443
61.385 16.800945
61.390 17.218231
61.395 16.567329
61.400 15.933368
61.405 15.758838
61.410 15.503397
61.415 16.074747
61.420 15.864804
61.425 16.278597
61.430 16.953802
61.435 17.273767
61.440 18.174795
61.445 18.615147
61.450 18.420761
61.455 18.291813
61.460 17.934324
61.465 17.406435
61.470 17.424524
61.475 16.83601
61.480 16.50436
61.485 16.147242
61.490 15.961699
61.495 15.127345
61.500 15.214571
61.505 15.220517
61.510 14.811423
61.515 14.671623
61.520 15.089187
61.525 15.31159
61.530 15.847969
61.535 15.736002
61.540 15.219827
61.545 15.47878
61.550 15.726709
61.555 15.561926
61.560 15.732278
61.565 16.331179
61.570 16.631666
61.575 17.146406
61.580 17.869177
61.585 18.000072
61.590 18.261318
61.595 18.488514
61.600 18.078707
61.605 18.115877
61.610 18.464573
61.615 18.525015
61.620 18.793934
61.625 19.32283
61.630 19.117161
61.635 19.151964
61.640 19.458488
61.645 19.351786
61.650 18.204702
61.655 17.883549
61.660 17.27709
61.665 16.966209
61.670 16.700148
61.675 16.495474
61.680 15.8527
61.685 15.936899
61.690 15.466496
61.695 15.447577
61.700 15.823882
61.705 16.265875
61.710 15.979251
61.715 16.741938
61.720 17.088846
61.725 17.040375
61.730 17.003599
61.735 17.086309
61.740 16.755537
61.745 16.466808
61.750 16.77865
61.755 17.204456
61.760 17.53879
61.765 17.546162
61.770 17.462074
61.775 17.509445
61.780 17.418991
61.785 16.606062
61.790 16.148901
61.795 15.854932
61.800 15.608059
61.805 15.380992
61.810 15.625225
61.815 16.120651
61.820 17.313572
61.825 18.040276
61.830 18.696531
61.835 18.347208
61.840 17.986391
61.845 18.01981
61.850 18.028574
61.855 18.01128
61.860 18.015562
61.865 18.044838
61.870 18.497042
61.875 18.71821
61.880 18.406458
61.885 18.136911
61.890 17.23823
61.895 16.624344
61.900 16.625544
61.905 16.540131
61.910 16.772593
61.915 17.27857
61.920 16.791466
61.925 16.978445
61.930 17.78035
61.935 17.619373
61.940 17.741579
61.945 17.733263
61.950 16.992498
61.955 17.527805
61.960 17.504929
61.965 16.998053
61.970 17.357204
61.975 17.736891
61.980 17.592552
61.985 17.577063
61.990 17.134985
61.995 16.973406
62.000 16.913956
62.005 16.543077
62.010 16.333714
62.015 16.32999
62.020 16.645666
62.025 16.91317
62.030 16.173409
62.035 15.565741
62.040 15.019901
62.045 14.849135
62.050 15.297985
62.055 15.539866
62.060 15.609821
62.065 15.850022
62.070 16.058081
62.075 16.504219
62.080 16.906801
62.085 16.3652
62.090 16.207912
62.095 16.074944
62.100 16.044159
62.105 16.317644
62.110 16.512434
62.115 16.372252
62.120 16.720404
62.125 16.505486
62.130 16.420767
62.135 16.863258
62.140 16.332024
62.145 16.054348
62.150 16.160177
62.155 16.327812
62.160 16.395596
62.165 17.013647
62.170 17.209499
62.175 17.858282
62.180 18.048508
62.185 18.057596
62.190 18.086147
62.195 18.020767
62.200 17.444401
62.205 17.292068
62.210 16.818165
62.215 16.885378
62.220 16.618103
62.225 16.256548
62.230 16.104635
62.235 16.320919
62.240 16.33169
62.245 16.324478
62.250 15.78307
62.255 16.344084
62.260 16.854118
62.265 16.980333
62.270 16.72156
62.275 16.75856
62.280 16.693695
62.285 16.688189
62.290 16.046984
62.295 15.895936
62.300 15.982549
62.305 15.876573
62.310 15.737808
62.315 16.611326
62.320 17.019522
62.325 17.397629
62.330 17.686012
62.335 18.035622
62.340 18.832586
62.345 18.731209
62.350 18.487961
62.355 18.293905
62.360 18.062628
62.365 17.806068
62.370 17.611074
62.375 17.199175
62.380 16.873407
62.385 16.339218
62.390 16.341518
62.395 16.598108
62.400 16.605974
62.405 16.803947
62.410 16.916594
62.415 17.296097
62.420 17.661968
62.425 17.740992
62.430 17.401688
62.435 17.115372
62.440 16.775543
62.445 16.893381
62.450 16.879217
62.455 17.150841
62.460 17.108574
62.465 17.375031
62.470 17.447554
62.475 17.238897
62.480 17.002913
62.485 17.426239
62.490 17.324148
62.495 17.284969
62.500 17.211271
62.505 17.154833
62.510 17.441299
62.515 17.487303
62.520 17.41118
62.525 16.90992
62.530 16.489477
62.535 16.400791
62.540 16.631672
62.545 16.789801
62.550 16.645113
62.555 16.573517
62.560 16.617243
62.565 17.467587
62.570 17.919586
62.575 17.820274
62.580 17.229828
62.585 17.30328
62.590 17.202322
62.595 17.176231
62.600 16.945778
62.605 16.715723
62.610 16.699934
62.615 17.003778
62.620 17.177624
62.625 16.605349
62.630 16.584528
62.635 16.421358
62.640 16.479664
62.645 16.476566
62.650 16.582691
62.655 16.47105
62.660 16.544842
62.665 16.635466
62.670 16.236891
62.675 16.337603
62.680 16.444042
62.685 16.427891
62.690 16.78163
62.695 17.014791
62.700 17.356289
62.705 17.580807
62.710 17.571871
62.715 18.107983
62.720 17.861301
62.725 17.939003
62.730 18.381317
62.735 18.684937
62.740 18.26366
62.745 17.812729
62.750 17.128721
62.755 17.366478
62.760 17.212666
62.765 17.03231
62.770 16.282772
62.775 16.270452
62.780 16.477001
62.785 16.387737
62.790 16.355005
62.795 17.26903
62.800 17.296534
62.805 17.668177
62.810 17.68639
62.815 16.935583
62.820 17.040569
62.825 16.765684
62.830 15.802463
62.835 15.594632
62.840 15.558861
62.845 16.400974
62.850 17.612629
62.855 18.05554
62.860 18.503347
62.865 18.590891
62.870 18.416096
62.875 18.151974
62.880 18.133066
62.885 17.737614
62.890 17.318016
62.895 16.83429
62.900 17.25629
62.905 17.923273
62.910 17.706066
62.915 17.067518
62.920 16.737925
62.925 16.82692
62.930 16.986132
62.935 16.489904
62.940 16.04616
62.945 16.668156
62.950 16.911852
62.955 16.810299
62.960 16.832497
62.965 16.535498
62.970 17.113665
62.975 17.752186
62.980 17.776386
62.985 18.164608
62.990 18.49551
62.995 18.97011
63.000 19.499252
63.005 19.069441
63.010 18.776308
63.015 18.607546
63.020 18.263535
63.025 17.952896
63.030 17.534851
63.035 17.44199
63.040 17.370874
63.045 17.472576
63.050 17.504395
63.055 17.735495
63.060 17.949305
63.065 17.603174
63.070 16.848782
63.075 16.844687
63.080 16.743448
63.085 16.290672
63.090 15.920493
63.095 16.027744
63.100 16.491688
63.105 16.981125
63.110 16.886271
63.115 16.758669
63.120 17.279877
63.125 17.479639
63.130 18.061071
63.135 18.118631
63.140 17.828169
63.145 17.58906
63.150 17.506802
63.155 16.988916
63.160 16.561131
63.165 15.791181
63.170 15.341913
63.175 15.473646
63.180 16.040682
63.185 16.002369
63.190 16.446358
63.195 16.606226
63.200 16.671349
63.205 16.809504
63.210 16.907515
63.215 16.541384
63.220 16.48967
63.225 16.542574
63.230 16.494381
63.235 16.491791
63.240 16.081322
63.245 15.738939
63.250 15.567361
63.255 15.655103
63.260 15.853533
63.265 16.18782
63.270 16.184578
63.275 16.588394
63.280 17.404322
63.285 18.466322
63.290 18.16608
63.295 18.063601
63.300 18.540245
63.305 18.835833
63.310 18.821543
63.315 18.468779
63.320 18.238266
63.325 18.618296
63.330 18.378492
63.335 18.442675
63.340 18.523857
63.345 18.49785
63.350 18.291615
63.355 18.38382
63.360 18.544567
63.365 18.186377
63.370 17.864433
63.375 18.115366
63.380 18.638426
63.385 18.878056
63.390 18.488626
63.395 18.43944
63.400 18.561323
63.405 17.925713
63.410 17.502535
63.415 17.543041
63.420 17.784822
63.425 18.52491
63.430 18.907061
63.435 19.35601
63.440 19.422295
63.445 19.609417
63.450 19.286678
63.455 18.855585
63.460 18.186968
63.465 17.924664
63.470 17.760517
63.475 18.363455
63.480 18.9109
63.485 19.110502
63.490 19.279076
63.495 19.643093
63.500 19.170322
63.505 18.897831
63.510 18.371027
63.515 17.627895
63.520 17.841524
63.525 18.30271
63.530 18.386395
63.535 18.978294
63.540 19.313055
63.545 19.191238
63.550 19.085436
63.555 18.487879
63.560 17.641779
63.565 17.875772
63.570 17.533079
63.575 17.71594
63.580 18.025812
63.585 18.072657
63.590 18.532261
63.595 18.622263
63.600 18.366964
63.605 18.805243
63.610 18.492678
63.615 18.915026
63.620 19.234877
63.625 18.967497
63.630 18.46147
63.635 18.181421
63.640 18.242311
63.645 18.357136
63.650 18.157726
63.655 18.329889
63.660 18.653137
63.665 18.865519
63.670 18.704283
63.675 18.25634
63.680 18.275066
63.685 17.967031
63.690 17.890581
63.695 17.771217
63.700 17.881443
63.705 18.326292
63.710 18.611603
63.715 18.299103
63.720 18.069176
63.725 17.838717
63.730 17.974148
63.735 18.505096
63.740 18.150459
63.745 17.787483
63.750 18.357477
63.755 18.626871
63.760 18.789452
63.765 18.905432
63.770 18.845196
63.775 19.048176
63.780 19.144293
63.785 18.737514
63.790 18.938807
63.795 19.086021
63.800 19.219152
63.805 18.471195
63.810 18.452223
63.815 18.663332
63.820 19.151945
63.825 19.270292
63.830 18.911074
63.835 18.768902
63.840 19.0051
63.845 18.544365
63.850 18.432678
63.855 17.730833
63.860 17.407734
63.865 17.756914
63.870 17.509758
63.875 17.781351
63.880 18.474346
63.885 18.847536
63.890 19.593302
63.895 19.617586
63.900 19.414848
63.905 19.486088
63.910 19.332209
63.915 18.985079
63.920 18.787418
63.925 18.68408
63.930 18.773499
63.935 18.909241
63.940 18.707155
63.945 19.628334
63.950 20.071505
63.955 20.065166
63.960 19.982176
63.965 20.166683
63.970 20.192392
63.975 20.642525
63.980 19.967051
63.985 20.139412
63.990 20.222937
63.995 20.3918
64.000 21.269154
64.005 22.376638
64.010 22.631863
64.015 23.535387
64.020 23.660582
64.025 23.33728
64.030 23.687059
64.035 23.079573
64.040 22.934122
64.045 22.979174
64.050 22.830011
64.055 22.535746
64.060 22.963268
64.065 22.74172
64.070 22.539993
64.075 21.886805
64.080 21.24728
64.085 20.505022
64.090 20.609961
64.095 20.203074
64.100 18.851334
64.105 18.345602
64.110 18.355417
64.115 18.759495
64.120 19.252018
64.125 19.444441
64.130 19.399975
64.135 20.263441
64.140 20.936195
64.145 21.451355
64.150 21.668386
64.155 21.639549
64.160 21.636112
64.165 22.205812
64.170 21.942902
64.175 21.682024
64.180 21.364594
64.185 21.340555
64.190 21.794935
64.195 22.413765
64.200 22.578686
64.205 22.638962
64.210 22.342049
64.215 22.47806
64.220 22.401735
64.225 22.108152
64.230 21.56444
64.235 21.040564
64.240 21.282961
64.245 21.295542
64.250 21.227186
64.255 21.096491
64.260 20.71986
64.265 20.704622
64.270 20.743042
64.275 20.415138
64.280 20.556099
64.285 20.568779
64.290 20.513676
64.295 20.470766
64.300 20.468798
64.305 20.544506
64.310 20.872011
64.315 21.189907
64.320 20.959381
64.325 20.410908
64.330 20.472843
64.335 20.46261
64.340 21.048912
64.345 20.981766
64.350 21.064859
64.355 21.174334
64.360 22.345314
64.365 22.908901
64.370 22.580761
64.375 21.931389
64.380 22.133226
64.385 22.006981
64.390 21.487022
64.395 20.260065
64.400 20.129549
64.405 21.08979
64.410 21.730064
64.415 21.420862
64.420 21.337067
64.425 22.203583
64.430 22.681744
64.435 22.76292
64.440 22.89743
64.445 22.916588
64.450 22.887411
64.455 23.069143
64.460 23.015692
64.465 22.943649
64.470 22.28672
64.475 21.738157
64.480 21.679241
64.485 21.472195
64.490 21.136307
64.495 21.143559
64.500 21.764305
64.505 22.011787
64.510 21.537062
64.515 21.016499
64.520 21.526466
64.525 21.812233
64.530 21.578751
64.535 21.223743
64.540 21.796295
64.545 22.314833
64.550 22.931149
64.555 22.418762
64.560 22.188316
64.565 22.13023
64.570 22.329039
64.575 22.31044
64.580 22.258841
64.585 22.240719
64.590 22.491459
64.595 22.418526
64.600 22.433495
64.605 21.282887
64.610 20.56579
64.615 19.895109
64.620 19.409399
64.625 19.622526
64.630 19.800117
64.635 19.975851
64.640 20.809719
64.645 21.026453
64.650 21.226912
64.655 21.518669
64.660 21.066153
64.665 20.767096
64.670 20.569092
64.675 20.940325
64.680 21.378017
64.685 21.740227
64.690 21.64711
64.695 22.184258
64.700 22.247416
64.705 22.47714
64.710 22.735365
64.715 23.054829
64.720 23.428596
64.725 23.508814
64.730 23.641785
64.735 24.242916
64.740 24.275982
64.745 23.766924
64.750 23.728954
64.755 23.362635
64.760 23.936687
64.765 24.146441
64.770 24.049755
64.775 23.522121
64.780 22.521193
64.785 22.254827
64.790 22.36101
64.795 21.820419
64.800 21.855711
64.805 21.536619
64.810 21.889317
64.815 22.398151
64.820 22.073994
64.825 21.669001
64.830 21.958578
64.835 21.806072
64.840 21.660282
64.845 22.047371
64.850 22.322792
64.855 22.341825
64.860 22.233801
64.865 21.211723
64.870 20.841194
64.875 21.301258
64.880 20.726799
64.885 20.753696
64.890 20.963959
64.895 21.078802
64.900 21.665615
64.905 21.908154
64.910 21.806883
64.915 21.961958
64.920 22.014097
64.925 21.777184
64.930 21.834299
64.935 21.534191
64.940 20.952097
64.945 20.940722
64.950 21.113337
64.955 21.301414
64.960 21.69025
64.965 22.324459
64.970 22.948793
64.975 23.335073
64.980 23.451244
64.985 23.502247
64.990 22.786861
64.995 22.545916
65.000 22.408125
65.005 22.06658
65.010 22.016039
65.015 22.804024
65.020 23.663328
65.025 24.569595
65.030 24.909794
65.035 25.014179
65.040 25.441162
65.045 25.377691
65.050 24.545044
65.055 23.194666
65.060 22.93387
65.065 22.899994
65.070 23.014193
65.075 23.460825
65.080 23.92874
65.085 24.151155
65.090 24.272467
65.095 24.142763
65.100 24.052872
65.105 23.544159
65.110 22.828274
65.115 22.367384
65.120 21.868771
65.125 22.280287
65.130 22.206591
65.135 21.82165
65.140 21.853836
65.145 22.045885
65.150 22.414734
65.155 23.475851
65.160 24.191767
65.165 24.121437
65.170 24.219479
65.175 24.066723
65.180 24.053226
65.185 24.155159
65.190 24.206034
65.195 23.445831
65.200 23.809242
65.205 23.799582
65.210 24.327833
65.215 24.466389
65.220 24.223831
65.225 24.159035
65.230 25.225128
65.235 25.70854
65.240 26.2293
65.245 26.068203
65.250 26.276802
65.255 26.72249
65.260 26.206978
65.265 25.074425
65.270 24.446861
65.275 24.711729
65.280 25.536671
65.285 25.478096
65.290 24.638288
65.295 24.391737
65.300 24.462734
65.305 24.188597
65.310 23.756163
65.315 22.98333
65.320 23.1532
65.325 23.539507
65.330 23.913013
65.335 24.046957
65.340 24.859707
65.345 24.900658
65.350 24.89007
65.355 24.820787
65.360 24.939669
65.365 25.107126
65.370 25.364786
65.375 25.099775
65.380 24.689907
65.385 24.695061
65.390 24.565872
65.395 24.222036
65.400 23.897301
65.405 23.186674
65.410 22.722101
65.415 23.295954
65.420 22.802773
65.425 22.663319
65.430 22.996267
65.435 23.60067
65.440 24.187567
65.445 24.72307
65.450 24.968948
65.455 25.511988
65.460 25.516537
65.465 25.750927
65.470 25.529957
65.475 24.939276
65.480 25.25292
65.485 24.95647
65.490 25.11651
65.495 25.637444
65.500 25.341469
65.505 25.464613
65.510 26.281574
65.515 26.362541
65.520 26.356071
65.525 26.674961
65.530 26.563385
65.535 26.819714
65.540 26.779308
65.545 26.159733
65.550 26.107193
65.555 26.66501
65.560 26.465952
65.565 26.381779
65.570 26.421253
65.575 26.249445
65.580 27.944679
65.585 28.772512
65.590 28.313047
65.595 28.689365
65.600 29.144909
65.605 29.593603
65.610 29.900723
65.615 28.518442
65.620 27.922764
65.625 28.02396
65.630 27.951349
65.635 27.847433
65.640 27.955132
65.645 28.662754
65.650 29.128405
65.655 29.269316
65.660 29.583673
65.665 29.494656
65.670 29.299776
65.675 29.554655
65.680 30.114033
65.685 30.122646
65.690 30.362215
65.695 30.434381
65.700 30.723515
65.705 31.421387
65.710 30.926249
65.715 30.132174
65.720 30.249166
65.725 30.5291
65.730 31.137409
65.735 31.176216
65.740 31.389288
65.745 31.532558
65.750 31.977995
65.755 32.458637
65.760 32.715508
65.765 32.391899
65.770 32.020889
65.775 31.515821
65.780 31.852777
65.785 31.855585
65.790 32.30109
65.795 32.921814
65.800 33.195431
65.805 33.340965
65.810 33.157032
65.815 33.35379
65.820 33.777481
65.825 32.844894
65.830 32.580765
65.835 33.340584
65.840 34.239006
65.845 34.763199
65.850 35.373344
65.855 36.104107
65.860 37.121536
65.865 37.077076
65.870 36.431671
65.875 36.399586
65.880 36.733971
65.885 35.919018
65.890 35.318085
65.895 34.45895
65.900 34.411263
65.905 35.275761
65.910 35.5121
65.915 35.828487
65.920 36.550522
65.925 37.7976
65.930 39.307163
65.935 39.644024
65.940 39.190891
65.945 39.488514
65.950 39.945606
65.955 39.490955
65.960 39.149769
65.965 38.486629
65.970 38.95829
65.975 39.567959
65.980 39.224575
65.985 38.557232
65.990 38.987442
65.995 39.221813
66.000 39.454784
66.005 39.491199
66.010 39.427635
66.015 39.658546
66.020 39.640789
66.025 39.401062
66.030 39.116585
66.035 38.974701
66.040 38.024742
66.045 38.249008
66.050 38.566795
66.055 38.134022
66.060 37.832138
66.065 38.379391
66.070 39.034943
66.075 39.517555
66.080 38.797691
66.085 38.665779
66.090 38.667988
66.095 38.962036
66.100 38.587208
66.105 38.415428
66.110 38.813381
66.115 39.062294
66.120 39.113071
66.125 39.768394
66.130 39.548393
66.135 39.215714
66.140 37.794991
66.145 37.071991
66.150 37.287521
66.155 37.609276
66.160 37.457474
66.165 37.41592
66.170 38.283699
66.175 39.493038
66.180 39.40873
66.185 39.129047
66.190 38.721741
66.195 38.689941
66.200 38.642651
66.205 38.343132
66.210 37.711746
66.215 37.438435
66.220 37.40625
66.225 37.003525
66.230 36.436222
66.235 37.214172
66.240 36.636147
66.245 37.447922
66.250 37.679111
66.255 37.717339
66.260 38.704567
66.265 38.673164
66.270 38.202187
66.275 38.955524
66.280 38.931129
66.285 39.208012
66.290 39.720806
66.295 39.72681
66.300 40.200222
66.305 40.166225
66.310 39.026772
66.315 38.447578
66.320 37.808357
66.325 37.283123
66.330 36.842239
66.335 36.770706
66.340 35.8139
66.345 35.912903
66.350 36.037884
66.355 36.097691
66.360 35.759209
66.365 35.356464
66.370 34.591827
66.375 34.442341
66.380 33.704865
66.385 33.331989
66.390 32.899387
66.395 32.134605
66.400 32.263039
66.405 32.351959
66.410 32.503723
66.415 32.418045
66.420 32.081848
66.425 32.200226
66.430 32.38818
66.435 32.285297
66.440 32.226131
66.445 30.893311
66.450 31.104704
66.455 31.312195
66.460 30.699022
66.465 31.006929
66.470 31.199121
66.475 31.024837
66.480 31.049973
66.485 30.25284
66.490 29.413893
66.495 28.850624
66.500 28.252277
66.505 27.6798
66.510 28.347561
66.515 28.93787
66.520 29.284428
66.525 29.610149
66.530 29.465755
66.535 29.518768
66.540 29.198051
66.545 28.754469
66.550 28.938059
66.555 28.642534
66.560 28.219902
66.565 28.397739
66.570 27.841757
66.575 27.298229
66.580 26.543434
66.585 25.6194
66.590 25.72434
66.595 26.506523
66.600 26.155912
66.605 25.7647
66.610 25.584749
66.615 25.379541
66.620 25.25388
66.625 24.76988
66.630 23.896597
66.635 23.442949
66.640 24.018986
66.645 24.454548
66.650 24.715748
66.655 24.447519
66.660 23.999023
66.665 23.548546
66.670 23.21101
66.675 22.557268
66.680 22.356689
66.685 21.954931
66.690 22.058512
66.695 21.887682
66.700 21.913502
66.705 22.75
66.710 22.976059
66.715 22.496906
66.720 22.623766
66.725 22.111404
66.730 22.172379
66.735 22.585657
66.740 22.019251
66.745 21.780354
66.750 21.847662
66.755 21.75363
66.760 21.896059
66.765 21.876114
66.770 21.705339
66.775 21.41857
66.780 21.108988
66.785 21.115385
66.790 20.700714
66.795 20.446815
66.800 20.784809
66.805 20.334644
66.810 20.227598
66.815 21.005764
66.820 21.171144
66.825 22.232189
66.830 22.878195
66.835 22.418001
66.840 23.155596
66.845 23.456011
66.850 23.085217
66.855 22.782021
66.860 21.801491
66.865 21.417505
66.870 21.402098
66.875 21.441723
66.880 21.873571
66.885 22.177843
66.890 22.207392
66.895 21.172361
66.900 20.16361
66.905 19.80368
66.910 19.308573
66.915 18.834995
66.920 18.070774
66.925 17.885323
66.930 18.401073
66.935 18.73093
66.940 19.364082
66.945 20.021736
66.950 20.722357
66.955 21.098232
66.960 21.080379
66.965 21.59082
66.970 22.216324
66.975 21.894522
66.980 20.910612
66.985 20.380329
66.990 20.215801
66.995 20.207426
67.000 20.039473
67.005 20.157406
67.010 20.173227
67.015 20.061459
67.020 20.331495
67.025 20.294819
67.030 20.760752
67.035 20.733278
67.040 20.528421
67.045 20.333059
67.050 20.325842
67.055 20.425676
67.060 20.565004
67.065 20.70463
67.070 20.65963
67.075 21.259142
67.080 21.46258
67.085 21.370989
67.090 21.303041
67.095 21.044821
67.100 20.59478
67.105 20.820234
67.110 20.205656
67.115 20.065569
67.120 20.816328
67.125 20.984838
67.130 21.034264
67.135 21.480833
67.140 21.358913
67.145 21.49474
67.150 21.711212
67.155 21.201048
67.160 21.192297
67.165 21.349785
67.170 21.625607
67.175 21.567575
67.180 21.346289
67.185 21.104374
67.190 21.415104
67.195 21.661926
67.200 21.879038
67.205 21.534458
67.210 21.265396
67.215 21.801455
67.220 21.40888
67.225 21.001011
67.230 20.722816
67.235 20.893646
67.240 20.947832
67.245 21.11441
67.250 20.89715
67.255 21.009499
67.260 20.772003
67.265 20.334042
67.270 20.000193
67.275 20.053635
67.280 19.766569
67.285 19.682417
67.290 19.12064
67.295 19.609594
67.300 19.817629
67.305 19.606644
67.310 19.50721
67.315 20.417776
67.320 20.921328
67.325 21.90575
67.330 21.993435
67.335 22.212254
67.340 22.019695
67.345 22.231916
67.350 21.487267
67.355 21.439785
67.360 21.307451
67.365 20.873903
67.370 21.065699
67.375 21.386032
67.380 21.095451
67.385 20.757412
67.390 20.209543
67.395 20.482954
67.400 20.839348
67.405 20.851027
67.410 21.407373
67.415 21.302736
67.420 21.790382
67.425 21.834293
67.430 21.2281
67.435 21.09437
67.440 21.058241
67.445 20.458502
67.450 20.313673
67.455 19.965654
67.460 19.632092
67.465 19.620968
67.470 19.60026
67.475 19.270639
67.480 19.229858
67.485 19.434254
67.490 19.671213
67.495 19.896046
67.500 20.646875
67.505 20.879576
67.510 20.422527
67.515 20.472889
67.520 20.239758
67.525 19.977503
67.530 19.671934
67.535 18.793468
67.540 18.774508
67.545 19.105978
67.550 19.492691
67.555 20.061981
67.560 20.834959
67.565 20.816193
67.570 20.336004
67.575 20.163311
67.580 20.198448
67.585 19.805063
67.590 19.594336
67.595 18.908934
67.600 18.58732
67.605 18.750156
67.610 18.319214
67.615 17.971134
67.620 17.960901
67.625 17.623049
67.630 18.013777
67.635 18.815474
67.640 19.082678
67.645 19.887617
67.650 20.129366
67.655 20.115948
67.660 20.343849
67.665 20.390276
67.670 19.773254
67.675 19.104164
67.680 18.903378
67.685 19.230709
67.690 19.647104
67.695 19.668127
67.700 19.715622
67.705 20.177753
67.710 20.56497
67.715 20.27113
67.720 20.067682
67.725 20.469492
67.730 20.480898
67.735 20.375456
67.740 20.642725
67.745 20.586996
67.750 20.972145
67.755 20.788105
67.760 20.413403
67.765 19.983997
67.770 19.740664
67.775 19.083027
67.780 19.027048
67.785 18.384092
67.790 18.395491
67.795 17.918978
67.800 18.663685
67.805 19.067587
67.810 19.857897
67.815 19.618237
67.820 19.869781
67.825 19.910692
67.830 19.931301
67.835 19.763901
67.840 19.782663
67.845 19.793259
67.850 19.801701
67.855 20.355482
67.860 20.685274
67.865 21.074312
67.870 20.98522
67.875 20.843466
67.880 20.624662
67.885 20.860588
67.890 20.520046
67.895 20.342932
67.900 20.388193
67.905 20.941376
67.910 20.967451
67.915 20.571823
67.920 20.338758
67.925 20.090487
67.930 20.300201
67.935 20.601824
67.940 20.270306
67.945 20.195198
67.950 20.513515
67.955 20.376295
67.960 20.16897
67.965 19.858892
67.970 19.715937
67.975 20.172216
67.980 20.669395
67.985 20.713684
67.990 21.089344
67.995 21.209482
68.000 20.479723
68.005 19.316236
68.010 18.557167
68.015 18.468975
68.020 18.800446
68.025 18.718716
68.030 18.996225
68.035 19.921171
68.040 19.967247
68.045 19.756943
68.050 19.855
68.055 19.558451
68.060 19.359444
68.065 18.636293
68.070 17.931425
68.075 18.724438
68.080 18.827276
68.085 18.754229
68.090 18.750189
68.095 19.201765
68.100 19.489624
68.105 19.857651
68.110 19.657125
68.115 19.937876
68.120 19.570271
68.125 19.413267
68.130 18.985638
68.135 19.319149
68.140 20.007978
68.145 19.789175
68.150 20.311852
68.155 20.639618
68.160 20.356409
68.165 20.899061
68.170 21.105814
68.175 20.596266
68.180 20.79283
68.185 19.966457
68.190 20.01689
68.195 20.763582
68.200 20.433287
68.205 20.156778
68.210 20.543503
68.215 20.446936
68.220 20.28554
68.225 19.99774
68.230 19.783268
68.235 19.864466
68.240 19.775522
68.245 19.437258
68.250 19.205603
68.255 19.060276
68.260 19.914442
68.265 20.279486
68.270 20.068308
68.275 19.98049
68.280 19.942835
68.285 20.37351
68.290 20.334793
68.295 19.441385
68.300 18.792789
68.305 18.573133
68.310 18.717094
68.315 18.597799
68.320 18.90473
68.325 19.12398
68.330 19.71718
68.335 20.595764
68.340 21.04973
68.345 21.240101
68.350 21.638264
68.355 21.631239
68.360 22.061354
68.365 22.169691
68.370 21.604736
68.375 21.462246
68.380 21.040234
68.385 20.636095
68.390 20.523195
68.395 20.054876
68.400 19.410162
68.405 19.457703
68.410 19.575676
68.415 19.793419
68.420 19.919474
68.425 20.354288
68.430 21.338306
68.435 21.616861
68.440 21.644903
68.445 21.757036
68.450 22.038601
68.455 22.515617
68.460 22.047806
68.465 21.103624
68.470 21.197849
68.475 21.09606
68.480 20.491339
68.485 19.992107
68.490 19.551439
68.495 19.242105
68.500 19.540277
68.505 19.599258
68.510 19.752449
68.515 20.038572
68.520 19.490715
68.525 20.110886
68.530 20.592642
68.535 20.700541
68.540 20.633944
68.545 21.118086
68.550 21.832375
68.555 21.886032
68.560 21.522091
68.565 21.190569
68.570 21.363169
68.575 21.875843
68.580 21.416664
68.585 21.710089
68.590 22.134756
68.595 22.826286
68.600 22.332918
68.605 22.119223
68.610 21.696293
68.615 21.863596
68.620 21.575403
68.625 21.191135
68.630 21.028605
68.635 22.094921
68.640 22.199146
68.645 22.364859
68.650 21.921839
68.655 21.784668
68.660 21.549358
68.665 20.880259
68.670 20.171377
68.675 19.908051
68.680 19.836126
68.685 20.363625
68.690 21.125654
68.695 22.545698
68.700 22.729229
68.705 22.660469
68.710 23.441139
68.715 23.742445
68.720 23.911165
68.725 23.376236
68.730 22.821625
68.735 22.80401
68.740 22.658489
68.745 22.228609
68.750 22.057861
68.755 21.468037
68.760 21.455059
68.765 21.374285
68.770 21.72028
68.775 21.517431
68.780 20.948606
68.785 21.058086
68.790 21.645826
68.795 22.116259
68.800 22.396427
68.805 22.881956
68.810 23.955877
68.815 24.388346
68.820 23.743233
68.825 23.665274
68.830 23.182505
68.835 22.754953
68.840 22.227182
68.845 21.79187
68.850 21.716528
68.855 22.111319
68.860 21.77384
68.865 22.418798
68.870 22.573912
68.875 22.677986
68.880 22.640314
68.885 23.067661
68.890 23.148981
68.895 23.279312
68.900 23.104315
68.905 23.774113
68.910 23.595076
68.915 23.763271
68.920 23.376749
68.925 23.37096
68.930 23.727684
68.935 23.511198
68.940 23.135836
68.945 22.79216
68.950 22.518507
68.955 22.535238
68.960 21.990299
68.965 21.168829
68.970 21.541567
68.975 22.028522
68.980 22.512688
68.985 22.855902
68.990 23.328339
68.995 23.701357
69.000 24.077612
69.005 23.779938
69.010 23.639297
69.015 23.530178
69.020 22.955297
69.025 22.928186
69.030 23.64118
69.035 24.312786
69.040 24.416628
69.045 24.684654
69.050 25.07613
69.055 25.818739
69.060 25.946884
69.065 25.740894
69.070 25.917744
69.075 25.810863
69.080 25.543589
69.085 25.648092
69.090 25.558546
69.095 26.089134
69.100 26.885881
69.105 26.751326
69.110 26.968401
69.115 27.614361
69.120 28.33453
69.125 28.613274
69.130 28.350946
69.135 28.032824
69.140 28.574915
69.145 28.790052
69.150 28.529167
69.155 28.472433
69.160 28.401028
69.165 28.686504
69.170 28.989096
69.175 29.902065
69.180 30.088837
69.185 29.711166
69.190 29.230846
69.195 28.901289
69.200 27.594746
69.205 26.59297
69.210 25.44314
69.215 25.211811
69.220 25.526999
69.225 26.05905
69.230 26.87179
69.235 27.568577
69.240 28.414993
69.245 28.950127
69.250 29.197809
69.255 29.065495
69.260 29.231081
69.265 29.590466
69.270 29.872305
69.275 29.802563
69.280 29.320189
69.285 30.4051
69.290 30.64546
69.295 29.76849
69.300 29.824221
69.305 30.080442
69.310 30.727133
69.315 32.133846
69.320 31.906792
69.325 32.158791
69.330 32.281387
69.335 32.221889
69.340 32.314823
69.345 32.792736
69.350 32.454823
69.355 32.271751
69.360 31.897198
69.365 32.280567
69.370 32.199875
69.375 31.798119
69.380 31.503225
69.385 31.956297
69.390 32.392025
69.395 32.916954
69.400 33.155277
69.405 32.957359
69.410 33.408386
69.415 32.985344
69.420 32.263683
69.425 32.52549
69.430 32.836243
69.435 32.918571
69.440 33.088467
69.445 32.66396
69.450 32.808613
69.455 33.746441
69.460 33.255173
69.465 32.193661
69.470 32.409012
69.475 32.223705
69.480 31.590855
69.485 30.848793
69.490 30.408955
69.495 30.944309
69.500 31.597868
69.505 32.231602
69.510 32.525311
69.515 33.111328
69.520 33.518127
69.525 33.202065
69.530 32.674759
69.535 31.773645
69.540 31.231998
69.545 30.821333
69.550 30.385012
69.555 30.369844
69.560 30.067463
69.565 30.215408
69.570 30.481678
69.575 30.041348
69.580 29.748838
69.585 30.38483
69.590 30.361298
69.595 30.610023
69.600 30.402584
69.605 29.950859
69.610 29.970919
69.615 30.160978
69.620 30.483608
69.625 30.769735
69.630 31.480698
69.635 31.848829
69.640 32.464935
69.645 32.04174
69.650 31.73562
69.655 30.769211
69.660 30.285748
69.665 29.549383
69.670 29.176367
69.675 29.07782
69.680 29.283243
69.685 29.0488
69.690 28.992823
69.695 28.493282
69.700 29.021475
69.705 29.004665
69.710 29.634245
69.715 30.315187
69.720 30.492258
69.725 29.996704
69.730 29.777245
69.735 29.883005
69.740 29.378443
69.745 28.949562
69.750 29.29599
69.755 28.851917
69.760 29.567055
69.765 29.480116
69.770 28.536568
69.775 28.745619
69.780 28.966553
69.785 28.832958
69.790 28.851156
69.795 28.572266
69.800 29.116783
69.805 29.31179
69.810 28.315832
69.815 27.442392
69.820 27.146599
69.825 27.0459
69.830 27.389713
69.835 26.651596
69.840 26.254673
69.845 26.521868
69.850 26.422644
69.855 26.200781
69.860 25.468
69.865 24.663994
69.870 24.746136
69.875 25.00923
69.880 24.92205
69.885 24.600576
69.890 24.146465
69.895 23.420551
69.900 23.348721
69.905 22.91791
69.910 22.691454
69.915 23.009621
69.920 22.938705
69.925 23.328596
69.930 23.755075
69.935 24.456486
69.940 24.731598
69.945 24.180599
69.950 23.814566
69.955 24.67087
69.960 24.871868
69.965 24.895573
69.970 24.255711
69.975 23.72785
69.980 23.953405
69.985 23.618351
69.990 23.166046
69.995 22.675077
70.000 22.783621
70.005 22.736979
70.010 23.165545
70.015 22.915451
70.020 23.427076
70.025 23.598444
70.030 24.131485
70.035 23.815708
70.040 23.904148
70.045 23.863665
70.050 24.030125
70.055 23.561567
70.060 23.344889
70.065 23.183176
70.070 23.189032
70.075 22.801531
70.080 22.702621
70.085 22.397285
70.090 22.215277
70.095 21.946522
70.100 21.823082
70.105 21.456606
70.110 21.619982
70.115 21.602037
70.120 21.253107
70.125 21.293022
70.130 21.332703
70.135 21.060616
70.140 21.387247
70.145 21.51458
70.150 21.240496
70.155 21.120415
70.160 20.979364
70.165 20.789906
70.170 20.207933
70.175 19.688625
70.180 19.654654
70.185 19.927532
70.190 20.062361
70.195 19.693979
70.200 19.704021
70.205 20.23385
70.210 19.890261
70.215 20.17798
70.220 19.709427
70.225 19.532267
70.230 20.082376
70.235 19.982006
70.240 20.233913
70.245 20.739552
70.250 20.565395
70.255 21.246737
70.260 21.203703
70.265 20.769842
70.270 21.265135
70.275 21.047247
70.280 20.557199
70.285 19.923439
70.290 19.675713
70.295 19.705864
70.300 19.870275
70.305 19.224472
70.310 18.802965
70.315 19.31982
70.320 19.734032
70.325 20.059605
70.330 19.961752
70.335 19.605844
70.340 19.7794
70.345 20.604397
70.350 20.925734
70.355 20.378799
70.360 20.172726
70.365 20.110277
70.370 20.423918
70.375 20.168999
70.380 19.560698
70.385 19.527811
70.390 19.749439
70.395 19.107758
70.400 19.206018
70.405 19.634958
70.410 19.572382
70.415 19.226027
70.420 18.731556
70.425 18.545561
70.430 18.916098
70.435 18.526339
70.440 17.917542
70.445 17.579563
70.450 17.696611
70.455 18.469587
70.460 18.434124
70.465 18.639669
70.470 19.203409
70.475 19.308058
70.480 19.750847
70.485 19.340502
70.490 19.057909
70.495 19.477055
70.500 19.544044
70.505 19.550634
70.510 19.49173
70.515 20.000093
70.520 20.2383
70.525 19.959778
70.530 19.834608
70.535 19.727543
70.540 19.900414
70.545 21.209623
70.550 21.108742
70.555 21.559414
70.560 22.123636
70.565 22.058107
70.570 21.259815
70.575 20.550787
70.580 19.698227
70.585 19.386766
70.590 19.075109
70.595 18.516888
70.600 18.625656
70.605 19.604755
70.610 19.705587
70.615 19.752092
70.620 19.923498
70.625 20.077888
70.630 19.544966
70.635 19.143518
70.640 18.659452
70.645 18.904957
70.650 18.533108
70.655 17.764854
70.660 18.151905
70.665 18.520004
70.670 18.375996
70.675 18.104012
70.680 18.017643
70.685 17.927151
70.690 18.082932
70.695 18.082453
70.700 18.774858
70.705 18.726057
70.710 18.303606
70.715 18.255526
70.720 18.720879
70.725 18.722729
70.730 18.311232
70.735 17.802004
70.740 17.857134
70.745 17.823763
70.750 17.892103
70.755 17.813185
70.760 17.808691
70.765 18.075836
70.770 18.758442
70.775 19.260756
70.780 19.593124
70.785 19.361385
70.790 19.178755
70.795 19.179968
70.800 18.707764
70.805 18.779089
70.810 19.088091
70.815 18.931801
70.820 19.873688
70.825 20.313643
70.830 20.573229
70.835 20.630753
70.840 20.216867
70.845 20.499073
70.850 20.346371
70.855 19.803293
70.860 19.151184
70.865 19.417696
70.870 19.586191
70.875 20.040737
70.880 19.777998
70.885 19.434517
70.890 19.674597
70.895 20.281691
70.900 19.900459
70.905 19.508629
70.910 18.781811
70.915 18.571917
70.920 18.73843
70.925 18.130775
70.930 17.977604
70.935 17.632973
70.940 17.492958
70.945 17.854979
70.950 18.32041
70.955 18.797932
70.960 19.00481
70.965 19.221357
70.970 19.797878
70.975 20.062878
70.980 20.292711
70.985 19.617071
70.990 19.182175
70.995 19.646181
71.000 19.596478
71.005 19.461487
71.010 19.047253
71.015 18.850643
71.020 19.47628
71.025 19.493542
71.030 18.855789
71.035 18.756227
71.040 18.863741
71.045 19.158957
71.050 19.217821
71.055 18.778564
71.060 18.481323
71.065 18.579777
71.070 18.894506
71.075 18.659679
71.080 18.393616
71.085 18.363672
71.090 18.583921
71.095 19.268688
71.100 18.983654
71.105 18.256981
71.110 18.743595
71.115 18.947006
71.120 19.124687
71.125 19.305061
71.130 19.097488
71.135 19.133369
71.140 19.455589
71.145 18.557037
71.150 18.201561
71.155 17.988113
71.160 17.966181
71.165 17.851696
71.170 18.115767
71.175 18.188145
71.180 18.316542
71.185 18.016438
71.190 18.174969
71.195 18.589016
71.200 19.2754
71.205 19.40304
71.210 19.476734
71.215 20.485865
71.220 20.964752
71.225 20.806137
71.230 20.154848
71.235 19.592997
71.240 19.222569
71.245 19.271852
71.250 18.740292
71.255 19.009254
71.260 18.603605
71.265 18.886652
71.270 19.277163
71.275 19.393999
71.280 19.261564
71.285 18.855217
71.290 18.537985
71.295 18.942286
71.300 18.702703
71.305 18.591742
71.310 18.335791
71.315 18.330564
71.320 18.714275
71.325 18.757385
71.330 18.500132
71.335 18.445309
71.340 18.620369
71.345 19.02562
71.350 19.3573
71.355 18.779057
71.360 18.92313
71.365 18.810112
71.370 18.705894
71.375 18.87578
71.380 18.503536
71.385 18.413145
71.390 19.002422
71.395 18.864153
71.400 18.981148
71.405 18.151054
71.410 17.960039
71.415 18.359859
71.420 18.02581
71.425 18.410326
71.430 18.440266
71.435 19.249931
71.440 19.893148
71.445 19.778555
71.450 19.765028
71.455 20.227575
71.460 19.804131
71.465 19.764227
71.470 19.648493
71.475 19.15682
71.480 19.018105
71.485 18.918283
71.490 18.618877
71.495 18.581505
71.500 18.056614
71.505 17.890001
71.510 18.096827
71.515 17.712486
71.520 17.50168
71.525 17.448116
71.530 17.817604
71.535 18.265011
71.540 18.198095
71.545 18.631105
71.550 19.102762
71.555 19.375629
71.560 19.115921
71.565 18.55839
71.570 18.328413
71.575 17.418585
71.580 17.747637
71.585 18.282261
71.590 17.855721
71.595 18.134523
71.600 17.97505
71.605 18.434126
71.610 19.053328
71.615 18.384315
71.620 17.796328
71.625 17.955418
71.630 17.876268
71.635 18.604612
71.640 19.26833
71.645 19.266161
71.650 19.053162
71.655 18.837416
71.660 18.650572
71.665 18.477146
71.670 18.592678
71.675 18.356432
71.680 19.073576
71.685 19.154902
71.690 19.378139
71.695 19.720869
71.700 19.687275
71.705 19.328438
71.710 19.044062
71.715 18.829229
71.720 19.300732
71.725 18.981693
71.730 19.462469
71.735 19.280186
71.740 19.596384
71.745 20.197987
71.750 20.043554
71.755 20.026495
71.760 19.972446
71.765 19.55806
71.770 19.343613
71.775 18.847912
71.780 18.175694
71.785 18.331268
71.790 18.46726
71.795 18.641333
71.800 18.71048
71.805 19.456043
71.810 19.689186
71.815 19.31201
71.820 18.883898
71.825 18.726521
71.830 18.969688
71.835 18.930882
71.840 18.171175
71.845 18.13661
71.850 18.362932
71.855 18.127823
71.860 17.956642
71.865 18.722576
71.870 19.023178
71.875 19.572199
71.880 19.30938
71.885 20.03171
71.890 20.105522
71.895 20.249996
71.900 19.944592
71.905 19.543606
71.910 19.193811
71.915 18.786602
71.920 18.598419
71.925 18.646044
71.930 18.249632
71.935 17.654669
71.940 17.628839
71.945 17.681656
71.950 18.003382
71.955 17.464624
71.960 17.23609
71.965 16.98712
71.970 16.537352
71.975 16.452427
71.980 16.688362
71.985 17.20715
71.990 17.826231
71.995 18.134947
72.000 18.553307
72.005 18.560535
72.010 18.392651
72.015 18.097628
72.020 17.901293
72.025 17.511734
72.030 17.325373
72.035 17.973026
72.040 18.749119
72.045 18.882093
72.050 18.802187
72.055 18.519218
72.060 18.740891
72.065 18.820999
72.070 18.079597
72.075 17.850941
72.080 17.572382
72.085 17.901138
72.090 18.257988
72.095 17.923027
72.100 17.716185
72.105 17.519703
72.110 17.790266
72.115 17.539051
72.120 17.341455
72.125 17.235382
72.130 17.665886
72.135 18.455086
72.140 18.490025
72.145 18.268114
72.150 18.448765
72.155 18.750149
72.160 18.617815
72.165 18.000248
72.170 17.108244
72.175 17.69651
72.180 18.49
72.185 18.206341
72.190 18.035816
72.195 18.546141
72.200 19.078415
72.205 19.490221
72.210 18.769476
72.215 17.840872
72.220 17.583193
72.225 17.732809
72.230 17.677603
72.235 17.048218
72.240 17.099064
72.245 16.828478
72.250 17.107433
72.255 17.108686
72.260 17.005106
72.265 17.425463
72.270 17.62417
72.275 17.597946
72.280 18.041483
72.285 17.708685
72.290 17.531197
72.295 17.201742
72.300 16.847227
72.305 16.920385
72.310 16.940475
72.315 17.197174
72.320 17.41296
72.325 17.300859
72.330 17.357914
72.335 17.416927
72.340 16.94243
72.345 16.648251
72.350 16.145506
72.355 16.91037
72.360 17.562408
72.365 17.884706
72.370 18.235413
72.375 18.513411
72.380 18.937931
72.385 19.482964
72.390 19.014631
72.395 18.440712
72.400 18.084522
72.405 17.733242
72.410 18.116142
72.415 18.02825
72.420 17.839159
72.425 17.722691
72.430 17.974499
72.435 18.051901
72.440 18.225851
72.445 17.628899
72.450 17.49634
72.455 17.587214
72.460 17.39591
72.465 17.47666
72.470 17.684195
72.475 17.843035
72.480 18.423166
72.485 18.027063
72.490 18.307108
72.495 18.765303
72.500 18.283567
72.505 18.153467
72.510 18.449167
72.515 18.715368
72.520 18.638611
72.525 18.580465
72.530 18.635307
72.535 18.644091
72.540 18.422823
72.545 17.85046
72.550 18.292074
72.555 18.940784
72.560 19.154919
72.565 19.113998
72.570 19.003544
72.575 18.738924
72.580 18.799704
72.585 18.73995
72.590 18.386772
72.595 17.968687
72.600 18.406809
72.605 18.986988
72.610 18.98225
72.615 18.348551
72.620 18.313725
72.625 18.428471
72.630 18.162992
72.635 17.608438
72.640 17.909748
72.645 17.837994
72.650 17.851904
72.655 17.459223
72.660 17.714764
72.665 17.594839
72.670 17.620373
72.675 17.304758
72.680 17.749601
72.685 18.13731
72.690 18.227768
72.695 18.138859
72.700 18.617908
72.705 18.619778
72.710 18.613916
72.715 18.245859
72.720 17.858093
72.725 17.775883
72.730 17.617294
72.735 17.583055
72.740 17.089119
72.745 17.2304
72.750 17.15053
72.755 16.918671
72.760 17.521214
72.765 17.443296
72.770 17.787853
72.775 17.826332
72.780 17.848614
72.785 18.276468
72.790 18.068272
72.795 17.55706
72.800 17.759766
72.805 17.773314
72.810 18.138926
72.815 18.10008
72.820 18.45804
72.825 18.708344
72.830 18.488091
72.835 18.737642
72.840 18.343662
72.845 18.044088
72.850 17.58577
72.855 16.807644
72.860 16.674793
72.865 16.147821
72.870 16.373013
72.875 16.889881
72.880 16.842403
72.885 17.090422
72.890 17.788906
72.895 18.058933
72.900 18.167622
72.905 17.824036
72.910 17.593348
72.915 16.843037
72.920 16.927698
72.925 16.919931
72.930 17.947609
72.935 17.930176
72.940 17.626822
72.945 18.237085
72.950 18.382431
72.955 18.192755
72.960 17.786442
72.965 17.457203
72.970 17.58186
72.975 17.467176
72.980 17.639507
72.985 17.755909
72.990 17.47735
72.995 16.566412
73.000 16.211443
