!@!!GADDS PLOTSO FILE: Chi integration type
!@!!Title/SampleName: map-45
!@!!Comment: ?
!@!!User: Bruker Instrument Administrator
!@!!Site: University of Illinois Chicago
!@!!Frame: map-45_01_000.gfrm
!@!!Wavelengths    1.54184   1.54056   1.54439
!@!!Frame angles: 2Theta: 63.000 Omega: 50.000 Phi: 0.000 Chi: 90.000
!@!!Integration range: 2Theta: 53.000 to 73.000  Gamma: -105.000 to -75.000
!@!!Integration method: bin normalized
!@!N
!@!SS
!@!M
!@!L 0.0 0.0 0.0 0.0
!@!XDegrees
!@!YCounts
53.000 10.273315
53.005 9.888626
53.010 9.580712
53.015 9.625283
53.020 9.672031
53.025 9.677913
53.030 9.649811
53.035 9.724223
53.040 10.23156
53.045 10.281382
53.050 10.330381
53.055 10.053036
53.060 10.19954
53.065 10.158316
53.070 10.026881
53.075 9.709338
53.080 9.727345
53.085 9.830546
53.090 10.148365
53.095 10.492867
53.100 10.802863
53.105 10.99319
53.110 10.863918
53.115 10.982991
53.120 11.077814
53.125 10.909754
53.130 10.275645
53.135 9.729343
53.140 10.151047
53.145 10.203593
53.150 9.862929
53.155 9.521719
53.160 9.157673
53.165 9.160394
53.170 8.844811
53.175 8.545849
53.180 8.931081
53.185 9.472663
53.190 9.998257
53.195 10.366641
53.200 10.598308
53.205 10.802091
53.210 10.722322
53.215 10.338615
53.220 10.089672
53.225 10.028069
53.230 9.869783
53.235 9.588206
53.240 9.862706
53.245 9.867565
53.250 9.990752
53.255 9.786365
53.260 9.473009
53.265 9.711426
53.270 10.03329
53.275 10.342553
53.280 10.963783
53.285 10.755669
53.290 10.979125
53.295 11.225423
53.300 11.389439
53.305 11.614194
53.310 11.152909
53.315 10.758542
53.320 11.036111
53.325 11.159717
53.330 11.380315
53.335 11.11847
53.340 10.780819
53.345 10.606869
53.350 10.733353
53.355 10.651597
53.360 10.1988
53.365 10.062111
53.370 10.373346
53.375 10.512076
53.380 10.885491
53.385 10.964849
53.390 10.81724
53.395 10.756447
53.400 10.857622
53.405 10.686629
53.410 10.569891
53.415 10.1803
53.420 10.470121
53.425 11.408309
53.430 11.192749
53.435 11.011032
53.440 10.978592
53.445 11.818227
53.450 12.257475
53.455 11.823274
53.460 11.235997
53.465 10.706522
53.470 10.09678
53.475 10.191698
53.480 9.730143
53.485 9.048865
53.490 8.77623
53.495 9.369485
53.500 9.894429
53.505 10.368105
53.510 10.069561
53.515 10.201269
53.520 10.855702
53.525 11.018055
53.530 11.13295
53.535 11.507327
53.540 11.571342
53.545 11.248527
53.550 11.095254
53.555 10.979407
53.560 10.995383
53.565 11.253963
53.570 10.978828
53.575 11.377035
53.580 11.460523
53.585 11.144506
53.590 11.187115
53.595 10.895203
53.600 10.715883
53.605 10.757572
53.610 10.314248
53.615 10.834415
53.620 11.472411
53.625 11.457626
53.630 11.583533
53.635 11.150376
53.640 11.144598
53.645 11.098658
53.650 10.501945
53.655 9.605089
53.660 9.350082
53.665 9.867225
53.670 10.016831
53.675 10.045419
53.680 10.161222
53.685 10.652796
53.690 11.320685
53.695 11.399363
53.700 11.361176
53.705 11.469499
53.710 11.512815
53.715 11.267584
53.720 10.732901
53.725 10.899923
53.730 11.082946
53.735 11.287314
53.740 10.991934
53.745 11.000587
53.750 11.006823
53.755 11.021967
53.760 10.974262
53.765 10.835742
53.770 11.26941
53.775 11.732534
53.780 11.90736
53.785 12.190948
53.790 12.365847
53.795 12.057056
53.800 11.663321
53.805 11.670948
53.810 11.628176
53.815 11.835206
53.820 11.939898
53.825 12.168212
53.830 12.477574
53.835 13.083865
53.840 12.618283
53.845 12.416712
53.850 12.315458
53.855 12.131158
53.860 11.65889
53.865 11.537601
53.870 11.310986
53.875 11.220345
53.880 11.205219
53.885 11.250191
53.890 11.639369
53.895 11.528905
53.900 10.954433
53.905 11.167999
53.910 11.63096
53.915 11.776859
53.920 11.415784
53.925 11.505185
53.930 12.002457
53.935 11.843285
53.940 11.438044
53.945 11.211947
53.950 10.853958
53.955 10.619985
53.960 9.824268
53.965 9.620403
53.970 9.882855
53.975 10.001987
53.980 9.686186
53.985 9.564832
53.990 9.698578
53.995 10.005246
54.000 10.14159
54.005 10.433251
54.010 10.772887
54.015 11.337947
54.020 11.888752
54.025 12.200975
54.030 12.168305
54.035 11.886616
54.040 11.660362
54.045 11.371282
54.050 11.187743
54.055 10.944209
54.060 10.798799
54.065 10.082191
54.070 9.935192
54.075 10.38826
54.080 11.016462
54.085 11.640877
54.090 11.695884
54.095 11.43364
54.100 11.746266
54.105 11.748244
54.110 11.493767
54.115 10.939072
54.120 10.969962
54.125 11.241171
54.130 11.744555
54.135 12.04104
54.140 12.083977
54.145 11.554561
54.150 11.71036
54.155 11.54331
54.160 11.684378
54.165 12.03397
54.170 12.294964
54.175 12.591009
54.180 12.604811
54.185 12.168984
54.190 12.014046
54.195 11.92014
54.200 11.686034
54.205 11.154088
54.210 10.866403
54.215 10.873853
54.220 10.733345
54.225 10.848559
54.230 11.136245
54.235 12.077179
54.240 12.305197
54.245 12.02818
54.250 11.882122
54.255 12.046107
54.260 11.689583
54.265 11.16775
54.270 10.311802
54.275 10.444988
54.280 10.815326
54.285 11.034714
54.290 10.902182
54.295 10.847056
54.300 10.599296
54.305 10.531475
54.310 10.664252
54.315 11.11347
54.320 11.276274
54.325 11.200096
54.330 10.838949
54.335 11.656004
54.340 12.054605
54.345 12.282444
54.350 12.224905
54.355 12.246708
54.360 12.341047
54.365 12.525303
54.370 11.716075
54.375 11.126204
54.380 10.429329
54.385 10.022681
54.390 9.926723
54.395 9.901
54.400 10.253074
54.405 10.585344
54.410 10.704581
54.415 11.287467
54.420 11.332543
54.425 11.13519
54.430 11.301336
54.435 11.240123
54.440 11.631633
54.445 11.827805
54.450 11.647215
54.455 11.892796
54.460 12.229281
54.465 12.289526
54.470 11.823643
54.475 11.576308
54.480 11.483984
54.485 11.793729
54.490 11.642577
54.495 11.325428
54.500 11.17686
54.505 10.992931
54.510 11.056294
54.515 11.174214
54.520 11.027296
54.525 11.2091
54.530 11.126268
54.535 11.225387
54.540 11.854404
54.545 11.136633
54.550 10.912611
54.555 10.619606
54.560 10.522613
54.565 10.32688
54.570 10.339804
54.575 10.667871
54.580 10.810927
54.585 10.686424
54.590 11.208535
54.595 11.76542
54.600 12.054151
54.605 11.892379
54.610 11.768168
54.615 12.400712
54.620 12.934693
54.625 12.587132
54.630 12.22621
54.635 12.48559
54.640 12.463713
54.645 12.188692
54.650 12.003019
54.655 11.827324
54.660 11.981828
54.665 12.17097
54.670 11.911764
54.675 12.051788
54.680 12.08068
54.685 11.760863
54.690 11.718422
54.695 11.448471
54.700 11.373226
54.705 11.240252
54.710 10.919003
54.715 10.967345
54.720 10.880637
54.725 11.17493
54.730 11.42683
54.735 11.620853
54.740 12.07426
54.745 13.108664
54.750 13.19293
54.755 13.094354
54.760 12.587398
54.765 12.715983
54.770 13.145668
54.775 12.940273
54.780 12.258018
54.785 12.239881
54.790 12.355996
54.795 12.945159
54.800 13.01783
54.805 12.700729
54.810 12.207372
54.815 12.580648
54.820 12.633132
54.825 12.763028
54.830 12.616263
54.835 12.375475
54.840 12.222137
54.845 12.370924
54.850 12.037509
54.855 12.198874
54.860 12.029256
54.865 11.479107
54.870 11.47249
54.875 12.046638
54.880 12.413514
54.885 12.528845
54.890 12.589841
54.895 12.468095
54.900 12.839819
54.905 13.090911
54.910 13.021285
54.915 13.111432
54.920 12.843188
54.925 13.090791
54.930 13.34664
54.935 12.735459
54.940 11.967649
54.945 12.097386
54.950 12.600813
54.955 12.642134
54.960 12.431094
54.965 12.364861
54.970 12.626101
54.975 12.592694
54.980 12.09522
54.985 12.023458
54.990 12.258859
54.995 11.939999
55.000 11.546063
55.005 11.614131
55.010 11.968928
55.015 11.582898
55.020 10.511401
55.025 10.702681
55.030 11.351877
55.035 11.697816
55.040 11.667069
55.045 11.503014
55.050 11.702219
55.055 11.888555
55.060 11.661303
55.065 11.583365
55.070 11.305778
55.075 11.510617
55.080 11.942599
55.085 11.719344
55.090 11.735527
55.095 11.600668
55.100 11.703259
55.105 12.222445
55.110 12.521997
55.115 12.82883
55.120 13.201763
55.125 13.201738
55.130 13.231908
55.135 13.544264
55.140 13.368508
55.145 12.469304
55.150 12.135488
55.155 12.089571
55.160 11.960431
55.165 12.008229
55.170 11.614179
55.175 11.654687
55.180 12.058475
55.185 12.270835
55.190 12.491487
55.195 12.967253
55.200 13.33263
55.205 13.232938
55.210 13.105816
55.215 12.902629
55.220 12.493814
55.225 12.194287
55.230 12.203939
55.235 12.01753
55.240 12.13554
55.245 12.228065
55.250 12.608262
55.255 12.799063
55.260 13.004161
55.265 12.713486
55.270 12.507904
55.275 12.350584
55.280 12.421006
55.285 12.443082
55.290 12.558716
55.295 12.523805
55.300 12.598103
55.305 12.915731
55.310 13.171335
55.315 12.806469
55.320 12.684081
55.325 12.072085
55.330 11.61629
55.335 11.325885
55.340 11.350227
55.345 11.598002
55.350 12.169612
55.355 12.295581
55.360 12.579842
55.365 12.944303
55.370 13.291183
55.375 13.270575
55.380 13.1547
55.385 12.812859
55.390 12.810152
55.395 13.465524
55.400 13.429344
55.405 13.742729
55.410 14.06425
55.415 13.612848
55.420 13.491193
55.425 13.172041
55.430 12.52145
55.435 12.2599
55.440 11.74622
55.445 11.673703
55.450 12.020083
55.455 11.982914
55.460 12.865491
55.465 13.224955
55.470 13.16307
55.475 13.163749
55.480 13.134084
55.485 13.417849
55.490 13.331129
55.495 13.102037
55.500 13.38014
55.505 13.859352
55.510 13.791186
55.515 13.978592
55.520 13.8826
55.525 13.641438
55.530 13.333867
55.535 12.865695
55.540 12.244423
55.545 12.217977
55.550 11.871325
55.555 12.284508
55.560 12.07268
55.565 12.359255
55.570 12.856509
55.575 13.553912
55.580 13.392235
55.585 12.898221
55.590 12.991988
55.595 13.527697
55.600 13.167834
55.605 12.915689
55.610 12.788218
55.615 12.984051
55.620 13.173004
55.625 13.015489
55.630 12.789291
55.635 12.491928
55.640 12.154028
55.645 11.964528
55.650 11.844861
55.655 11.728879
55.660 11.667105
55.665 11.464031
55.670 11.34271
55.675 11.441627
55.680 11.492467
55.685 11.556857
55.690 11.629104
55.695 11.518478
55.700 11.888078
55.705 12.040344
55.710 11.876987
55.715 11.899888
55.720 12.210834
55.725 12.114731
55.730 12.281462
55.735 12.717834
55.740 13.211755
55.745 13.670078
55.750 13.67797
55.755 13.131647
55.760 13.055377
55.765 13.455924
55.770 13.222788
55.775 13.599008
55.780 13.210836
55.785 13.138185
55.790 13.702559
55.795 13.541888
55.800 12.701737
55.805 12.167166
55.810 11.628428
55.815 11.466495
55.820 11.660846
55.825 11.638827
55.830 12.2576
55.835 13.078615
55.840 13.517937
55.845 13.592065
55.850 13.895372
55.855 14.593148
55.860 14.642688
55.865 14.148791
55.870 13.713894
55.875 13.768487
55.880 14.196273
55.885 14.072507
55.890 13.736995
55.895 13.875595
55.900 13.935204
55.905 13.79283
55.910 13.801162
55.915 13.465451
55.920 13.10113
55.925 12.748639
55.930 12.958194
55.935 13.243033
55.940 13.46019
55.945 13.77643
55.950 14.534544
55.955 14.445649
55.960 14.552419
55.965 14.480844
55.970 14.528269
55.975 14.034848
55.980 13.251268
55.985 12.948066
55.990 13.230437
55.995 12.970618
56.000 12.894181
56.005 13.340405
56.010 13.828307
56.015 13.898767
56.020 13.720852
56.025 13.849072
56.030 13.871664
56.035 13.867413
56.040 13.480929
56.045 13.409698
56.050 13.72486
56.055 13.894599
56.060 14.087584
56.065 14.138064
56.070 13.93894
56.075 14.107125
56.080 14.307632
56.085 14.151648
56.090 13.880619
56.095 13.396168
56.100 13.017119
56.105 13.093661
56.110 12.808982
56.115 12.821634
56.120 13.044153
56.125 13.046695
56.130 13.45628
56.135 13.649205
56.140 13.382818
56.145 13.461827
56.150 13.656165
56.155 14.061084
56.160 13.813797
56.165 13.630265
56.170 14.225986
56.175 14.547964
56.180 14.462037
56.185 14.334264
56.190 14.189301
56.195 14.253987
56.200 14.600524
56.205 14.433514
56.210 14.497063
56.215 14.574637
56.220 14.635118
56.225 14.902632
56.230 15.358574
56.235 14.98284
56.240 14.71875
56.245 14.500743
56.250 13.911549
56.255 13.557218
56.260 13.13275
56.265 13.234149
56.270 13.359838
56.275 13.391153
56.280 13.400517
56.285 13.459448
56.290 14.054808
56.295 14.466349
56.300 14.546343
56.305 14.839167
56.310 15.12239
56.315 14.992244
56.320 14.900178
56.325 13.96692
56.330 13.430156
56.335 12.880682
56.340 12.740038
56.345 12.849643
56.350 12.933106
56.355 12.915691
56.360 13.262144
56.365 13.805236
56.370 13.954662
56.375 13.917123
56.380 13.656612
56.385 13.832404
56.390 13.897593
56.395 13.818075
56.400 13.603533
56.405 13.62976
56.410 13.631874
56.415 13.958511
56.420 14.291923
56.425 14.347534
56.430 14.13046
56.435 13.719275
56.440 13.881631
56.445 13.951108
56.450 14.055529
56.455 14.003355
56.460 14.489493
56.465 14.633124
56.470 14.796579
56.475 14.706477
56.480 14.308195
56.485 14.283168
56.490 14.293839
56.495 14.014791
56.500 14.361808
56.505 14.442665
56.510 14.19015
56.515 14.726804
56.520 14.557206
56.525 14.422544
56.530 14.61482
56.535 14.548268
56.540 14.861871
56.545 14.790149
56.550 14.639735
56.555 14.692153
56.560 14.855985
56.565 14.830909
56.570 15.100986
56.575 14.809055
56.580 15.013466
56.585 15.355828
56.590 15.530578
56.595 16.002922
56.600 15.986829
56.605 15.90717
56.610 15.917379
56.615 15.465911
56.620 15.050597
56.625 15.043131
56.630 14.999336
56.635 14.677799
56.640 14.263534
56.645 14.083358
56.650 14.233335
56.655 14.140452
56.660 13.9085
56.665 13.658874
56.670 14.292826
56.675 14.467071
56.680 14.691194
56.685 14.879199
56.690 14.91108
56.695 14.598927
56.700 13.852618
56.705 13.129698
56.710 12.831525
56.715 13.116969
56.720 12.973435
56.725 12.6463
56.730 13.583047
56.735 13.948343
56.740 14.303173
56.745 14.876555
56.750 14.932079
56.755 15.328795
56.760 15.862034
56.765 15.45125
56.770 15.440862
56.775 15.584038
56.780 15.255809
56.785 14.726828
56.790 14.525083
56.795 14.490335
56.800 14.637114
56.805 14.814956
56.810 14.608608
56.815 14.477099
56.820 14.646807
56.825 14.340379
56.830 13.452826
56.835 12.981404
56.840 12.705196
56.845 13.040573
56.850 13.740826
56.855 13.529562
56.860 13.494131
56.865 13.853125
56.870 14.131631
56.875 14.4284
56.880 14.400712
56.885 13.893662
56.890 14.153382
56.895 14.622547
56.900 14.794584
56.905 14.224486
56.910 13.878586
56.915 13.453991
56.920 13.351293
56.925 13.349528
56.930 13.214021
56.935 12.899117
56.940 13.171522
56.945 13.271621
56.950 13.121574
56.955 13.451376
56.960 13.661201
56.965 13.202852
56.970 13.896705
56.975 14.251637
56.980 14.134267
56.985 14.375224
56.990 14.114408
56.995 14.34196
57.000 14.851838
57.005 14.301443
57.010 14.150208
57.015 14.568426
57.020 14.907132
57.025 15.331234
57.030 15.08343
57.035 15.148322
57.040 15.475181
57.045 15.708282
57.050 15.577791
57.055 14.99519
57.060 14.509953
57.065 15.019766
57.070 14.872834
57.075 14.735995
57.080 14.169274
57.085 13.809488
57.090 13.548918
57.095 12.899885
57.100 12.52714
57.105 13.084471
57.110 13.165495
57.115 13.723289
57.120 13.949438
57.125 14.076861
57.130 14.600823
57.135 14.363192
57.140 13.993993
57.145 13.765155
57.150 13.574453
57.155 14.131986
57.160 14.673072
57.165 15.467728
57.170 15.664338
57.175 15.595375
57.180 15.567535
57.185 15.364489
57.190 15.228778
57.195 14.928939
57.200 14.362794
57.205 14.672688
57.210 15.087657
57.215 15.621815
57.220 16.191257
57.225 15.955565
57.230 16.349648
57.235 16.0452
57.240 15.702706
57.245 15.915717
57.250 15.491635
57.255 15.271931
57.260 15.030328
57.265 14.962753
57.270 14.90288
57.275 14.247755
57.280 14.240654
57.285 14.171431
57.290 14.348896
57.295 15.15651
57.300 15.05931
57.305 14.755579
57.310 14.782969
57.315 14.384202
57.320 14.238162
57.325 14.05932
57.330 13.941224
57.335 13.992243
57.340 14.709007
57.345 15.15423
57.350 15.457188
57.355 15.723546
57.360 15.205663
57.365 14.854285
57.370 14.903369
57.375 14.476433
57.380 14.07693
57.385 14.092249
57.390 14.069864
57.395 14.216554
57.400 14.534928
57.405 14.430309
57.410 15.08009
57.415 15.320325
57.420 15.409768
57.425 15.71481
57.430 15.738693
57.435 15.302591
57.440 15.551444
57.445 15.194327
57.450 15.094126
57.455 15.273149
57.460 15.854707
57.465 16.292318
57.470 16.49547
57.475 15.81456
57.480 15.731287
57.485 15.614928
57.490 15.16428
57.495 14.743871
57.500 14.737976
57.505 15.088385
57.510 15.597828
57.515 15.932487
57.520 16.022936
57.525 15.997545
57.530 15.897116
57.535 15.421886
57.540 15.239879
57.545 15.378083
57.550 15.347684
57.555 15.760821
57.560 15.830199
57.565 15.747288
57.570 16.253075
57.575 15.921253
57.580 15.91434
57.585 15.782583
57.590 15.762556
57.595 15.689801
57.600 15.963822
57.605 15.958443
57.610 15.991385
57.615 15.749727
57.620 15.72784
57.625 15.698824
57.630 15.297976
57.635 15.149302
57.640 14.787938
57.645 14.61787
57.650 14.39099
57.655 14.525934
57.660 14.423899
57.665 14.737239
57.670 14.088419
57.675 14.601721
57.680 15.063993
57.685 15.389716
57.690 15.557582
57.695 15.613528
57.700 15.60248
57.705 15.794748
57.710 15.445717
57.715 15.48006
57.720 15.526208
57.725 15.384871
57.730 15.746681
57.735 16.029829
57.740 16.077042
57.745 15.74821
57.750 15.790689
57.755 15.558509
57.760 14.921642
57.765 14.680216
57.770 14.595061
57.775 15.00237
57.780 14.984598
57.785 15.222964
57.790 15.462285
57.795 15.529461
57.800 15.342478
57.805 15.570484
57.810 15.457969
57.815 15.57468
57.820 15.560931
57.825 15.726993
57.830 16.132992
57.835 16.70118
57.840 16.073536
57.845 15.810285
57.850 15.936617
57.855 15.864432
57.860 15.789074
57.865 15.736032
57.870 15.441618
57.875 15.900652
57.880 15.940159
57.885 15.529891
57.890 15.54219
57.895 15.690104
57.900 15.265951
57.905 14.501967
57.910 14.468593
57.915 15.247186
57.920 15.640912
57.925 15.544405
57.930 15.485275
57.935 15.732725
57.940 16.158545
57.945 15.840915
57.950 14.992302
57.955 15.282556
57.960 15.789513
57.965 15.589246
57.970 15.672242
57.975 16.009485
57.980 16.52136
57.985 16.916134
57.990 16.400646
57.995 15.98689
58.000 16.20162
58.005 16.367519
58.010 15.806786
58.015 15.421296
58.020 15.13986
58.025 15.125811
58.030 14.906496
58.035 15.08846
58.040 14.80736
58.045 15.110755
58.050 15.598024
58.055 16.073441
58.060 16.553354
58.065 16.849289
58.070 16.755798
58.075 17.306156
58.080 17.290539
58.085 17.111412
58.090 16.71838
58.095 16.416021
58.100 16.49754
58.105 16.651142
58.110 16.811768
58.115 17.071587
58.120 17.002417
58.125 17.198374
58.130 17.027458
58.135 17.352589
58.140 17.665243
58.145 17.718252
58.150 17.763361
58.155 17.93955
58.160 17.089872
58.165 16.937239
58.170 16.613306
58.175 15.752309
58.180 15.49414
58.185 15.102466
58.190 15.17
58.195 15.790504
58.200 16.241741
58.205 16.327192
58.210 17.058384
58.215 16.86764
58.220 17.076845
58.225 17.474211
58.230 17.51075
58.235 17.123636
58.240 17.15037
58.245 17.206406
58.250 17.65419
58.255 18.140617
58.260 18.383022
58.265 18.541847
58.270 18.296843
58.275 17.979456
58.280 18.518442
58.285 18.579723
58.290 18.375462
58.295 18.257637
58.300 18.122007
58.305 18.756784
58.310 19.55374
58.315 19.22434
58.320 19.271679
58.325 19.312464
58.330 19.659204
58.335 20.139851
58.340 20.06233
58.345 19.539202
58.350 20.089396
58.355 20.498549
58.360 19.751972
58.365 19.580072
58.370 19.408945
58.375 19.314289
58.380 19.577835
58.385 19.160423
58.390 20.037338
58.395 20.889387
58.400 21.253752
58.405 21.704235
58.410 21.596302
58.415 21.25494
58.420 20.980055
58.425 20.829571
58.430 20.780912
58.435 19.88595
58.440 19.786089
58.445 19.904171
58.450 19.803797
58.455 20.068163
58.460 18.989397
58.465 18.688765
58.470 18.314438
58.475 17.808043
58.480 18.215162
58.485 18.248821
58.490 18.211233
58.495 19.001732
58.500 19.418554
58.505 20.482895
58.510 20.655348
58.515 20.639452
58.520 20.610214
58.525 20.842314
58.530 20.90831
58.535 20.74431
58.540 20.300043
58.545 19.76783
58.550 19.548748
58.555 19.809114
58.560 19.286488
58.565 18.864843
58.570 19.705463
58.575 20.518848
58.580 20.845322
58.585 20.642639
58.590 20.557365
58.595 21.185358
58.600 21.463169
58.605 20.581652
58.610 19.781822
58.615 20.281122
58.620 20.82571
58.625 20.579718
58.630 19.965847
58.635 19.946884
58.640 20.338785
58.645 20.345737
58.650 20.133087
58.655 19.610594
58.660 19.251057
58.665 19.413221
58.670 19.693979
58.675 19.781067
58.680 20.01223
58.685 20.18149
58.690 20.546007
58.695 21.491194
58.700 21.48962
58.705 21.232719
58.710 22.312654
58.715 22.607038
58.720 22.576948
58.725 22.404613
58.730 21.902912
58.735 21.832453
58.740 21.356625
58.745 20.477694
58.750 20.497303
58.755 20.504259
58.760 20.965725
58.765 20.694742
58.770 20.487925
58.775 20.895302
58.780 20.687176
58.785 20.223091
58.790 19.974346
58.795 19.831354
58.800 20.683195
58.805 21.024763
58.810 21.042435
58.815 20.561369
58.820 20.234085
58.825 19.815639
58.830 19.296288
58.835 18.445715
58.840 18.459557
58.845 18.210409
58.850 18.602896
58.855 18.81222
58.860 19.164274
58.865 19.153078
58.870 19.016613
58.875 18.654949
58.880 18.536995
58.885 18.509815
58.890 18.281288
58.895 18.276266
58.900 18.188568
58.905 18.147707
58.910 18.083506
58.915 17.910429
58.920 17.627443
58.925 17.428871
58.930 17.621128
58.935 17.688171
58.940 17.542183
58.945 17.579147
58.950 17.327543
58.955 17.658983
58.960 18.032774
58.965 17.47772
58.970 17.796331
58.975 17.989656
58.980 17.965206
58.985 18.408752
58.990 18.519865
58.995 18.976398
59.000 19.276243
59.005 19.384703
59.010 19.62352
59.015 19.849861
59.020 20.054476
59.025 19.789125
59.030 19.468851
59.035 19.595255
59.040 19.717365
59.045 19.609442
59.050 18.934006
59.055 19.153881
59.060 19.619505
59.065 20.04274
59.070 20.567175
59.075 20.875839
59.080 21.147655
59.085 21.697981
59.090 21.550217
59.095 22.172079
59.100 22.343847
59.105 22.295092
59.110 21.76758
59.115 21.22802
59.120 21.448477
59.125 21.083347
59.130 20.258495
59.135 19.508467
59.140 19.345867
59.145 19.679289
59.150 20.451147
59.155 20.119019
59.160 20.228409
59.165 20.40847
59.170 20.770903
59.175 20.409843
59.180 20.173265
59.185 20.204678
59.190 20.058458
59.195 19.687059
59.200 19.019039
59.205 18.892971
59.210 19.546265
59.215 19.832216
59.220 19.849356
59.225 19.89645
59.230 19.753887
59.235 19.794161
59.240 20.337393
59.245 20.505424
59.250 19.802534
59.255 19.46628
59.260 19.641283
59.265 20.58861
59.270 20.784985
59.275 19.781273
59.280 19.249689
59.285 19.13114
59.290 18.968969
59.295 18.988092
59.300 18.853548
59.305 19.512899
59.310 19.62068
59.315 20.084505
59.320 20.680374
59.325 20.914246
59.330 21.452868
59.335 21.57193
59.340 21.476795
59.345 21.15542
59.350 20.608469
59.355 20.680523
59.360 20.625189
59.365 19.704243
59.370 18.421583
59.375 17.850603
59.380 18.437311
59.385 18.451094
59.390 18.654846
59.395 19.146614
59.400 19.660137
59.405 20.318539
59.410 20.582014
59.415 20.729641
59.420 20.619633
59.425 20.319168
59.430 20.69244
59.435 20.359377
59.440 20.754936
59.445 20.964512
59.450 20.62635
59.455 20.768192
59.460 20.717743
59.465 20.746862
59.470 21.19632
59.475 21.30385
59.480 21.33606
59.485 21.565119
59.490 21.843605
59.495 21.812025
59.500 21.425285
59.505 21.744301
59.510 21.670883
59.515 21.313549
59.520 21.088205
59.525 20.88669
59.530 20.468637
59.535 20.351555
59.540 20.175966
59.545 20.527721
59.550 21.708452
59.555 22.093952
59.560 22.382921
59.565 22.948372
59.570 23.287458
59.575 22.989098
59.580 22.176296
59.585 21.773632
59.590 22.065371
59.595 21.906069
59.600 21.409475
59.605 20.952532
59.610 21.171709
59.615 21.14777
59.620 20.628651
59.625 20.512245
59.630 20.918407
59.635 21.314882
59.640 21.760834
59.645 21.715923
59.650 21.607105
59.655 21.726379
59.660 22.278189
59.665 22.249355
59.670 21.338133
59.675 20.649494
59.680 20.430925
59.685 20.74124
59.690 20.520094
59.695 20.459734
59.700 20.571304
59.705 20.875591
59.710 21.029608
59.715 20.882088
59.720 20.395864
59.725 20.61017
59.730 20.254021
59.735 20.04451
59.740 20.585688
59.745 20.765306
59.750 21.284531
59.755 21.42288
59.760 21.364187
59.765 21.112576
59.770 21.377287
59.775 21.460901
59.780 21.756165
59.785 21.566254
59.790 21.606756
59.795 21.858416
59.800 22.031727
59.805 21.457428
59.810 21.410076
59.815 21.751526
59.820 21.940434
59.825 21.688589
59.830 21.409073
59.835 20.983984
59.840 21.074226
59.845 20.650351
59.850 20.033981
59.855 20.056513
59.860 20.534903
59.865 20.557474
59.870 20.621519
59.875 19.810331
59.880 19.498415
59.885 19.610365
59.890 19.07588
59.895 18.668362
59.900 19.315447
59.905 20.306799
59.910 20.871475
59.915 21.073318
59.920 21.245079
59.925 21.705389
59.930 22.503738
59.935 22.075436
59.940 21.706408
59.945 21.924389
59.950 22.008856
59.955 21.891794
59.960 21.492918
59.965 20.975218
59.970 20.667343
59.975 20.271656
59.980 19.426996
59.985 18.955914
59.990 18.728867
59.995 18.632957
60.000 18.41906
60.005 18.612453
60.010 18.753302
60.015 19.292084
60.020 19.739578
60.025 19.952688
60.030 20.110525
60.035 20.216864
60.040 20.892618
60.045 21.256056
60.050 20.542423
60.055 20.232712
60.060 20.310825
60.065 20.397497
60.070 20.390818
60.075 20.06946
60.080 20.187376
60.085 20.89426
60.090 20.997274
60.095 20.821529
60.100 20.594398
60.105 20.37562
60.110 19.581318
60.115 19.066637
60.120 19.614529
60.125 19.981617
60.130 20.53286
60.135 21.063498
60.140 20.852785
60.145 21.086864
60.150 20.49082
60.155 20.069614
60.160 19.390903
60.165 18.718012
60.170 18.642057
60.175 19.195051
60.180 19.532667
60.185 20.059326
60.190 20.441097
60.195 20.61923
60.200 20.595888
60.205 20.507254
60.210 20.447878
60.215 20.308836
60.220 19.976511
60.225 19.737965
60.230 19.874924
60.235 19.604593
60.240 19.091999
60.245 19.021469
60.250 19.425484
60.255 19.944965
60.260 19.402977
60.265 18.93194
60.270 19.113539
60.275 19.142662
60.280 18.637932
60.285 18.112913
60.290 17.821609
60.295 18.12216
60.300 18.598972
60.305 19.140015
60.310 19.014265
60.315 18.893768
60.320 18.505703
60.325 18.245754
60.330 18.383953
60.335 18.004045
60.340 17.630287
60.345 18.385271
60.350 18.892527
60.355 19.707077
60.360 20.253115
60.365 20.070381
60.370 19.712418
60.375 19.72967
60.380 19.673594
60.385 19.979294
60.390 19.697924
60.395 19.785719
60.400 19.712751
60.405 20.22077
60.410 19.883692
60.415 19.638559
60.420 19.444077
60.425 19.335197
60.430 19.216299
60.435 19.704494
60.440 20.147301
60.445 20.210573
60.450 20.327736
60.455 20.405722
60.460 20.527836
60.465 20.297674
60.470 19.660809
60.475 19.403683
60.480 19.517431
60.485 19.406712
60.490 19.3971
60.495 19.630974
60.500 20.093157
60.505 20.040791
60.510 19.825521
60.515 19.513123
60.520 18.962963
60.525 18.590067
60.530 17.878307
60.535 16.826223
60.540 16.923296
60.545 16.772636
60.550 16.987774
60.555 17.185881
60.560 17.365925
60.565 17.323904
60.570 17.027817
60.575 17.126871
60.580 17.074377
60.585 17.029137
60.590 17.064276
60.595 17.31139
60.600 17.425606
60.605 17.778196
60.610 17.561199
60.615 17.982458
60.620 18.466345
60.625 18.91116
60.630 18.422215
60.635 18.451298
60.640 18.516167
60.645 18.441086
60.650 17.876038
60.655 17.282045
60.660 16.59697
60.665 16.844301
60.670 17.044529
60.675 16.629259
60.680 16.303267
60.685 16.119312
60.690 16.349218
60.695 16.60021
60.700 16.64934
60.705 16.491028
60.710 16.159195
60.715 16.153252
60.720 16.457047
60.725 16.235085
60.730 16.098032
60.735 16.348007
60.740 15.82835
60.745 16.571287
60.750 17.562929
60.755 17.75058
60.760 17.707983
60.765 17.863249
60.770 17.998577
60.775 19.009867
60.780 19.141806
60.785 18.799856
60.790 18.966419
60.795 18.721004
60.800 18.610922
60.805 18.225275
60.810 17.87945
60.815 17.616373
60.820 17.704906
60.825 17.695436
60.830 18.036087
60.835 17.805162
60.840 17.806578
60.845 18.249758
60.850 19.09444
60.855 18.870108
60.860 18.498167
60.865 18.425091
60.870 18.768076
60.875 18.867994
60.880 18.301201
60.885 17.798599
60.890 17.935804
60.895 18.30364
60.900 18.445724
60.905 18.207041
60.910 18.65922
60.915 19.328104
60.920 19.30056
60.925 19.243847
60.930 19.261862
60.935 19.28281
60.940 19.273178
60.945 18.889931
60.950 18.18553
60.955 17.727341
60.960 17.01545
60.965 16.38261
60.970 16.262846
60.975 16.186363
60.980 15.743439
60.985 15.553432
60.990 16.207209
60.995 16.256878
61.000 16.414845
61.005 16.841988
61.010 16.851454
61.015 16.989439
61.020 16.814159
61.025 16.461512
61.030 16.904333
61.035 17.205593
61.040 17.205616
61.045 16.905531
61.050 16.809916
61.055 16.931164
61.060 16.738512
61.065 17.027781
61.070 17.326508
61.075 16.88096
61.080 17.1796
61.085 17.058367
61.090 17.411343
61.095 17.379129
61.100 16.96904
61.105 16.16106
61.110 16.310875
61.115 16.65667
61.120 16.931662
61.125 16.791876
61.130 16.934637
61.135 17.307686
61.140 17.85627
61.145 17.668123
61.150 17.130655
61.155 16.945364
61.160 16.789371
61.165 16.5299
61.170 16.490036
61.175 16.432076
61.180 16.845175
61.185 17.381569
61.190 17.768215
61.195 18.824139
61.200 19.18294
61.205 19.195803
61.210 18.96796
61.215 18.452774
61.220 17.770874
61.225 17.647099
61.230 17.250639
61.235 16.622454
61.240 15.979444
61.245 15.971629
61.250 16.068993
61.255 15.944505
61.260 15.483191
61.265 15.172995
61.270 15.427438
61.275 15.692565
61.280 15.726451
61.285 15.979821
61.290 16.565708
61.295 17.318724
61.300 17.19338
61.305 17.277439
61.310 17.347458
61.315 16.860584
61.320 16.820221
61.325 16.81801
61.330 16.179354
61.335 16.258999
61.340 16.030817
61.345 15.862498
61.350 15.931204
61.355 15.51204
61.360 15.513135
61.365 15.77457
61.370 15.975489
61.375 16.311234
61.380 16.828922
61.385 17.680052
61.390 17.889938
61.395 17.393328
61.400 16.993183
61.405 16.577011
61.410 16.791834
61.415 16.664679
61.420 16.142317
61.425 16.245142
61.430 17.340752
61.435 17.634712
61.440 17.79899
61.445 17.613571
61.450 17.488691
61.455 17.594673
61.460 17.728952
61.465 17.417719
61.470 17.859974
61.475 17.940245
61.480 17.688589
61.485 17.59477
61.490 18.479753
61.495 18.755926
61.500 18.435919
61.505 17.970402
61.510 17.802586
61.515 18.395309
61.520 18.449791
61.525 18.350088
61.530 18.563944
61.535 19.174215
61.540 19.220011
61.545 19.216677
61.550 19.822243
61.555 20.135052
61.560 19.872324
61.565 19.386101
61.570 18.5485
61.575 18.600092
61.580 18.853491
61.585 18.312927
61.590 17.680742
61.595 17.350243
61.600 17.536465
61.605 17.780684
61.610 18.433355
61.615 18.788406
61.620 18.950846
61.625 18.94869
61.630 18.589043
61.635 17.782972
61.640 17.782963
61.645 17.826942
61.650 16.88921
61.655 16.931551
61.660 17.252998
61.665 17.624567
61.670 18.463011
61.675 18.611847
61.680 17.660442
61.685 17.683519
61.690 17.168451
61.695 17.170544
61.700 17.343119
61.705 17.573696
61.710 18.307096
61.715 18.750917
61.720 18.678045
61.725 18.995281
61.730 18.890491
61.735 18.503143
61.740 18.215971
61.745 17.70516
61.750 17.634449
61.755 18.052963
61.760 17.592987
61.765 17.380503
61.770 17.363899
61.775 17.053591
61.780 16.51078
61.785 16.456577
61.790 16.004084
61.795 16.227102
61.800 16.69389
61.805 16.581575
61.810 17.283083
61.815 17.81282
61.820 18.615969
61.825 18.713606
61.830 18.87693
61.835 19.191229
61.840 19.158007
61.845 18.619232
61.850 18.371004
61.855 17.843876
61.860 18.10169
61.865 18.206863
61.870 18.137264
61.875 18.260435
61.880 18.123758
61.885 18.045122
61.890 17.80044
61.895 18.149086
61.900 17.941969
61.905 17.584263
61.910 17.982859
61.915 18.401283
61.920 18.392282
61.925 18.853102
61.930 18.173607
61.935 17.584597
61.940 17.153427
61.945 16.513117
61.950 16.366547
61.955 16.465397
61.960 15.174644
61.965 14.56335
61.970 15.182018
61.975 15.584188
61.980 15.763977
61.985 15.317817
61.990 15.243972
61.995 16.07682
62.000 16.406076
62.005 16.929386
62.010 17.185522
62.015 17.125648
62.020 17.26207
62.025 16.909386
62.030 17.172838
62.035 17.564686
62.040 17.479372
62.045 17.483589
62.050 17.511904
62.055 17.704111
62.060 17.942432
62.065 17.585381
62.070 17.181929
62.075 16.994528
62.080 17.426081
62.085 17.629629
62.090 17.893848
62.095 18.147526
62.100 18.555044
62.105 18.575428
62.110 17.933472
62.115 17.847883
62.120 17.686834
62.125 17.381531
62.130 17.418077
62.135 17.39864
62.140 17.395943
62.145 17.538809
62.150 17.272144
62.155 17.179367
62.160 17.20937
62.165 17.311111
62.170 17.745331
62.175 18.249277
62.180 18.189217
62.185 17.893433
62.190 17.86578
62.195 18.019512
62.200 18.047949
62.205 18.090946
62.210 18.141518
62.215 18.01174
62.220 17.756397
62.225 17.79236
62.230 17.966261
62.235 17.599884
62.240 17.662664
62.245 17.585667
62.250 17.176531
62.255 17.587458
62.260 17.400166
62.265 17.682608
62.270 17.422699
62.275 16.673143
62.280 16.438042
62.285 16.898546
62.290 16.853188
62.295 16.296268
62.300 16.029789
62.305 16.290222
62.310 16.193417
62.315 16.611609
62.320 16.823505
62.325 16.81901
62.330 17.230762
62.335 17.074657
62.340 16.97814
62.345 17.697157
62.350 17.017746
62.355 17.0091
62.360 17.18124
62.365 17.487419
62.370 17.473648
62.375 17.327543
62.380 17.090179
62.385 17.390211
62.390 17.117159
62.395 17.331331
62.400 17.423883
62.405 17.326904
62.410 17.646152
62.415 17.728237
62.420 17.872253
62.425 17.858089
62.430 17.417944
62.435 17.493294
62.440 17.664122
62.445 17.713114
62.450 17.70575
62.455 18.099321
62.460 19.018641
62.465 19.963631
62.470 20.021435
62.475 20.218693
62.480 20.166969
62.485 19.612003
62.490 19.265766
62.495 18.719095
62.500 18.201746
62.505 17.685738
62.510 17.428167
62.515 17.551119
62.520 17.653479
62.525 17.505157
62.530 17.251228
62.535 17.330456
62.540 17.765881
62.545 18.283628
62.550 17.850113
62.555 18.074717
62.560 18.094803
62.565 18.545567
62.570 17.87277
62.575 17.555326
62.580 17.317398
62.585 17.106911
62.590 16.594503
62.595 16.104992
62.600 15.672809
62.605 15.74986
62.610 15.264473
62.615 15.342628
62.620 15.79788
62.625 16.069557
62.630 16.525089
62.635 16.673218
62.640 16.949186
62.645 17.197735
62.650 16.533276
62.655 16.535103
62.660 16.889269
62.665 16.857183
62.670 17.056749
62.675 17.399071
62.680 17.720861
62.685 18.081161
62.690 18.48332
62.695 18.33852
62.700 17.833635
62.705 17.281977
62.710 17.036249
62.715 17.151228
62.720 17.652166
62.725 17.674898
62.730 18.30002
62.735 19.341499
62.740 19.710093
62.745 19.694799
62.750 19.420452
62.755 19.162893
62.760 19.502012
62.765 19.175152
62.770 18.545336
62.775 18.38648
62.780 17.796463
62.785 18.069555
62.790 17.910744
62.795 17.228334
62.800 17.53281
62.805 18.023783
62.810 18.541832
62.815 18.742182
62.820 18.549974
62.825 18.661013
62.830 19.089251
62.835 19.052864
62.840 18.938114
62.845 18.677187
62.850 18.936979
62.855 18.759432
62.860 19.001778
62.865 18.302624
62.870 17.933516
62.875 17.895741
62.880 17.761604
62.885 17.832163
62.890 17.877993
62.895 17.659019
62.900 17.951429
62.905 17.841801
62.910 17.509029
62.915 17.811184
62.920 17.923573
62.925 17.864914
62.930 17.831242
62.935 18.078453
62.940 17.663494
62.945 17.784317
62.950 18.114298
62.955 17.946285
62.960 17.710333
62.965 17.82107
62.970 17.786758
62.975 18.612219
62.980 18.556097
62.985 17.746107
62.990 18.071482
62.995 18.134962
63.000 18.13447
63.005 17.73947
63.010 17.669281
63.015 17.787935
63.020 18.100443
63.025 17.757612
63.030 17.945738
63.035 17.925465
63.040 18.795094
63.045 18.554575
63.050 18.382345
63.055 18.1472
63.060 18.312063
63.065 18.268824
63.070 18.114117
63.075 17.482029
63.080 17.248075
63.085 17.040472
63.090 17.246372
63.095 17.167315
63.100 16.921721
63.105 16.889912
63.110 16.572144
63.115 17.141666
63.120 17.549149
63.125 17.424355
63.130 17.547224
63.135 17.356216
63.140 17.248957
63.145 16.726992
63.150 15.800388
63.155 15.175177
63.160 15.788344
63.165 16.545883
63.170 16.700554
63.175 16.387474
63.180 16.728745
63.185 17.146797
63.190 17.524641
63.195 16.868515
63.200 16.220877
63.205 16.437979
63.210 17.441879
63.215 18.048347
63.220 18.187447
63.225 18.273151
63.230 18.377287
63.235 18.168896
63.240 18.395956
63.245 17.867292
63.250 18.042536
63.255 18.268528
63.260 18.368938
63.265 17.728266
63.270 17.83798
63.275 18.274565
63.280 18.598845
63.285 18.743814
63.290 19.057081
63.295 19.486059
63.300 20.330729
63.305 20.051098
63.310 19.532598
63.315 19.488678
63.320 19.110544
63.325 19.137924
63.330 19.07584
63.335 19.058863
63.340 19.659735
63.345 19.695364
63.350 19.927931
63.355 19.922224
63.360 19.730373
63.365 20.295986
63.370 20.429239
63.375 20.196384
63.380 20.464697
63.385 19.858173
63.390 19.357723
63.395 19.28734
63.400 18.651854
63.405 18.112741
63.410 17.68718
63.415 17.304321
63.420 17.907917
63.425 18.084959
63.430 17.886021
63.435 17.667421
63.440 17.694355
63.445 17.541088
63.450 17.332928
63.455 17.10214
63.460 17.283588
63.465 17.173969
63.470 17.298801
63.475 17.451145
63.480 17.423546
63.485 17.476236
63.490 17.245138
63.495 17.1835
63.500 17.360262
63.505 17.551411
63.510 17.530037
63.515 17.94009
63.520 18.320751
63.525 18.222599
63.530 18.109856
63.535 18.620275
63.540 18.921282
63.545 18.870481
63.550 19.00824
63.555 18.89119
63.560 19.214804
63.565 19.510914
63.570 18.812424
63.575 18.524372
63.580 18.153736
63.585 17.912598
63.590 17.454674
63.595 17.246704
63.600 16.972267
63.605 16.733234
63.610 16.520996
63.615 17.027189
63.620 17.284601
63.625 17.772573
63.630 18.115017
63.635 17.968512
63.640 18.074469
63.645 18.795473
63.650 18.808784
63.655 18.633472
63.660 18.916513
63.665 18.592752
63.670 18.965593
63.675 19.245712
63.680 18.996153
63.685 19.568378
63.690 20.072157
63.695 20.796213
63.700 21.098328
63.705 21.532873
63.710 21.462801
63.715 21.343851
63.720 20.777081
63.725 20.161837
63.730 19.579554
63.735 20.080187
63.740 20.069029
63.745 20.306894
63.750 20.235289
63.755 20.205688
63.760 20.488787
63.765 20.330328
63.770 19.775377
63.775 19.461731
63.780 19.238367
63.785 19.092506
63.790 19.14196
63.795 19.188538
63.800 19.197575
63.805 18.843204
63.810 18.50642
63.815 18.855045
63.820 19.246836
63.825 19.339405
63.830 19.3591
63.835 19.806784
63.840 20.587259
63.845 20.329992
63.850 20.10253
63.855 20.111376
63.860 19.654671
63.865 19.960007
63.870 20.259369
63.875 20.212837
63.880 21.093653
63.885 21.488272
63.890 21.083134
63.895 21.313202
63.900 21.034178
63.905 20.361128
63.910 20.107737
63.915 19.66563
63.920 19.715935
63.925 20.84094
63.930 20.683113
63.935 20.87396
63.940 21.902971
63.945 23.290379
63.950 23.853849
63.955 23.829226
63.960 23.277269
63.965 23.738899
63.970 23.491669
63.975 23.044254
63.980 22.252676
63.985 22.121742
63.990 22.617157
63.995 23.435146
64.000 23.144676
64.005 23.353138
64.010 24.008631
64.015 25.193731
64.020 25.102255
64.025 24.224417
64.030 23.945415
64.035 24.401991
64.040 24.46546
64.045 24.339361
64.050 24.194691
64.055 23.920656
64.060 24.153772
64.065 23.79681
64.070 24.64971
64.075 24.81152
64.080 24.323753
64.085 23.715176
64.090 23.552181
64.095 23.082651
64.100 22.707617
64.105 21.515303
64.110 21.420513
64.115 21.305073
64.120 21.155951
64.125 21.443569
64.130 22.204733
64.135 22.562292
64.140 22.888544
64.145 23.111195
64.150 22.944759
64.155 22.645889
64.160 22.829603
64.165 23.166559
64.170 23.334181
64.175 23.556614
64.180 23.169502
64.185 22.940636
64.190 23.21682
64.195 23.735792
64.200 23.461504
64.205 22.651785
64.210 22.425999
64.215 22.603754
64.220 22.922663
64.225 22.856167
64.230 23.039459
64.235 22.909473
64.240 23.593906
64.245 23.290142
64.250 23.164112
64.255 23.034071
64.260 23.040876
64.265 22.177853
64.270 22.912891
64.275 23.195076
64.280 23.528042
64.285 24.026428
64.290 24.147148
64.295 24.650917
64.300 24.933289
64.305 24.65029
64.310 24.221895
64.315 24.132189
64.320 23.339659
64.325 23.130884
64.330 22.538891
64.335 22.224741
64.340 21.51709
64.345 21.333525
64.350 21.471827
64.355 21.646309
64.360 22.173918
64.365 22.470566
64.370 22.468466
64.375 23.236921
64.380 23.877598
64.385 23.537512
64.390 23.116426
64.395 22.935595
64.400 22.933336
64.405 23.144999
64.410 22.831362
64.415 22.609751
64.420 22.621502
64.425 22.782179
64.430 22.18889
64.435 21.64024
64.440 21.848026
64.445 21.890509
64.450 22.047392
64.455 22.442316
64.460 22.795898
64.465 23.106129
64.470 24.059385
64.475 24.061184
64.480 23.712088
64.485 23.177752
64.490 22.450338
64.495 22.358593
64.500 22.400951
64.505 22.30566
64.510 21.939617
64.515 21.860136
64.520 21.665686
64.525 22.166374
64.530 22.327461
64.535 21.986444
64.540 21.353336
64.545 21.511152
64.550 21.82793
64.555 22.316484
64.560 22.454
64.565 22.224314
64.570 22.479713
64.575 22.066462
64.580 21.294096
64.585 21.055122
64.590 20.817684
64.595 20.721411
64.600 20.78886
64.605 20.48955
64.610 21.103983
64.615 21.738045
64.620 21.600645
64.625 22.021624
64.630 22.193447
64.635 22.26992
64.640 22.983706
64.645 23.416746
64.650 23.848492
64.655 23.81813
64.660 23.514273
64.665 23.086744
64.670 23.126429
64.675 22.796934
64.680 22.079243
64.685 21.866581
64.690 21.92148
64.695 21.895065
64.700 22.332703
64.705 21.642452
64.710 21.108456
64.715 21.035315
64.720 21.138273
64.725 21.369579
64.730 21.47768
64.735 21.142817
64.740 21.230749
64.745 21.259535
64.750 21.272686
64.755 20.707205
64.760 20.463066
64.765 20.375132
64.770 20.621414
64.775 21.331749
64.780 22.237745
64.785 23.321012
64.790 24.079029
64.795 24.478334
64.800 24.923491
64.805 25.046743
64.810 24.43334
64.815 23.686686
64.820 22.719259
64.825 22.161829
64.830 21.510019
64.835 21.03301
64.840 20.499809
64.845 20.724012
64.850 20.896803
64.855 20.784576
64.860 20.591938
64.865 21.099731
64.870 21.608181
64.875 22.281273
64.880 22.388565
64.885 22.934849
64.890 23.509653
64.895 23.657055
64.900 23.670233
64.905 23.466621
64.910 23.103064
64.915 23.511059
64.920 23.388844
64.925 23.259434
64.930 23.778605
64.935 23.743517
64.940 24.175119
64.945 23.975138
64.950 23.892981
64.955 24.20771
64.960 24.11359
64.965 23.737696
64.970 23.476473
64.975 22.976788
64.980 23.337566
64.985 23.034384
64.990 22.978737
64.995 23.691521
65.000 23.737459
65.005 24.271894
65.010 24.529308
65.015 24.595814
65.020 24.743845
65.025 24.448137
65.030 24.027149
65.035 24.904448
65.040 25.177578
65.045 25.432505
65.050 24.998755
65.055 25.351625
65.060 26.316681
65.065 26.655636
65.070 25.798792
65.075 25.720528
65.080 26.014847
65.085 26.822527
65.090 26.064547
65.095 25.474627
65.100 25.314886
65.105 25.591112
65.110 25.346977
65.115 24.295057
65.120 23.637205
65.125 23.839201
65.130 23.747362
65.135 23.709181
65.140 23.291626
65.145 23.353327
65.150 23.844061
65.155 24.464685
65.160 25.002588
65.165 24.98962
65.170 25.104973
65.175 24.949451
65.180 24.552197
65.185 24.628159
65.190 24.078344
65.195 23.510155
65.200 23.870987
65.205 24.47707
65.210 25.394173
65.215 26.144039
65.220 26.629717
65.225 27.074472
65.230 26.829229
65.235 26.574888
65.240 25.494314
65.245 24.822725
65.250 24.307964
65.255 24.11899
65.260 23.860226
65.265 23.796251
65.270 23.799671
65.275 24.182032
65.280 24.274755
65.285 24.132322
65.290 23.890594
65.295 24.159304
65.300 24.261303
65.305 24.304247
65.310 24.285183
65.315 24.230051
65.320 24.378664
65.325 24.412004
65.330 24.632137
65.335 24.573122
65.340 24.480656
65.345 24.502983
65.350 24.592264
65.355 25.138868
65.360 25.165903
65.365 25.444506
65.370 25.367872
65.375 25.17001
65.380 26.02939
65.385 25.850193
65.390 25.704994
65.395 26.066608
65.400 26.236713
65.405 26.471361
65.410 26.474689
65.415 26.120577
65.420 26.422279
65.425 26.632608
65.430 26.438793
65.435 26.429588
65.440 26.505453
65.445 26.488682
65.450 26.555504
65.455 26.290474
65.460 25.962099
65.465 25.510782
65.470 24.684259
65.475 24.669428
65.480 25.26594
65.485 25.274998
65.490 25.447596
65.495 25.291874
65.500 25.885988
65.505 26.840567
65.510 27.282463
65.515 27.165176
65.520 27.233149
65.525 27.835625
65.530 28.312456
65.535 28.089531
65.540 27.682661
65.545 27.15136
65.550 27.107479
65.555 26.975893
65.560 26.455807
65.565 26.411549
65.570 26.801357
65.575 27.324017
65.580 27.863779
65.585 28.018288
65.590 28.26116
65.595 29.210213
65.600 29.021626
65.605 29.167801
65.610 29.532637
65.615 29.720352
65.620 29.382984
65.625 29.228968
65.630 29.116926
65.635 28.925274
65.640 28.322424
65.645 27.345587
65.650 26.677692
65.655 26.512396
65.660 26.060396
65.665 26.296322
65.670 27.381475
65.675 28.023438
65.680 28.692869
65.685 29.390795
65.690 29.957724
65.695 30.331509
65.700 30.364128
65.705 30.338196
65.710 30.935089
65.715 31.748716
65.720 32.552013
65.725 32.698044
65.730 32.914288
65.735 33.253643
65.740 33.297276
65.745 33.018726
65.750 32.289398
65.755 32.386776
65.760 33.245354
65.765 33.882351
65.770 34.124023
65.775 34.363853
65.780 34.838326
65.785 34.787983
65.790 34.215523
65.795 33.047882
65.800 32.330124
65.805 32.415771
65.810 32.450111
65.815 32.271496
65.820 32.819557
65.825 33.224163
65.830 33.491257
65.835 33.830833
65.840 34.447525
65.845 34.660759
65.850 34.322075
65.855 34.384624
65.860 34.520935
65.865 35.80127
65.870 35.858776
65.875 35.047421
65.880 34.600082
65.885 35.491348
65.890 36.043076
65.895 36.660488
65.900 36.574329
65.905 36.7943
65.910 38.122822
65.915 38.604931
65.920 39.224442
65.925 39.110584
65.930 38.715916
65.935 38.476318
65.940 38.490196
65.945 38.379314
65.950 38.600697
65.955 37.794445
65.960 37.856709
65.965 37.901241
65.970 38.041569
65.975 37.942154
65.980 37.426414
65.985 37.019039
65.990 37.297848
65.995 38.214802
66.000 38.66774
66.005 38.410374
66.010 38.092045
66.015 37.682129
66.020 38.268616
66.025 38.603107
66.030 38.813381
66.035 38.274155
66.040 38.575996
66.045 39.126472
66.050 40.27993
66.055 40.319599
66.060 40.464226
66.065 40.317455
66.070 40.966061
66.075 40.546593
66.080 39.575363
66.085 39.014908
66.090 39.5284
66.095 39.177464
66.100 38.932789
66.105 39.331402
66.110 40.924732
66.115 41.59605
66.120 41.44545
66.125 40.908493
66.130 41.77541
66.135 41.593636
66.140 41.668766
66.145 40.679092
66.150 40.819763
66.155 41.032612
66.160 40.626102
66.165 40.164703
66.170 40.734715
66.175 39.977539
66.180 39.783714
66.185 39.141773
66.190 39.192345
66.195 38.703201
66.200 38.716049
66.205 38.134636
66.210 38.372417
66.215 38.282608
66.220 38.386009
66.225 37.949516
66.230 38.337696
66.235 38.181614
66.240 37.972027
66.245 37.749584
66.250 38.128326
66.255 38.392982
66.260 38.406845
66.265 38.898693
66.270 38.986805
66.275 39.49226
66.280 39.364048
66.285 39.681145
66.290 39.751427
66.295 39.983608
66.300 39.535286
66.305 39.676075
66.310 39.739891
66.315 39.863205
66.320 39.340714
66.325 39.111561
66.330 38.34129
66.335 38.283047
66.340 37.399353
66.345 36.890144
66.350 36.068535
66.355 36.057213
66.360 36.082134
66.365 36.643757
66.370 36.520836
66.375 35.712975
66.380 35.164928
66.385 35.038235
66.390 34.400879
66.395 34.389351
66.400 34.48365
66.405 34.409111
66.410 33.500122
66.415 33.543961
66.420 33.229603
66.425 33.069874
66.430 32.70647
66.435 32.214657
66.440 32.200642
66.445 33.012924
66.450 32.976067
66.455 32.560658
66.460 32.023323
66.465 31.407089
66.470 31.105858
66.475 30.319109
66.480 30.255686
66.485 30.013344
66.490 30.392479
66.495 30.437683
66.500 30.306667
66.505 30.335762
66.510 30.523373
66.515 29.984224
66.520 29.824764
66.525 29.715433
66.530 29.605362
66.535 29.476719
66.540 28.953335
66.545 27.884418
66.550 26.834799
66.555 25.92778
66.560 25.323612
66.565 25.633331
66.570 25.860226
66.575 25.766592
66.580 25.552853
66.585 25.778631
66.590 25.325575
66.595 25.593334
66.600 24.992918
66.605 24.496805
66.610 24.783525
66.615 25.389015
66.620 25.762573
66.625 25.603809
66.630 25.255316
66.635 25.301378
66.640 25.456902
66.645 25.537247
66.650 25.223024
66.655 24.867723
66.660 24.805038
66.665 24.228691
66.670 23.642715
66.675 22.904562
66.680 22.651493
66.685 22.816339
66.690 22.868237
66.695 23.185163
66.700 23.637224
66.705 23.840252
66.710 23.828608
66.715 23.005388
66.720 22.972824
66.725 22.904541
66.730 22.258657
66.735 22.011295
66.740 22.259792
66.745 22.250282
66.750 22.328398
66.755 22.217039
66.760 22.732592
66.765 23.393227
66.770 23.501116
66.775 23.36665
66.780 23.476673
66.785 23.506622
66.790 23.091747
66.795 22.482445
66.800 21.952452
66.805 21.754215
66.810 21.508821
66.815 21.158455
66.820 21.06768
66.825 20.886776
66.830 21.181622
66.835 21.415403
66.840 21.539238
66.845 21.637867
66.850 21.623821
66.855 21.53863
66.860 21.434067
66.865 20.896875
66.870 20.676685
66.875 19.95006
66.880 19.760931
66.885 20.252264
66.890 20.955238
66.895 20.987396
66.900 21.25275
66.905 21.187269
66.910 21.623653
66.915 21.847004
66.920 21.647633
66.925 21.388683
66.930 21.456169
66.935 21.606121
66.940 22.152918
66.945 22.099686
66.950 21.652954
66.955 21.809378
66.960 22.234339
66.965 22.234253
66.970 22.125763
66.975 21.796247
66.980 21.820578
66.985 21.826347
66.990 21.759111
66.995 21.641552
67.000 22.300129
67.005 22.065973
67.010 21.773989
67.015 21.623018
67.020 21.61451
67.025 21.675613
67.030 21.814102
67.035 21.94607
67.040 21.786221
67.045 21.519978
67.050 22.072023
67.055 22.920778
67.060 22.836201
67.065 22.053347
67.070 20.508484
67.075 20.598631
67.080 20.583139
67.085 20.161821
67.090 19.700611
67.095 19.485689
67.100 19.708765
67.105 20.049757
67.110 20.164633
67.115 20.570467
67.120 19.998589
67.125 19.255421
67.130 19.424267
67.135 19.595695
67.140 19.154884
67.145 19.082993
67.150 18.755159
67.155 18.926931
67.160 19.205664
67.165 19.076456
67.170 19.773615
67.175 19.738308
67.180 19.471849
67.185 19.479471
67.190 19.298582
67.195 19.293901
67.200 19.595579
67.205 18.930943
67.210 19.198128
67.215 19.017754
67.220 19.293039
67.225 19.822344
67.230 19.877762
67.235 19.49349
67.240 19.527847
67.245 20.020172
67.250 20.775404
67.255 20.53227
67.260 20.466867
67.265 20.644482
67.270 20.597647
67.275 21.245079
67.280 20.823347
67.285 20.786127
67.290 21.144913
67.295 21.1535
67.300 21.005552
67.305 21.384527
67.310 21.10042
67.315 21.160894
67.320 20.879602
67.325 20.135389
67.330 19.959236
67.335 19.375378
67.340 18.633654
67.345 19.66715
67.350 20.487047
67.355 20.683159
67.360 21.413778
67.365 21.46179
67.370 21.75441
67.375 21.740219
67.380 20.427456
67.385 20.044733
67.390 20.124645
67.395 19.799292
67.400 19.662535
67.405 19.386522
67.410 19.740202
67.415 20.032322
67.420 20.204098
67.425 20.159304
67.430 19.769829
67.435 19.379597
67.440 19.294291
67.445 19.438959
67.450 19.395052
67.455 18.411222
67.460 18.52277
67.465 19.329498
67.470 20.260317
67.475 20.851364
67.480 20.693895
67.485 21.291637
67.490 21.629793
67.495 21.851387
67.500 21.846272
67.505 21.660189
67.510 21.872097
67.515 21.848814
67.520 22.050898
67.525 22.313192
67.530 21.876345
67.535 21.48052
67.540 21.000511
67.545 20.20912
67.550 20.113403
67.555 20.030954
67.560 20.348516
67.565 20.504883
67.570 20.960995
67.575 21.138891
67.580 21.985537
67.585 22.297731
67.590 21.933632
67.595 21.876558
67.600 22.07222
67.605 22.231901
67.610 22.225441
67.615 21.568613
67.620 22.277071
67.625 22.338718
67.630 21.810667
67.635 21.496531
67.640 21.729164
67.645 22.33144
67.650 22.74592
67.655 21.815218
67.660 21.459667
67.665 21.215338
67.670 20.93088
67.675 20.690248
67.680 20.195442
67.685 19.829481
67.690 20.062895
67.695 20.364689
67.700 20.371281
67.705 20.253046
67.710 19.901825
67.715 20.233093
67.720 21.24827
67.725 21.214334
67.730 20.654221
67.735 20.758663
67.740 20.436483
67.745 20.239935
67.750 19.741856
67.755 19.375355
67.760 20.011162
67.765 20.092329
67.770 19.578596
67.775 20.024515
67.780 19.810917
67.785 19.611814
67.790 19.036581
67.795 18.105104
67.800 18.025549
67.805 18.878994
67.810 19.065002
67.815 19.346981
67.820 19.146414
67.825 18.618322
67.830 18.745667
67.835 19.402124
67.840 18.831802
67.845 18.47282
67.850 18.251169
67.855 18.630636
67.860 18.947536
67.865 18.673193
67.870 18.487034
67.875 18.462475
67.880 18.725437
67.885 19.633068
67.890 19.640038
67.895 20.004007
67.900 20.544079
67.905 20.550154
67.910 21.265217
67.915 21.401402
67.920 21.027441
67.925 20.598497
67.930 20.389063
67.935 20.656469
67.940 20.928688
67.945 20.420679
67.950 20.380018
67.955 20.678623
67.960 21.021372
67.965 21.308174
67.970 21.534269
67.975 21.321163
67.980 21.860765
67.985 21.806019
67.990 21.551163
67.995 21.48667
68.000 20.75235
68.005 20.161631
68.010 19.91464
68.015 19.314537
68.020 19.542931
68.025 19.332283
68.030 19.362192
68.035 19.990076
68.040 19.992809
68.045 20.129129
68.050 20.11931
68.055 20.042517
68.060 20.576065
68.065 20.385563
68.070 20.542709
68.075 20.374924
68.080 20.76544
68.085 20.97193
68.090 20.382097
68.095 20.055769
68.100 20.068871
68.105 19.97747
68.110 20.370388
68.115 20.332867
68.120 20.595123
68.125 20.901522
68.130 21.349981
68.135 21.627623
68.140 21.332186
68.145 21.002766
68.150 20.375237
68.155 20.370752
68.160 20.468349
68.165 20.118143
68.170 20.342108
68.175 20.647392
68.180 20.785555
68.185 20.536549
68.190 20.349644
68.195 20.197849
68.200 20.792263
68.205 20.703482
68.210 20.837582
68.215 21.453674
68.220 21.812796
68.225 21.929703
68.230 21.683479
68.235 21.10725
68.240 21.050911
68.245 20.866781
68.250 20.777201
68.255 20.462166
68.260 20.443701
68.265 20.626884
68.270 20.539478
68.275 20.377689
68.280 20.087727
68.285 20.437359
68.290 20.668146
68.295 21.042482
68.300 20.618233
68.305 20.24754
68.310 20.096703
68.315 19.546089
68.320 19.387011
68.325 18.889626
68.330 19.120445
68.335 19.606279
68.340 19.999126
68.345 20.577047
68.350 21.250814
68.355 21.208366
68.360 21.15374
68.365 20.256914
68.370 20.07616
68.375 20.055096
68.380 19.892338
68.385 20.489279
68.390 21.002279
68.395 20.881813
68.400 21.196697
68.405 21.661112
68.410 22.250036
68.415 21.566477
68.420 20.593512
68.425 20.323727
68.430 20.635773
68.435 20.755154
68.440 20.138384
68.445 19.921562
68.450 20.488291
68.455 21.076101
68.460 21.734276
68.465 22.076376
68.470 22.706543
68.475 22.986462
68.480 22.813341
68.485 23.96586
68.490 24.898676
68.495 24.899368
68.500 25.089432
68.505 24.457558
68.510 24.067087
68.515 24.088707
68.520 22.560127
68.525 21.465014
68.530 20.838898
68.535 20.472387
68.540 20.495142
68.545 20.646288
68.550 20.636759
68.555 20.362137
68.560 20.274979
68.565 20.976585
68.570 21.594337
68.575 22.214413
68.580 22.23035
68.585 22.506096
68.590 23.147017
68.595 23.340355
68.600 22.498142
68.605 22.37145
68.610 22.366823
68.615 22.414869
68.620 22.595474
68.625 22.862411
68.630 22.644478
68.635 22.748266
68.640 22.217031
68.645 21.61417
68.650 21.768398
68.655 21.818968
68.660 21.240639
68.665 21.399576
68.670 21.4543
68.675 21.870016
68.680 22.229845
68.685 22.118341
68.690 21.732454
68.695 22.18487
68.700 22.258995
68.705 22.417509
68.710 22.291174
68.715 22.220154
68.720 22.283094
68.725 22.090313
68.730 21.463602
68.735 21.387423
68.740 21.250099
68.745 21.102598
68.750 21.197845
68.755 21.132067
68.760 21.407337
68.765 21.468115
68.770 21.971037
68.775 22.187803
68.780 22.524469
68.785 23.112448
68.790 23.859901
68.795 24.020073
68.800 24.732693
68.805 24.938507
68.810 25.550131
68.815 25.876619
68.820 25.630453
68.825 25.104553
68.830 24.655504
68.835 24.014999
68.840 23.298389
68.845 22.797956
68.850 22.547846
68.855 22.435415
68.860 22.330715
68.865 22.574131
68.870 22.896542
68.875 23.300606
68.880 22.701826
68.885 22.023304
68.890 21.65292
68.895 22.127621
68.900 23.428535
68.905 23.090969
68.910 23.018616
68.915 23.765896
68.920 23.785305
68.925 23.978277
68.930 24.016525
68.935 24.128345
68.940 24.136957
68.945 23.799248
68.950 23.68605
68.955 24.268938
68.960 24.570185
68.965 23.693581
68.970 23.12792
68.975 22.870005
68.980 23.420908
68.985 23.947882
68.990 23.754374
68.995 23.599867
69.000 24.074322
69.005 24.615217
69.010 25.13212
69.015 25.133942
69.020 24.587654
69.025 24.578264
69.030 25.15856
69.035 25.370491
69.040 25.755165
69.045 25.897501
69.050 25.839211
69.055 27.031057
69.060 27.648655
69.065 27.737907
69.070 27.489145
69.075 27.801636
69.080 28.164
69.085 28.459988
69.090 28.451347
69.095 28.214725
69.100 28.663828
69.105 29.096857
69.110 29.193325
69.115 29.467016
69.120 29.723026
69.125 29.291502
69.130 29.10342
69.135 28.881336
69.140 29.448154
69.145 29.137871
69.150 28.653597
69.155 28.633356
69.160 28.749418
69.165 28.135677
69.170 27.782663
69.175 27.648191
69.180 28.456705
69.185 28.967539
69.190 28.957071
69.195 28.936686
69.200 29.684443
69.205 29.405643
69.210 30.05423
69.215 29.938263
69.220 29.65081
69.225 29.43339
69.230 30.173597
69.235 30.995316
69.240 31.284403
69.245 30.886879
69.250 31.035522
69.255 31.285116
69.260 30.969561
69.265 29.443344
69.270 28.567039
69.275 28.462002
69.280 28.059237
69.285 27.006905
69.290 26.976849
69.295 27.867481
69.300 28.19404
69.305 28.553267
69.310 28.355078
69.315 29.175615
69.320 29.844763
69.325 29.500597
69.330 29.876432
69.335 30.302418
69.340 30.90402
69.345 31.656263
69.350 31.611893
69.355 32.110981
69.360 32.609501
69.365 32.962769
69.370 33.268635
69.375 33.071098
69.380 32.913132
69.385 32.565857
69.390 33.284256
69.395 33.745171
69.400 33.126156
69.405 32.493725
69.410 32.863976
69.415 32.927528
69.420 32.655529
69.425 32.036919
69.430 32.320389
69.435 33.543957
69.440 33.48407
69.445 34.367687
69.450 34.781216
69.455 34.820328
69.460 34.573467
69.465 34.265533
69.470 33.769653
69.475 33.709366
69.480 33.159084
69.485 33.38876
69.490 34.307732
69.495 34.254524
69.500 33.895905
69.505 33.940193
69.510 34.019257
69.515 34.021587
69.520 33.288952
69.525 32.545521
69.530 32.354092
69.535 32.267273
69.540 32.718266
69.545 33.108257
69.550 32.775558
69.555 33.326176
69.560 34.033813
69.565 34.176853
69.570 34.047417
69.575 33.91581
69.580 33.931507
69.585 33.341057
69.590 32.006863
69.595 31.551702
69.600 31.500645
69.605 31.221889
69.610 31.68437
69.615 31.883188
69.620 32.173256
69.625 32.176865
69.630 32.680515
69.635 33.201683
69.640 33.66325
69.645 32.653931
69.650 31.4603
69.655 31.088686
69.660 31.572433
69.665 31.2687
69.670 30.866865
69.675 30.435629
69.680 30.324377
69.685 30.904078
69.690 31.102589
69.695 30.369867
69.700 30.035366
69.705 30.016493
69.710 30.240294
69.715 30.088722
69.720 29.772568
69.725 30.055593
69.730 29.490772
69.735 29.331139
69.740 29.072023
69.745 28.974888
69.750 29.143267
69.755 29.191071
69.760 29.460506
69.765 30.402205
69.770 30.557377
69.775 30.152306
69.780 30.047089
69.785 30.376783
69.790 30.804571
69.795 30.515652
69.800 29.312838
69.805 29.477852
69.810 29.055401
69.815 28.489302
69.820 28.137852
69.825 28.119795
69.830 27.562023
69.835 27.723291
69.840 27.17042
69.845 27.089212
69.850 27.165565
69.855 26.715876
69.860 26.885126
69.865 27.772881
69.870 27.5776
69.875 28.200108
69.880 28.304415
69.885 27.884111
69.890 27.529774
69.895 26.16288
69.900 24.861326
69.905 24.142088
69.910 23.087435
69.915 22.803177
69.920 23.012819
69.925 23.252943
69.930 24.183811
69.935 24.716909
69.940 25.238949
69.945 25.437845
69.950 25.890539
69.955 25.21629
69.960 24.30974
69.965 23.161709
69.970 22.626945
69.975 22.489832
69.980 22.886322
69.985 22.973248
69.990 23.207205
69.995 23.552763
70.000 23.928074
70.005 23.419411
70.010 23.36091
70.015 22.929199
70.020 22.527624
70.025 22.900129
70.030 22.639118
70.035 22.342201
70.040 22.647177
70.045 22.478283
70.050 21.922411
70.055 21.813183
70.060 21.598265
70.065 21.581034
70.070 21.656734
70.075 21.552515
70.080 21.279415
70.085 21.476713
70.090 21.669846
70.095 21.603018
70.100 21.49103
70.105 21.718712
70.110 21.779232
70.115 22.146029
70.120 22.274347
70.125 21.975681
70.130 21.831072
70.135 22.204107
70.140 21.657112
70.145 21.458742
70.150 21.114904
70.155 20.910385
70.160 21.108927
70.165 21.237688
70.170 21.194929
70.175 21.421265
70.180 21.478868
70.185 21.620197
70.190 21.720396
70.195 21.838787
70.200 21.637932
70.205 20.921457
70.210 20.659946
70.215 20.88739
70.220 21.222542
70.225 21.075817
70.230 20.309334
70.235 20.316185
70.240 20.397343
70.245 20.68405
70.250 20.228092
70.255 20.111458
70.260 20.136787
70.265 20.630817
70.270 20.819725
70.275 21.317331
70.280 21.634859
70.285 21.590128
70.290 21.274321
70.295 21.03944
70.300 20.903435
70.305 20.478588
70.310 20.298553
70.315 19.566523
70.320 19.904707
70.325 19.696945
70.330 19.307468
70.335 18.64864
70.340 18.593998
70.345 19.021536
70.350 19.317394
70.355 18.781685
70.360 19.400942
70.365 19.760571
70.370 20.351542
70.375 20.779732
70.380 20.459454
70.385 19.899826
70.390 19.968819
70.395 20.232584
70.400 20.176878
70.405 19.727217
70.410 19.617756
70.415 19.674633
70.420 20.164202
70.425 20.216782
70.430 19.942753
70.435 19.924877
70.440 19.567175
70.445 18.89393
70.450 18.816013
70.455 18.849346
70.460 18.878614
70.465 19.245564
70.470 19.760366
70.475 20.215933
70.480 19.803625
70.485 19.494686
70.490 19.578016
70.495 19.406334
70.500 19.092134
70.505 18.956909
70.510 19.263695
70.515 20.21562
70.520 20.379887
70.525 20.631859
70.530 20.787231
70.535 20.990511
70.540 21.528379
70.545 21.652088
70.550 21.939375
70.555 22.076687
70.560 22.137064
70.565 22.323048
70.570 21.888859
70.575 21.153889
70.580 20.392735
70.585 20.259237
70.590 20.195274
70.595 19.778414
70.600 19.604815
70.605 20.254763
70.610 20.769461
70.615 20.94268
70.620 21.070177
70.625 20.874779
70.630 20.749018
70.635 20.458626
70.640 20.216402
70.645 20.247166
70.650 19.760582
70.655 19.50066
70.660 19.810165
70.665 19.479204
70.670 19.193295
70.675 19.271336
70.680 19.106293
70.685 19.189829
70.690 18.775352
70.695 18.442522
70.700 18.41305
70.705 18.065527
70.710 17.53162
70.715 17.616058
70.720 17.663586
70.725 18.183142
70.730 18.450817
70.735 18.840563
70.740 19.716383
70.745 19.974955
70.750 21.018669
70.755 21.32119
70.760 20.9147
70.765 21.216249
70.770 21.345276
70.775 21.030754
70.780 20.510399
70.785 19.617352
70.790 19.696432
70.795 19.356482
70.800 19.420506
70.805 19.358419
70.810 19.305399
70.815 19.89591
70.820 19.880945
70.825 19.520603
70.830 19.722996
70.835 19.269838
70.840 19.380386
70.845 19.642315
70.850 19.814741
70.855 20.024517
70.860 20.082457
70.865 20.301701
70.870 20.555031
70.875 20.21895
70.880 19.914604
70.885 19.794209
70.890 20.275578
70.895 19.842289
70.900 19.802113
70.905 19.497234
70.910 19.499155
70.915 19.631659
70.920 18.828903
70.925 19.164139
70.930 19.536562
70.935 19.382711
70.940 19.387278
70.945 19.557489
70.950 19.442377
70.955 19.909311
70.960 19.248735
70.965 19.362299
70.970 19.706505
70.975 20.192776
70.980 20.349722
70.985 20.358017
70.990 19.942572
70.995 19.362867
71.000 19.218561
71.005 19.146999
71.010 18.62891
71.015 18.509762
71.020 18.587843
71.025 18.717033
71.030 18.961594
71.035 18.527065
71.040 18.372068
71.045 18.334435
71.050 17.969397
71.055 18.130737
71.060 18.226715
71.065 18.444292
71.070 18.305912
71.075 18.143972
71.080 18.346035
71.085 18.585407
71.090 18.403982
71.095 18.755196
71.100 18.870117
71.105 19.539207
71.110 19.142485
71.115 18.990385
71.120 18.29586
71.125 18.661345
71.130 19.186174
71.135 19.467863
71.140 19.171806
71.145 19.184504
71.150 19.535751
71.155 20.143438
71.160 19.318945
71.165 18.574009
71.170 18.383959
71.175 18.993422
71.180 18.919807
71.185 18.386576
71.190 18.346512
71.195 18.553854
71.200 18.73213
71.205 18.978155
71.210 19.011454
71.215 19.374136
71.220 19.205656
71.225 19.079706
71.230 18.64447
71.235 18.53985
71.240 18.520309
71.245 18.452074
71.250 18.544487
71.255 18.449648
71.260 18.406883
71.265 19.543911
71.270 19.977352
71.275 19.921873
71.280 19.761932
71.285 19.71863
71.290 20.290285
71.295 20.397419
71.300 19.567293
71.305 19.073782
71.310 18.975414
71.315 19.333065
71.320 19.337334
71.325 18.86342
71.330 18.778492
71.335 18.691105
71.340 19.284943
71.345 19.296253
71.350 19.296122
71.355 19.790731
71.360 20.136438
71.365 19.989399
71.370 19.461149
71.375 19.410374
71.380 19.609753
71.385 19.253994
71.390 18.803696
71.395 18.354319
71.400 18.201944
71.405 18.646963
71.410 18.893597
71.415 19.037361
71.420 19.062525
71.425 18.950983
71.430 19.512955
71.435 20.247583
71.440 19.98632
71.445 19.438478
71.450 19.320702
71.455 19.501282
71.460 19.687658
71.465 19.181032
71.470 18.456802
71.475 17.931124
71.480 17.828684
71.485 17.535971
71.490 17.698118
71.495 17.663296
71.500 17.995859
71.505 18.379936
71.510 18.674107
71.515 18.787556
71.520 18.850925
71.525 18.663044
71.530 18.620031
71.535 19.794724
71.540 19.906414
71.545 19.923464
71.550 19.556244
71.555 19.282883
71.560 19.210905
71.565 18.636963
71.570 17.906694
71.575 17.897455
71.580 17.936966
71.585 18.031544
71.590 18.155968
71.595 18.316271
71.600 18.541721
71.605 17.980734
71.610 17.722551
71.615 17.368032
71.620 17.682184
71.625 17.518028
71.630 17.255127
71.635 17.419262
71.640 17.693991
71.645 17.75428
71.650 17.603281
71.655 17.417133
71.660 17.672031
71.665 17.775778
71.670 17.778709
71.675 18.049757
71.680 18.643982
71.685 19.332251
71.690 19.061954
71.695 19.488375
71.700 19.500275
71.705 18.847843
71.710 18.610813
71.715 18.328249
71.720 18.889822
71.725 19.087074
71.730 18.612944
71.735 18.884186
71.740 18.996483
71.745 18.969238
71.750 18.991835
71.755 18.496515
71.760 18.523581
71.765 18.704998
71.770 19.010626
71.775 19.517826
71.780 20.046869
71.785 20.078285
71.790 20.202974
71.795 20.506142
71.800 20.830744
71.805 21.064846
71.810 20.055485
71.815 19.462381
71.820 19.007086
71.825 18.524351
71.830 18.093582
71.835 17.596323
71.840 17.703506
71.845 18.858942
71.850 19.223518
71.855 19.646118
71.860 19.924603
71.865 19.943876
71.870 20.025419
71.875 19.676128
71.880 19.041454
71.885 18.6905
71.890 18.330324
71.895 18.516453
71.900 18.715126
71.905 18.875345
71.910 18.450953
71.915 18.125935
71.920 18.175867
71.925 18.014078
71.930 17.697552
71.935 17.779865
71.940 17.846481
71.945 18.985989
71.950 19.458374
71.955 18.982946
71.960 19.386446
71.965 19.422609
71.970 18.725634
71.975 18.08746
71.980 17.778137
71.985 17.773907
71.990 17.832056
71.995 17.531801
72.000 17.942678
72.005 18.628834
72.010 18.580767
72.015 18.490847
72.020 19.236361
72.025 20.072294
72.030 20.566801
72.035 20.316137
72.040 20.148083
72.045 20.137693
72.050 20.021797
72.055 19.411655
72.060 18.685129
72.065 18.445726
72.070 18.663177
72.075 18.74692
72.080 19.025692
72.085 19.03804
72.090 19.026365
72.095 18.491802
72.100 18.009327
72.105 18.041761
72.110 17.991671
72.115 17.616386
72.120 18.286831
72.125 18.896481
72.130 19.268139
72.135 19.667963
72.140 19.141367
72.145 18.491737
72.150 17.687756
72.155 17.208935
72.160 17.774506
72.165 17.818567
72.170 17.685366
72.175 18.282459
72.180 18.966324
72.185 19.086115
72.190 18.970312
72.195 17.859341
72.200 17.634016
72.205 17.529121
72.210 17.412388
72.215 16.90288
72.220 16.505869
72.225 16.535128
72.230 17.061771
72.235 17.698397
72.240 17.489937
72.245 18.020634
72.250 18.175756
72.255 18.396124
72.260 18.373425
72.265 18.066353
72.270 17.861309
72.275 17.896826
72.280 18.243643
72.285 19.348955
72.290 19.568623
72.295 19.653284
72.300 19.81015
72.305 20.034912
72.310 19.793297
72.315 19.042143
72.320 18.191433
72.325 18.205601
72.330 18.388138
72.335 17.75391
72.340 17.599541
72.345 18.035048
72.350 17.984205
72.355 17.81212
72.360 17.644012
72.365 17.564421
72.370 17.986959
72.375 17.734739
72.380 17.732922
72.385 17.701033
72.390 17.492655
72.395 17.533146
72.400 17.83626
72.405 17.672937
72.410 17.315813
72.415 17.216198
72.420 17.656157
72.425 17.366102
72.430 17.020077
72.435 16.542168
72.440 16.780437
72.445 17.502111
72.450 18.2649
72.455 18.840975
72.460 19.369209
72.465 20.084965
72.470 20.332659
72.475 20.376631
72.480 20.03879
72.485 19.623947
72.490 20.017801
72.495 20.12908
72.500 20.142155
72.505 20.31691
72.510 20.252043
72.515 20.372166
72.520 20.469727
72.525 21.011118
72.530 20.910034
72.535 20.562092
72.540 20.561243
72.545 20.74873
72.550 20.442345
72.555 19.951056
72.560 18.856068
72.565 18.39422
72.570 18.385599
72.575 17.976849
72.580 18.556967
72.585 18.478966
72.590 17.968719
72.595 18.573542
72.600 18.925577
72.605 19.286551
72.610 19.08762
72.615 17.984961
72.620 17.863743
72.625 17.677284
72.630 17.433628
72.635 17.2052
72.640 17.020054
72.645 17.025282
72.650 17.222109
72.655 17.124542
72.660 17.409698
72.665 17.487906
72.670 17.217861
72.675 16.517048
72.680 16.858973
72.685 17.065872
72.690 17.60269
72.695 18.324364
72.700 18.600355
72.705 18.865089
72.710 19.403708
72.715 19.26445
72.720 18.820282
72.725 18.408113
72.730 17.796589
72.735 18.281076
72.740 18.555664
72.745 18.564156
72.750 18.881193
72.755 19.338821
72.760 19.006006
72.765 18.903341
72.770 18.688087
72.775 18.068069
72.780 17.799328
72.785 17.454445
72.790 16.963884
72.795 17.280369
72.800 17.32555
72.805 17.303328
72.810 17.990128
72.815 18.308508
72.820 18.848106
72.825 19.257401
72.830 19.350401
72.835 19.565607
72.840 20.17894
72.845 19.728317
72.850 19.844854
72.855 19.684093
72.860 18.348886
72.865 17.94241
72.870 17.368418
72.875 16.674644
72.880 16.738428
72.885 15.806118
72.890 16.064753
72.895 16.716623
72.900 16.685963
72.905 16.663227
72.910 17.201021
72.915 17.263769
72.920 17.997887
72.925 18.204927
72.930 18.651276
72.935 18.825001
72.940 19.301983
72.945 19.195908
72.950 18.394135
72.955 18.534721
72.960 17.995132
72.965 17.329077
72.970 17.082901
72.975 16.656866
72.980 16.693846
72.985 17.144316
72.990 17.086071
72.995 16.9284
73.000 17.058357
