!@!!GADDS PLOTSO FILE: Chi integration type
!@!!Title/SampleName: map-186
!@!!Comment: ?
!@!!User: Bruker Instrument Administrator
!@!!Site: University of Illinois Chicago
!@!!Frame: map-186_01_000.gfrm
!@!!Wavelengths    1.54184   1.54056   1.54439
!@!!Frame angles: 2Theta: 63.000 Omega: 50.000 Phi: 0.000 Chi: 90.000
!@!!Integration range: 2Theta: 53.000 to 73.000  Gamma: -105.000 to -75.000
!@!!Integration method: bin normalized
!@!N
!@!SS
!@!M
!@!L 0.0 0.0 0.0 0.0
!@!XDegrees
!@!YCounts
53.000 9.813055
53.005 9.416
53.010 9.074229
53.015 9.314474
53.020 9.475094
53.025 9.410179
53.030 9.564145
53.035 9.822474
53.040 10.204011
53.045 9.991762
53.050 9.357474
53.055 9.279313
53.060 9.83775
53.065 9.781792
53.070 9.883736
53.075 10.398398
53.080 10.405266
53.085 10.884112
53.090 10.979649
53.095 11.502686
53.100 11.525796
53.105 11.22811
53.110 11.167164
53.115 11.252447
53.120 10.660667
53.125 10.158114
53.130 9.618133
53.135 9.319395
53.140 9.00408
53.145 8.85417
53.150 8.816643
53.155 8.811218
53.160 8.462787
53.165 8.478085
53.170 8.868768
53.175 8.727415
53.180 8.779138
53.185 9.014697
53.190 9.136751
53.195 9.990783
53.200 10.313681
53.205 10.290674
53.210 10.596219
53.215 10.217987
53.220 10.294581
53.225 10.520082
53.230 10.469869
53.235 10.523075
53.240 10.684678
53.245 10.522092
53.250 10.742935
53.255 10.450782
53.260 10.022816
53.265 9.87007
53.270 9.418296
53.275 9.439407
53.280 9.459901
53.285 9.994582
53.290 10.132601
53.295 10.234865
53.300 10.341355
53.305 10.429928
53.310 10.454118
53.315 10.448985
53.320 9.76714
53.325 9.929048
53.330 9.717806
53.335 9.895243
53.340 9.704552
53.345 9.545023
53.350 9.89796
53.355 9.75987
53.360 9.900586
53.365 9.696234
53.370 9.668527
53.375 9.640315
53.380 9.379415
53.385 8.960548
53.390 9.311538
53.395 9.137136
53.400 9.341069
53.405 9.674286
53.410 10.098915
53.415 10.717637
53.420 11.604027
53.425 12.108341
53.430 12.254803
53.435 12.085955
53.440 12.584119
53.445 12.858128
53.450 12.318979
53.455 11.869654
53.460 11.557824
53.465 11.686117
53.470 11.356023
53.475 10.944431
53.480 10.804946
53.485 11.071171
53.490 11.079792
53.495 10.803955
53.500 10.429294
53.505 10.318273
53.510 10.271507
53.515 10.214222
53.520 10.322966
53.525 10.769607
53.530 10.797255
53.535 11.29339
53.540 11.234871
53.545 11.033887
53.550 10.661675
53.555 10.039787
53.560 9.485019
53.565 9.691597
53.570 9.860859
53.575 9.995335
53.580 10.055243
53.585 10.325515
53.590 10.09178
53.595 10.449648
53.600 10.362204
53.605 10.474977
53.610 10.50516
53.615 10.580513
53.620 10.600497
53.625 10.715223
53.630 10.405274
53.635 10.27331
53.640 10.425583
53.645 10.772076
53.650 10.992274
53.655 10.956672
53.660 10.892974
53.665 10.976041
53.670 10.982039
53.675 10.605934
53.680 10.275451
53.685 10.352835
53.690 10.752415
53.695 11.080589
53.700 10.931503
53.705 11.044825
53.710 11.050792
53.715 10.891504
53.720 11.196344
53.725 10.811489
53.730 10.785192
53.735 10.610478
53.740 10.543801
53.745 10.444552
53.750 10.416977
53.755 10.594783
53.760 10.722744
53.765 10.722099
53.770 11.054007
53.775 11.421384
53.780 11.951195
53.785 12.300445
53.790 12.112932
53.795 12.074809
53.800 12.677874
53.805 12.858605
53.810 12.849112
53.815 12.632455
53.820 12.124903
53.825 12.086279
53.830 12.118163
53.835 11.540248
53.840 11.619821
53.845 11.623867
53.850 11.683364
53.855 12.087289
53.860 12.183079
53.865 12.195369
53.870 11.97692
53.875 11.482996
53.880 11.43261
53.885 11.410021
53.890 11.350621
53.895 11.372551
53.900 11.426824
53.905 11.608529
53.910 11.608064
53.915 11.872286
53.920 11.515708
53.925 11.506436
53.930 11.472765
53.935 12.086128
53.940 12.258208
53.945 12.147849
53.950 12.222573
53.955 12.666855
53.960 12.665878
53.965 11.94233
53.970 10.634925
53.975 10.24853
53.980 9.954865
53.985 9.561483
53.990 9.370999
53.995 9.347902
54.000 9.907561
54.005 11.389945
54.010 12.069856
54.015 11.994465
54.020 12.275851
54.025 12.159204
54.030 11.530134
54.035 11.06848
54.040 10.089164
54.045 10.10603
54.050 10.234329
54.055 9.950827
54.060 10.456386
54.065 11.385363
54.070 11.477427
54.075 11.898265
54.080 11.691893
54.085 11.891332
54.090 12.119448
54.095 12.159858
54.100 12.312699
54.105 12.665607
54.110 12.254643
54.115 11.773684
54.120 11.06676
54.125 10.609568
54.130 10.295017
54.135 9.852779
54.140 9.689503
54.145 9.864462
54.150 10.030183
54.155 10.324823
54.160 10.165089
54.165 9.725028
54.170 9.815852
54.175 9.857042
54.180 9.818223
54.185 10.034313
54.190 10.005473
54.195 9.939701
54.200 10.15851
54.205 10.072172
54.210 10.512693
54.215 10.549811
54.220 10.275714
54.225 10.739431
54.230 10.927391
54.235 11.25628
54.240 11.096847
54.245 10.642085
54.250 11.070022
54.255 11.31619
54.260 11.120515
54.265 11.168139
54.270 11.019332
54.275 11.173313
54.280 11.023941
54.285 11.1482
54.290 11.014671
54.295 10.724885
54.300 10.9136
54.305 10.618789
54.310 10.49995
54.315 10.630337
54.320 10.211871
54.325 10.0471
54.330 10.399141
54.335 9.888112
54.340 10.058425
54.345 10.228751
54.350 10.462408
54.355 10.582854
54.360 10.606045
54.365 10.369626
54.370 11.244373
54.375 11.399405
54.380 10.666464
54.385 10.52701
54.390 10.442657
54.395 10.771475
54.400 11.141255
54.405 11.160538
54.410 11.388625
54.415 11.759928
54.420 11.625257
54.425 11.86192
54.430 11.831884
54.435 11.467044
54.440 11.312939
54.445 11.36486
54.450 11.872014
54.455 12.360811
54.460 12.404921
54.465 12.363155
54.470 12.47293
54.475 12.577493
54.480 12.301254
54.485 11.856967
54.490 11.707932
54.495 11.70221
54.500 11.833488
54.505 11.691173
54.510 11.900257
54.515 12.269479
54.520 12.298153
54.525 12.387502
54.530 12.221742
54.535 12.441725
54.540 12.211664
54.545 11.594512
54.550 11.385666
54.555 11.147424
54.560 10.807395
54.565 10.973579
54.570 10.759161
54.575 10.953263
54.580 11.384663
54.585 11.379203
54.590 11.582232
54.595 11.609416
54.600 11.761008
54.605 12.076885
54.610 12.168224
54.615 12.169064
54.620 12.530555
54.625 12.793602
54.630 13.094875
54.635 12.922375
54.640 12.4366
54.645 11.904573
54.650 11.594563
54.655 11.083978
54.660 10.571372
54.665 10.51883
54.670 10.159833
54.675 10.261598
54.680 10.81319
54.685 10.879546
54.690 11.146443
54.695 11.282076
54.700 11.437361
54.705 11.561851
54.710 11.364983
54.715 11.14364
54.720 11.205818
54.725 11.57889
54.730 11.68893
54.735 11.881904
54.740 12.216668
54.745 12.473994
54.750 12.067374
54.755 11.527201
54.760 10.848254
54.765 10.632731
54.770 10.543616
54.775 10.57128
54.780 10.497
54.785 11.055451
54.790 11.594036
54.795 11.912358
54.800 11.805875
54.805 11.63001
54.810 11.732323
54.815 11.741484
54.820 11.424058
54.825 11.625424
54.830 11.378224
54.835 11.234437
54.840 10.801978
54.845 10.885265
54.850 11.41331
54.855 11.48725
54.860 11.239319
54.865 11.466293
54.870 11.81058
54.875 12.451088
54.880 12.763913
54.885 12.563656
54.890 12.850945
54.895 13.365477
54.900 13.199021
54.905 13.015108
54.910 13.305527
54.915 13.275528
54.920 12.875894
54.925 12.603357
54.930 12.2291
54.935 12.549676
54.940 12.189709
54.945 11.862498
54.950 11.925014
54.955 11.710717
54.960 11.236641
54.965 11.050237
54.970 11.140711
54.975 11.388125
54.980 11.135217
54.985 11.269334
54.990 11.558221
54.995 11.694303
55.000 11.921906
55.005 11.608281
55.010 11.609555
55.015 11.509606
55.020 11.140488
55.025 11.294786
55.030 11.618628
55.035 11.643539
55.040 12.215046
55.045 12.10366
55.050 12.630852
55.055 12.99304
55.060 12.947968
55.065 13.083702
55.070 12.982503
55.075 12.5187
55.080 13.07298
55.085 12.974767
55.090 12.77805
55.095 12.916445
55.100 12.677706
55.105 12.789701
55.110 12.735634
55.115 12.222151
55.120 12.157814
55.125 12.270887
55.130 12.042911
55.135 12.012322
55.140 11.887855
55.145 12.2482
55.150 12.106641
55.155 11.646005
55.160 11.239745
55.165 11.490115
55.170 11.716709
55.175 11.921452
55.180 12.295618
55.185 12.685532
55.190 13.083582
55.195 13.336927
55.200 13.353782
55.205 13.00062
55.210 12.861484
55.215 12.557316
55.220 12.338201
55.225 11.60858
55.230 11.386457
55.235 11.455012
55.240 11.818847
55.245 12.35522
55.250 12.470628
55.255 12.516785
55.260 13.035751
55.265 13.199757
55.270 13.638644
55.275 13.166263
55.280 12.238867
55.285 12.079051
55.290 11.833838
55.295 12.160018
55.300 12.31553
55.305 12.375321
55.310 12.830235
55.315 12.782565
55.320 13.277143
55.325 13.729937
55.330 13.743333
55.335 13.483874
55.340 13.234584
55.345 12.91495
55.350 12.839809
55.355 12.650303
55.360 12.224136
55.365 11.85452
55.370 11.421762
55.375 11.327943
55.380 11.34926
55.385 11.152656
55.390 11.551789
55.395 12.213435
55.400 12.75013
55.405 13.010384
55.410 13.572148
55.415 14.082363
55.420 14.611966
55.425 13.94836
55.430 13.272744
55.435 12.931447
55.440 12.577258
55.445 12.291342
55.450 11.956997
55.455 11.561364
55.460 11.49873
55.465 11.649711
55.470 12.427173
55.475 12.449515
55.480 12.190491
55.485 12.078408
55.490 12.209133
55.495 12.956343
55.500 13.086244
55.505 12.276096
55.510 12.221377
55.515 12.094609
55.520 12.710593
55.525 12.770589
55.530 12.648355
55.535 12.768934
55.540 13.385948
55.545 13.684321
55.550 13.970031
55.555 13.644128
55.560 13.792226
55.565 13.27537
55.570 12.455327
55.575 11.946697
55.580 11.660279
55.585 11.452244
55.590 11.287747
55.595 11.170163
55.600 11.746463
55.605 12.18326
55.610 12.733045
55.615 12.538312
55.620 12.148392
55.625 11.798936
55.630 11.447895
55.635 10.920421
55.640 10.920341
55.645 10.950703
55.650 11.292466
55.655 11.884025
55.660 12.05621
55.665 12.190805
55.670 12.203647
55.675 11.908829
55.680 11.639019
55.685 11.610559
55.690 11.513527
55.695 11.661729
55.700 11.406292
55.705 11.07379
55.710 10.962667
55.715 11.228662
55.720 11.292261
55.725 11.003466
55.730 10.813251
55.735 11.181326
55.740 11.477667
55.745 11.776022
55.750 11.49952
55.755 11.465396
55.760 11.496616
55.765 11.643627
55.770 11.90991
55.775 12.400533
55.780 12.264175
55.785 12.482012
55.790 12.298573
55.795 12.746097
55.800 12.849543
55.805 12.565017
55.810 11.98316
55.815 11.924699
55.820 11.907061
55.825 12.053349
55.830 11.99367
55.835 12.198919
55.840 12.663598
55.845 12.905233
55.850 12.89824
55.855 12.573613
55.860 12.507054
55.865 12.63315
55.870 12.230585
55.875 11.866553
55.880 11.856027
55.885 12.056228
55.890 12.574715
55.895 12.010348
55.900 11.649888
55.905 11.515341
55.910 12.047809
55.915 11.609145
55.920 11.399157
55.925 11.181643
55.930 11.755982
55.935 11.925897
55.940 11.667406
55.945 12.125924
55.950 12.285609
55.955 12.583959
55.960 12.561213
55.965 12.413367
55.970 12.617177
55.975 12.947176
55.980 12.436608
55.985 12.453291
55.990 12.161618
55.995 11.750675
56.000 11.768693
56.005 11.673024
56.010 11.273151
56.015 10.966157
56.020 11.01535
56.025 11.204833
56.030 11.248046
56.035 10.829085
56.040 10.880426
56.045 11.55125
56.050 11.846895
56.055 11.804731
56.060 12.353335
56.065 12.385225
56.070 13.19426
56.075 13.511144
56.080 12.829368
56.085 12.375671
56.090 12.345153
56.095 12.077224
56.100 12.413713
56.105 11.994615
56.110 11.862874
56.115 12.36493
56.120 12.679012
56.125 12.525133
56.130 12.461982
56.135 12.441997
56.140 12.560978
56.145 12.894774
56.150 13.380515
56.155 13.833741
56.160 13.783143
56.165 13.959252
56.170 13.915552
56.175 13.808209
56.180 12.804127
56.185 12.213845
56.190 11.902356
56.195 11.624436
56.200 12.024744
56.205 12.086576
56.210 12.268784
56.215 13.087447
56.220 13.163445
56.225 13.391707
56.230 13.457653
56.235 13.13133
56.240 13.020722
56.245 12.941892
56.250 12.780635
56.255 12.895968
56.260 13.710499
56.265 13.95617
56.270 13.812513
56.275 13.763035
56.280 13.970795
56.285 14.047022
56.290 13.908737
56.295 13.025031
56.300 12.804786
56.305 13.144123
56.310 12.912542
56.315 12.581106
56.320 12.0881
56.325 12.142197
56.330 12.318466
56.335 12.047555
56.340 11.704105
56.345 11.937099
56.350 12.127179
56.355 12.330818
56.360 12.116417
56.365 12.048288
56.370 11.998089
56.375 12.082487
56.380 12.174467
56.385 12.257676
56.390 12.08277
56.395 12.27279
56.400 12.664249
56.405 12.712377
56.410 12.714283
56.415 12.434996
56.420 12.694351
56.425 13.023254
56.430 12.928262
56.435 13.187922
56.440 13.482142
56.445 13.745005
56.450 13.976472
56.455 13.806618
56.460 14.000831
56.465 13.815638
56.470 13.34778
56.475 13.453689
56.480 13.676076
56.485 14.197908
56.490 14.309384
56.495 13.89418
56.500 13.936144
56.505 13.993608
56.510 13.93068
56.515 14.108879
56.520 13.91491
56.525 14.105607
56.530 14.438841
56.535 14.466177
56.540 14.547346
56.545 14.468613
56.550 14.391185
56.555 14.348706
56.560 14.016068
56.565 14.068701
56.570 13.662641
56.575 13.519795
56.580 13.515035
56.585 13.45817
56.590 14.224172
56.595 14.700372
56.600 14.77052
56.605 15.201035
56.610 15.505563
56.615 15.265036
56.620 14.924559
56.625 13.886746
56.630 13.478772
56.635 13.262444
56.640 13.13364
56.645 13.350444
56.650 13.844786
56.655 14.024944
56.660 14.706616
56.665 15.33148
56.670 15.571931
56.675 15.437931
56.680 15.09899
56.685 14.924479
56.690 15.017831
56.695 14.633296
56.700 14.083075
56.705 14.251085
56.710 14.414305
56.715 14.210094
56.720 14.402595
56.725 14.328322
56.730 14.664823
56.735 14.799776
56.740 14.602673
56.745 14.814672
56.750 14.863667
56.755 14.819821
56.760 15.555871
56.765 15.557031
56.770 15.262183
56.775 15.067603
56.780 14.293247
56.785 13.928676
56.790 13.319453
56.795 12.363194
56.800 12.081175
56.805 12.519633
56.810 12.67251
56.815 13.40029
56.820 13.785399
56.825 13.844107
56.830 14.146121
56.835 14.377406
56.840 14.379291
56.845 14.362525
56.850 13.890918
56.855 13.252277
56.860 12.695471
56.865 12.552643
56.870 12.166677
56.875 12.134628
56.880 12.522418
56.885 13.017174
56.890 13.163741
56.895 13.374148
56.900 13.096103
56.905 12.927632
56.910 12.632809
56.915 12.271118
56.920 12.275278
56.925 12.7399
56.930 12.50839
56.935 13.02926
56.940 13.47705
56.945 13.418435
56.950 12.802061
56.955 12.752645
56.960 13.134308
56.965 13.654368
56.970 13.11102
56.975 13.225481
56.980 13.802111
56.985 14.383503
56.990 13.853364
56.995 12.989265
57.000 12.695333
57.005 13.03321
57.010 13.075525
57.015 12.888262
57.020 12.900045
57.025 13.085558
57.030 13.406084
57.035 13.07124
57.040 12.714534
57.045 12.548952
57.050 12.669796
57.055 13.014645
57.060 13.40563
57.065 13.591718
57.070 14.031265
57.075 14.878474
57.080 15.139794
57.085 14.611761
57.090 14.417758
57.095 14.4255
57.100 14.29504
57.105 14.076795
57.110 13.173954
57.115 12.981537
57.120 12.845504
57.125 12.601608
57.130 12.528259
57.135 12.484927
57.140 12.884742
57.145 13.300844
57.150 13.104173
57.155 13.240726
57.160 13.808389
57.165 14.067912
57.170 14.187346
57.175 13.947467
57.180 13.840803
57.185 13.641756
57.190 13.540896
57.195 13.108481
57.200 12.925153
57.205 12.550641
57.210 12.417076
57.215 12.24344
57.220 12.45834
57.225 12.588502
57.230 12.886676
57.235 12.792983
57.240 13.216911
57.245 12.805551
57.250 12.981812
57.255 13.127734
57.260 13.018015
57.265 12.552229
57.270 12.41975
57.275 12.16146
57.280 12.458402
57.285 12.576715
57.290 12.912543
57.295 12.551641
57.300 12.873913
57.305 13.425286
57.310 13.481269
57.315 13.455093
57.320 13.515412
57.325 13.46752
57.330 13.988303
57.335 13.923883
57.340 13.849066
57.345 13.802526
57.350 14.175126
57.355 14.223526
57.360 14.339729
57.365 14.206736
57.370 13.968536
57.375 14.546348
57.380 14.528693
57.385 14.20259
57.390 13.618303
57.395 13.841225
57.400 14.034361
57.405 14.308962
57.410 13.850202
57.415 13.894464
57.420 14.005121
57.425 14.404006
57.430 13.740005
57.435 13.419563
57.440 13.236161
57.445 13.447048
57.450 12.981236
57.455 12.391409
57.460 12.043378
57.465 12.155199
57.470 12.522077
57.475 12.128239
57.480 11.924302
57.485 12.663893
57.490 13.34402
57.495 13.306086
57.500 13.342554
57.505 12.82257
57.510 13.007317
57.515 12.71583
57.520 12.730603
57.525 12.753094
57.530 12.557093
57.535 12.427514
57.540 12.736259
57.545 12.729718
57.550 13.00949
57.555 12.770432
57.560 12.674838
57.565 12.969157
57.570 12.739431
57.575 12.650365
57.580 13.128611
57.585 13.292059
57.590 13.117223
57.595 12.783462
57.600 12.682281
57.605 12.761826
57.610 12.749034
57.615 12.657981
57.620 12.512465
57.625 13.153679
57.630 13.357082
57.635 13.481888
57.640 13.481972
57.645 13.432885
57.650 13.116628
57.655 13.383982
57.660 13.271158
57.665 14.036836
57.670 14.111579
57.675 13.931107
57.680 13.90419
57.685 14.342961
57.690 14.327767
57.695 13.851734
57.700 13.427118
57.705 13.494215
57.710 13.728401
57.715 13.877019
57.720 13.663566
57.725 13.489041
57.730 13.503892
57.735 13.598538
57.740 14.06374
57.745 14.499507
57.750 14.414288
57.755 14.694987
57.760 14.658851
57.765 14.720173
57.770 14.941816
57.775 14.508619
57.780 13.86288
57.785 14.097292
57.790 13.717154
57.795 14.129633
57.800 14.460418
57.805 14.291382
57.810 14.389028
57.815 14.681847
57.820 14.680765
57.825 15.073799
57.830 15.161067
57.835 14.802773
57.840 14.308819
57.845 14.135211
57.850 13.847033
57.855 13.519279
57.860 13.394656
57.865 13.398248
57.870 13.523918
57.875 14.129478
57.880 14.937073
57.885 15.517073
57.890 15.555495
57.895 15.328725
57.900 15.194566
57.905 14.862376
57.910 14.242226
57.915 13.64937
57.920 13.562489
57.925 13.727112
57.930 13.657961
57.935 13.808208
57.940 14.271952
57.945 14.354259
57.950 14.197452
57.955 13.966321
57.960 14.099832
57.965 14.162427
57.970 14.063523
57.975 14.37553
57.980 14.644779
57.985 14.314946
57.990 13.926526
57.995 14.247696
58.000 14.271068
58.005 14.510176
58.010 14.654786
58.015 15.197614
58.020 15.954422
58.025 16.24124
58.030 15.851038
58.035 15.797696
58.040 15.802137
58.045 16.196539
58.050 16.351025
58.055 16.204882
58.060 16.214739
58.065 16.436579
58.070 16.66292
58.075 16.414412
58.080 15.724813
58.085 15.348814
58.090 14.931166
58.095 14.314542
58.100 13.567426
58.105 12.960426
58.110 13.057417
58.115 12.677485
58.120 12.383343
58.125 12.690469
58.130 13.187231
58.135 13.880541
58.140 14.261645
58.145 14.448201
58.150 14.785714
58.155 14.922167
58.160 15.121137
58.165 15.164341
58.170 15.029008
58.175 14.935163
58.180 14.302008
58.185 14.345704
58.190 13.849329
58.195 13.78088
58.200 14.054731
58.205 13.592839
58.210 12.878497
58.215 13.381865
58.220 13.996721
58.225 14.442905
58.230 14.418915
58.235 14.575307
58.240 14.777399
58.245 15.081234
58.250 14.465658
58.255 14.173882
58.260 14.142478
58.265 14.350639
58.270 14.085446
58.275 13.892052
58.280 14.152097
58.285 14.249949
58.290 14.070545
58.295 13.899282
58.300 13.535089
58.305 13.895416
58.310 14.471663
58.315 13.685524
58.320 13.564233
58.325 13.977157
58.330 14.157681
58.335 14.498137
58.340 14.682384
58.345 14.739074
58.350 15.756911
58.355 15.519861
58.360 15.493703
58.365 15.420502
58.370 15.262556
58.375 15.2135
58.380 15.087636
58.385 14.765488
58.390 14.910001
58.395 15.540458
58.400 15.80033
58.405 16.090126
58.410 16.082232
58.415 16.110268
58.420 16.065619
58.425 16.241522
58.430 15.629571
58.435 15.500813
58.440 14.970448
58.445 15.007617
58.450 15.039633
58.455 14.835307
58.460 14.454016
58.465 14.441876
58.470 14.295523
58.475 14.526516
58.480 14.430048
58.485 14.204338
58.490 14.483118
58.495 14.779942
58.500 14.693847
58.505 15.090943
58.510 15.268441
58.515 15.340202
58.520 15.721731
58.525 16.245129
58.530 16.345383
58.535 16.298735
58.540 16.129387
58.545 16.007391
58.550 16.44458
58.555 16.800884
58.560 17.105446
58.565 17.182121
58.570 17.4767
58.575 17.492279
58.580 17.095913
58.585 16.858665
58.590 16.124681
58.595 15.408755
58.600 15.784992
58.605 15.212839
58.610 14.48638
58.615 14.407281
58.620 14.230697
58.625 14.609712
58.630 14.615995
58.635 14.147531
58.640 14.346569
58.645 14.358695
58.650 13.973873
58.655 14.289623
58.660 14.987523
58.665 15.210749
58.670 15.205274
58.675 15.300942
58.680 16.009188
58.685 16.239824
58.690 15.828242
58.695 15.196362
58.700 14.947042
58.705 14.928173
58.710 15.178036
58.715 15.119105
58.720 15.125721
58.725 15.299331
58.730 15.030766
58.735 14.963428
58.740 15.118008
58.745 15.16845
58.750 15.169389
58.755 15.161393
58.760 15.300786
58.765 16.224979
58.770 16.518738
58.775 16.894939
58.780 17.093824
58.785 17.260876
58.790 17.430182
58.795 17.092587
58.800 16.237825
58.805 16.325699
58.810 16.454309
58.815 16.262537
58.820 15.789424
58.825 15.781664
58.830 15.649234
58.835 15.472174
58.840 15.133609
58.845 14.723325
58.850 14.39205
58.855 14.313086
58.860 14.047945
58.865 13.744716
58.870 13.937221
58.875 13.964219
58.880 13.610647
58.885 13.57637
58.890 13.833111
58.895 14.410857
58.900 14.645295
58.905 14.62058
58.910 14.398166
58.915 14.638722
58.920 14.242159
58.925 14.080387
58.930 13.955976
58.935 14.237065
58.940 13.869395
58.945 13.743331
58.950 13.836656
58.955 14.028563
58.960 14.197219
58.965 14.244412
58.970 13.854915
58.975 14.006698
58.980 14.326825
58.985 14.603496
58.990 15.307858
58.995 15.309478
59.000 15.468946
59.005 15.840743
59.010 16.543346
59.015 16.516136
59.020 16.346758
59.025 16.294016
59.030 16.646719
59.035 16.858297
59.040 16.884926
59.045 17.041674
59.050 17.253094
59.055 17.48736
59.060 17.285591
59.065 17.035965
59.070 17.205919
59.075 16.842596
59.080 16.685001
59.085 16.304508
59.090 16.072454
59.095 16.146225
59.100 16.60673
59.105 16.715477
59.110 17.071306
59.115 16.798983
59.120 17.212072
59.125 17.25415
59.130 17.107105
59.135 16.576696
59.140 16.903101
59.145 17.78157
59.150 18.245075
59.155 18.130503
59.160 17.783783
59.165 17.673031
59.170 17.514301
59.175 16.970026
59.180 15.806387
59.185 15.262539
59.190 15.634569
59.195 16.056372
59.200 16.205339
59.205 16.442778
59.210 16.396421
59.215 16.821976
59.220 16.520113
59.225 15.755858
59.230 15.313861
59.235 15.09889
59.240 14.799376
59.245 15.052496
59.250 15.442165
59.255 16.036985
59.260 16.726799
59.265 16.760174
59.270 17.115152
59.275 16.895222
59.280 16.699024
59.285 16.473532
59.290 16.311844
59.295 16.016262
59.300 15.703639
59.305 15.67494
59.310 15.738527
59.315 15.538636
59.320 15.971668
59.325 16.700851
59.330 16.674324
59.335 17.048803
59.340 16.4233
59.345 16.257801
59.350 16.429667
59.355 15.910584
59.360 14.952797
59.365 15.24048
59.370 14.960327
59.375 15.357812
59.380 15.508021
59.385 15.395088
59.390 15.733804
59.395 16.117371
59.400 16.582533
59.405 16.771261
59.410 16.53797
59.415 16.632559
59.420 16.916517
59.425 16.789595
59.430 16.843519
59.435 16.124819
59.440 16.412931
59.445 16.929943
59.450 16.864378
59.455 16.81739
59.460 17.48451
59.465 17.796091
59.470 18.151516
59.475 18.125193
59.480 18.126823
59.485 18.454376
59.490 18.193485
59.495 17.71751
59.500 17.670198
59.505 17.547871
59.510 17.939175
59.515 17.687359
59.520 16.944933
59.525 17.092955
59.530 17.099606
59.535 17.36828
59.540 17.220791
59.545 16.731327
59.550 17.282969
59.555 17.745598
59.560 18.287918
59.565 18.471451
59.570 18.100697
59.575 17.901888
59.580 18.244331
59.585 18.294849
59.590 17.991793
59.595 17.200487
59.600 17.023289
59.605 17.475849
59.610 17.802849
59.615 17.530807
59.620 17.000191
59.625 16.823345
59.630 17.014454
59.635 16.438433
59.640 16.079023
59.645 15.983967
59.650 16.069695
59.655 16.582827
59.660 16.555799
59.665 16.861073
59.670 17.406315
59.675 17.374727
59.680 17.451914
59.685 17.5511
59.690 17.746092
59.695 17.721735
59.700 17.391262
59.705 17.46385
59.710 17.460533
59.715 17.251526
59.720 17.211617
59.725 16.868288
59.730 17.539335
59.735 18.122911
59.740 18.498514
59.745 19.277153
59.750 19.795216
59.755 19.5583
59.760 19.907578
59.765 19.102911
59.770 18.429981
59.775 18.260864
59.780 18.022644
59.785 17.754782
59.790 18.025093
59.795 17.638853
59.800 17.714712
59.805 17.587103
59.810 17.382135
59.815 17.449671
59.820 17.908741
59.825 17.969482
59.830 18.605368
59.835 19.012909
59.840 19.723284
59.845 20.073853
59.850 19.867825
59.855 19.918419
59.860 20.051373
59.865 19.920164
59.870 19.573071
59.875 19.077154
59.880 18.566271
59.885 18.407658
59.890 17.744198
59.895 17.46501
59.900 17.666103
59.905 18.051476
59.910 18.241585
59.915 17.969862
59.920 18.299973
59.925 18.339609
59.930 18.285427
59.935 17.987419
59.940 17.862072
59.945 17.521873
59.950 17.249397
59.955 17.495024
59.960 17.739357
59.965 17.58083
59.970 17.382509
59.975 17.064386
59.980 17.044586
59.985 16.99641
59.990 16.273624
59.995 16.169956
60.000 16.370848
60.005 16.863052
60.010 17.527128
60.015 18.438269
60.020 18.626608
60.025 19.336462
60.030 19.776251
60.035 19.999443
60.040 20.079197
60.045 20.459263
60.050 20.307039
60.055 21.42169
60.060 21.241587
60.065 20.925701
60.070 20.893984
60.075 20.639244
60.080 20.208281
60.085 20.106411
60.090 19.109459
60.095 19.120201
60.100 18.974289
60.105 18.86161
60.110 18.783922
60.115 18.166801
60.120 17.711052
60.125 17.62472
60.130 17.378351
60.135 17.385473
60.140 17.45248
60.145 17.716311
60.150 18.223738
60.155 18.435572
60.160 18.277987
60.165 18.083071
60.170 17.985636
60.175 18.066854
60.180 17.289415
60.185 16.742973
60.190 16.628084
60.195 16.616623
60.200 16.496508
60.205 15.760192
60.210 15.615274
60.215 16.489367
60.220 16.982468
60.225 17.132799
60.230 18.117729
60.235 18.893698
60.240 19.37508
60.245 19.815542
60.250 19.829521
60.255 19.910795
60.260 19.906969
60.265 19.111048
60.270 18.928989
60.275 19.112095
60.280 18.522055
60.285 17.820992
60.290 17.267189
60.295 17.298918
60.300 17.377172
60.305 17.270355
60.310 16.650351
60.315 16.242931
60.320 16.287891
60.325 16.435877
60.330 15.97682
60.335 15.942891
60.340 16.043457
60.345 16.185568
60.350 16.581676
60.355 17.083862
60.360 17.139738
60.365 17.416267
60.370 17.717915
60.375 18.231485
60.380 18.279779
60.385 18.473177
60.390 17.970047
60.395 17.7596
60.400 17.494226
60.405 17.125528
60.410 16.68037
60.415 16.661009
60.420 17.055376
60.425 17.946188
60.430 18.177538
60.435 18.209215
60.440 18.280653
60.445 18.341633
60.450 18.201246
60.455 17.81072
60.460 17.281683
60.465 17.4471
60.470 17.939943
60.475 18.087032
60.480 17.905329
60.485 17.629862
60.490 17.331306
60.495 17.302275
60.500 16.854977
60.505 16.646702
60.510 16.15608
60.515 16.298521
60.520 16.456169
60.525 16.339399
60.530 16.151043
60.535 16.428041
60.540 16.435604
60.545 16.927435
60.550 17.354816
60.555 17.539568
60.560 18.082014
60.565 18.480368
60.570 18.498953
60.575 18.119652
60.580 18.328659
60.585 18.018293
60.590 17.576765
60.595 17.339306
60.600 16.889799
60.605 16.915028
60.610 16.705635
60.615 15.592029
60.620 15.852194
60.625 15.975063
60.630 15.163263
60.635 15.211538
60.640 14.908961
60.645 15.561944
60.650 15.952291
60.655 15.284721
60.660 15.221615
60.665 15.632613
60.670 15.720508
60.675 15.828419
60.680 15.911916
60.685 16.122942
60.690 16.217459
60.695 16.230648
60.700 16.085218
60.705 16.422867
60.710 16.738375
60.715 16.544483
60.720 16.446028
60.725 16.84417
60.730 17.0002
60.735 16.885792
60.740 16.623753
60.745 16.231377
60.750 15.663044
60.755 15.486283
60.760 15.167462
60.765 15.034541
60.770 14.886928
60.775 14.516229
60.780 14.824644
60.785 15.408785
60.790 15.942659
60.795 16.181334
60.800 16.575323
60.805 16.820694
60.810 16.858063
60.815 16.643904
60.820 16.74581
60.825 16.661406
60.830 16.356577
60.835 15.48127
60.840 15.057147
60.845 14.590828
60.850 14.618708
60.855 14.39225
60.860 14.192945
60.865 14.365719
60.870 14.985652
60.875 15.322305
60.880 16.275063
60.885 16.079987
60.890 15.989696
60.895 15.979037
60.900 16.482361
60.905 16.598326
60.910 16.554012
60.915 16.117512
60.920 15.630233
60.925 15.389326
60.930 15.57288
60.935 15.278423
60.940 15.015385
60.945 14.844403
60.950 14.616359
60.955 15.137024
60.960 14.914959
60.965 14.097875
60.970 13.580738
60.975 13.315582
60.980 13.54934
60.985 13.656323
60.990 13.792035
60.995 14.610903
61.000 15.058452
61.005 15.398521
61.010 15.759992
61.015 15.717669
61.020 15.71924
61.025 15.593462
61.030 15.224004
61.035 15.053158
61.040 14.940654
61.045 14.459895
61.050 14.321571
61.055 14.322292
61.060 14.013454
61.065 14.03964
61.070 14.185289
61.075 14.564508
61.080 15.411385
61.085 14.924428
61.090 14.870084
61.095 15.282148
61.100 15.256088
61.105 15.192348
61.110 14.559954
61.115 14.216724
61.120 14.186674
61.125 14.149302
61.130 13.896276
61.135 13.798867
61.140 14.207039
61.145 14.405125
61.150 14.144279
61.155 14.435173
61.160 14.951934
61.165 14.912139
61.170 15.143003
61.175 15.035028
61.180 15.096925
61.185 15.791289
61.190 15.762101
61.195 15.505095
61.200 16.062508
61.205 16.25145
61.210 16.633106
61.215 16.516523
61.220 16.439859
61.225 16.81843
61.230 16.899578
61.235 16.255783
61.240 15.844448
61.245 15.318233
61.250 15.871619
61.255 15.426762
61.260 15.257988
61.265 15.664454
61.270 15.692319
61.275 15.795709
61.280 15.871658
61.285 16.346334
61.290 16.286015
61.295 16.442106
61.300 16.035933
61.305 15.858697
61.310 16.01298
61.315 15.980096
61.320 15.455724
61.325 15.960164
61.330 15.499475
61.335 15.540499
61.340 15.736527
61.345 15.721784
61.350 15.209834
61.355 14.940376
61.360 14.672797
61.365 14.677215
61.370 14.945542
61.375 14.775627
61.380 14.737256
61.385 15.539117
61.390 15.901299
61.395 15.882792
61.400 15.884926
61.405 16.05405
61.410 16.326508
61.415 16.964149
61.420 16.68577
61.425 16.57515
61.430 16.215446
61.435 15.883648
61.440 15.423654
61.445 15.330868
61.450 14.461457
61.455 14.360912
61.460 14.654689
61.465 15.22382
61.470 15.379417
61.475 15.733723
61.480 16.529818
61.485 17.010935
61.490 17.625195
61.495 17.607916
61.500 17.753021
61.505 17.832237
61.510 17.613861
61.515 17.106281
61.520 16.300034
61.525 15.311115
61.530 14.810004
61.535 14.516002
61.540 15.22172
61.545 15.706059
61.550 16.174347
61.555 16.39699
61.560 16.582912
61.565 16.637716
61.570 16.539799
61.575 16.110342
61.580 15.605192
61.585 15.117784
61.590 15.380412
61.595 15.050681
61.600 14.676859
61.605 14.737356
61.610 14.846483
61.615 14.69426
61.620 14.956115
61.625 14.834082
61.630 15.350237
61.635 16.031742
61.640 15.618776
61.645 15.206401
61.650 14.519935
61.655 14.166037
61.660 14.270359
61.665 13.964812
61.670 13.555038
61.675 13.729822
61.680 13.696548
61.685 13.589587
61.690 13.30402
61.695 13.313182
61.700 13.711795
61.705 14.040473
61.710 14.043627
61.715 14.416352
61.720 14.891221
61.725 14.889174
61.730 15.489925
61.735 15.556698
61.740 15.416196
61.745 15.597942
61.750 15.449793
61.755 15.27442
61.760 15.429152
61.765 14.742592
61.770 14.725519
61.775 14.661632
61.780 14.533666
61.785 15.191164
61.790 15.831538
61.795 16.137434
61.800 16.205505
61.805 16.162748
61.810 16.108166
61.815 15.930567
61.820 15.66563
61.825 15.513681
61.830 15.457617
61.835 15.850899
61.840 16.02367
61.845 16.097731
61.850 16.183527
61.855 15.897885
61.860 15.913605
61.865 15.934335
61.870 15.746407
61.875 16.473267
61.880 16.932426
61.885 17.310539
61.890 17.948486
61.895 18.376375
61.900 18.658775
61.905 18.278433
61.910 17.198845
61.915 16.807329
61.920 16.08201
61.925 15.631911
61.930 14.838399
61.935 14.500293
61.940 14.792115
61.945 15.226804
61.950 15.408689
61.955 15.947733
61.960 16.132179
61.965 16.543179
61.970 16.954103
61.975 16.822458
61.980 16.55068
61.985 16.880981
61.990 16.835012
61.995 16.814283
62.000 17.07209
62.005 16.570774
62.010 16.658535
62.015 17.05245
62.020 16.996733
62.025 16.516537
62.030 16.318916
62.035 15.922786
62.040 16.206163
62.045 16.220348
62.050 15.831111
62.055 15.618843
62.060 16.01162
62.065 15.804127
62.070 15.48144
62.075 15.258388
62.080 15.667109
62.085 15.731782
62.090 15.634658
62.095 15.019811
62.100 14.576885
62.105 14.925896
62.110 14.977131
62.115 14.395015
62.120 14.067603
62.125 14.30744
62.130 15.124173
62.135 15.961822
62.140 16.050615
62.145 16.091248
62.150 16.55945
62.155 17.126354
62.160 17.343416
62.165 17.171633
62.170 17.400724
62.175 17.089363
62.180 16.655914
62.185 16.797787
62.190 16.559021
62.195 15.855473
62.200 15.37791
62.205 14.639264
62.210 15.060729
62.215 15.194038
62.220 14.807699
62.225 14.461235
62.230 14.420761
62.235 14.659803
62.240 15.049269
62.245 15.21384
62.250 15.142703
62.255 15.178122
62.260 15.395176
62.265 15.581432
62.270 15.364085
62.275 14.790094
62.280 14.840521
62.285 14.7059
62.290 15.330152
62.295 16.326727
62.300 16.472105
62.305 16.689398
62.310 16.904184
62.315 16.787367
62.320 16.999306
62.325 16.482836
62.330 15.632587
62.335 15.714058
62.340 16.000652
62.345 15.60521
62.350 15.720673
62.355 15.966565
62.360 16.17415
62.365 15.91354
62.370 15.272768
62.375 15.135017
62.380 15.368979
62.385 15.149714
62.390 14.591708
62.395 14.157192
62.400 14.769827
62.405 15.046896
62.410 15.183741
62.415 15.236438
62.420 15.359583
62.425 15.179258
62.430 15.301907
62.435 15.281666
62.440 15.028564
62.445 14.878775
62.450 15.511515
62.455 15.810062
62.460 16.240114
62.465 16.165474
62.470 16.0049
62.475 16.699837
62.480 16.387987
62.485 15.637903
62.490 15.083439
62.495 15.265433
62.500 15.974954
62.505 15.806545
62.510 15.759395
62.515 16.388577
62.520 16.179296
62.525 16.138634
62.530 15.839694
62.535 15.123384
62.540 15.078542
62.545 14.47228
62.550 14.177295
62.555 14.462689
62.560 14.806408
62.565 14.70276
62.570 14.535233
62.575 14.591566
62.580 14.730396
62.585 14.610413
62.590 14.173583
62.595 13.949367
62.600 14.252383
62.605 14.642282
62.610 14.370123
62.615 14.261469
62.620 15.127561
62.625 15.689849
62.630 16.045361
62.635 16.07653
62.640 16.198917
62.645 16.766617
62.650 17.511354
62.655 17.214775
62.660 16.993628
62.665 16.651005
62.670 16.731689
62.675 16.859385
62.680 17.016687
62.685 16.52681
62.690 16.357758
62.695 16.520838
62.700 16.520599
62.705 16.44026
62.710 16.633585
62.715 16.846382
62.720 17.045105
62.725 17.597576
62.730 17.929245
62.735 17.996141
62.740 18.35623
62.745 18.005789
62.750 17.810312
62.755 18.115057
62.760 17.907597
62.765 17.646698
62.770 17.620817
62.775 17.16044
62.780 16.888454
62.785 16.850451
62.790 16.573294
62.795 16.230556
62.800 16.301989
62.805 16.309605
62.810 16.344254
62.815 16.627609
62.820 16.307344
62.825 16.521364
62.830 17.111395
62.835 16.991581
62.840 17.127968
62.845 17.002649
62.850 17.390951
62.855 17.99468
62.860 17.897726
62.865 17.787052
62.870 17.467272
62.875 17.444937
62.880 17.617165
62.885 16.914043
62.890 16.300716
62.895 16.29138
62.900 15.758674
62.905 16.138231
62.910 16.023626
62.915 16.21344
62.920 16.401915
62.925 16.164057
62.930 15.631119
62.935 15.246437
62.940 15.146351
62.945 15.196398
62.950 15.117518
62.955 15.46801
62.960 15.624739
62.965 15.634877
62.970 16.133663
62.975 16.886877
62.980 16.473761
62.985 16.352793
62.990 16.119904
62.995 16.503981
63.000 16.894352
63.005 16.637217
63.010 16.462212
63.015 16.379585
63.020 16.219967
63.025 16.598295
63.030 16.898798
63.035 16.714821
63.040 16.483164
63.045 16.458685
63.050 16.487442
63.055 16.534246
63.060 16.329767
63.065 16.143438
63.070 16.029234
63.075 16.516615
63.080 15.990363
63.085 15.886547
63.090 15.698994
63.095 15.497683
63.100 15.165372
63.105 15.74265
63.110 15.732553
63.115 15.749565
63.120 16.113274
63.125 16.325527
63.130 15.99347
63.135 15.80129
63.140 15.392263
63.145 15.421782
63.150 15.651341
63.155 15.632064
63.160 15.67191
63.165 15.862926
63.170 15.931161
63.175 16.110184
63.180 16.020372
63.185 15.512981
63.190 15.280434
63.195 14.904463
63.200 15.050206
63.205 14.848599
63.210 14.696951
63.215 14.65742
63.220 14.743359
63.225 14.618094
63.230 15.065421
63.235 14.458846
63.240 14.365621
63.245 14.058987
63.250 14.791324
63.255 15.553439
63.260 15.793212
63.265 16.055691
63.270 16.181589
63.275 16.261635
63.280 16.996761
63.285 16.573879
63.290 16.032764
63.295 16.236698
63.300 16.195498
63.305 16.660246
63.310 16.835445
63.315 16.812983
63.320 16.770012
63.325 17.311649
63.330 17.160088
63.335 16.687038
63.340 16.99268
63.345 16.686876
63.350 15.863933
63.355 15.512711
63.360 15.152142
63.365 15.115513
63.370 15.516119
63.375 15.497337
63.380 15.626605
63.385 15.75523
63.390 15.871892
63.395 15.853511
63.400 15.591268
63.405 15.446889
63.410 15.440294
63.415 14.954576
63.420 15.140006
63.425 15.18514
63.430 15.681775
63.435 16.067028
63.440 16.080364
63.445 16.165428
63.450 16.673485
63.455 17.086674
63.460 17.280396
63.465 16.856783
63.470 16.493027
63.475 16.808292
63.480 16.865589
63.485 16.779551
63.490 16.60803
63.495 16.425526
63.500 16.374998
63.505 16.535242
63.510 15.654875
63.515 16.03546
63.520 16.162537
63.525 15.472199
63.530 14.960813
63.535 14.955773
63.540 14.802258
63.545 15.242375
63.550 14.708186
63.555 14.480191
63.560 14.730572
63.565 15.398093
63.570 15.612536
63.575 16.077536
63.580 15.790978
63.585 15.387582
63.590 16.100874
63.595 16.837702
63.600 16.275345
63.605 15.943849
63.610 15.591153
63.615 15.456086
63.620 16.146273
63.625 16.032825
63.630 15.996583
63.635 16.303137
63.640 16.145473
63.645 16.116419
63.650 16.72332
63.655 16.746424
63.660 16.822514
63.665 16.557064
63.670 16.737463
63.675 16.850048
63.680 16.875956
63.685 16.49975
63.690 16.116192
63.695 15.265434
63.700 14.776739
63.705 14.526299
63.710 15.283958
63.715 15.738029
63.720 16.018864
63.725 16.341963
63.730 16.860876
63.735 17.722044
63.740 17.520973
63.745 17.237144
63.750 17.352221
63.755 17.463001
63.760 17.19796
63.765 17.010611
63.770 16.221943
63.775 16.218397
63.780 15.997557
63.785 15.631875
63.790 15.577024
63.795 15.727287
63.800 15.810656
63.805 15.945323
63.810 16.149254
63.815 15.953387
63.820 15.329623
63.825 14.340763
63.830 13.915063
63.835 14.433167
63.840 14.855145
63.845 14.477561
63.850 14.561038
63.855 15.138299
63.860 15.310744
63.865 15.582519
63.870 15.263769
63.875 15.728789
63.880 16.062252
63.885 16.276384
63.890 16.185835
63.895 16.596895
63.900 16.749479
63.905 16.697369
63.910 16.719337
63.915 16.780962
63.920 16.502464
63.925 16.026968
63.930 16.106117
63.935 16.292988
63.940 15.869525
63.945 15.658937
63.950 15.91092
63.955 16.266001
63.960 17.292715
63.965 17.532282
63.970 17.446028
63.975 17.770992
63.980 17.361607
63.985 17.357235
63.990 17.242275
63.995 17.98584
64.000 18.527203
64.005 18.417938
64.010 18.649725
64.015 19.259756
64.020 19.701502
64.025 19.797964
64.030 18.679945
64.035 18.102243
64.040 17.983728
64.045 17.745436
64.050 17.712311
64.055 17.217585
64.060 16.695009
64.065 16.684677
64.070 17.396847
64.075 17.767733
64.080 17.151621
64.085 16.820599
64.090 17.132185
64.095 17.392231
64.100 17.963518
64.105 17.313538
64.110 17.554707
64.115 17.93611
64.120 17.716
64.125 17.174463
64.130 17.106682
64.135 17.096842
64.140 17.196543
64.145 16.599325
64.150 16.543808
64.155 16.75844
64.160 16.96431
64.165 16.467209
64.170 15.726437
64.175 15.399459
64.180 15.646941
64.185 15.725489
64.190 16.179081
64.195 16.791405
64.200 17.203892
64.205 17.451252
64.210 17.170105
64.215 16.628778
64.220 16.63652
64.225 16.400984
64.230 15.848309
64.235 15.43899
64.240 15.686316
64.245 15.769175
64.250 15.945758
64.255 15.561058
64.260 15.674002
64.265 15.957644
64.270 16.260654
64.275 16.20809
64.280 16.907915
64.285 16.992863
64.290 16.883598
64.295 16.267086
64.300 15.989665
64.305 16.246294
64.310 16.624586
64.315 17.60557
64.320 18.078016
64.325 18.499306
64.330 18.367008
64.335 18.33285
64.340 17.906153
64.345 17.4226
64.350 17.030258
64.355 16.944168
64.360 16.941727
64.365 17.460855
64.370 17.096104
64.375 16.9807
64.380 16.792858
64.385 16.198456
64.390 16.351345
64.395 16.616661
64.400 16.606993
64.405 16.969698
64.410 17.00771
64.415 17.132486
64.420 16.946606
64.425 16.926298
64.430 16.441332
64.435 16.693953
64.440 17.308727
64.445 18.039877
64.450 18.554108
64.455 18.893188
64.460 18.581095
64.465 18.588026
64.470 18.500843
64.475 18.014692
64.480 17.511311
64.485 17.340263
64.490 17.502283
64.495 18.114866
64.500 18.748327
64.505 18.883173
64.510 18.992525
64.515 19.323448
64.520 19.003889
64.525 18.994923
64.530 18.880117
64.535 18.7654
64.540 18.560471
64.545 17.913612
64.550 17.882912
64.555 18.004158
64.560 18.079432
64.565 18.088196
64.570 17.966484
64.575 18.076021
64.580 18.566364
64.585 18.634129
64.590 18.846287
64.595 18.392691
64.600 18.611494
64.605 19.104496
64.610 18.801924
64.615 18.686893
64.620 18.541245
64.625 18.209768
64.630 18.407202
64.635 18.381081
64.640 18.111135
64.645 18.814373
64.650 19.156918
64.655 19.06175
64.660 19.49238
64.665 19.433483
64.670 18.853184
64.675 18.410358
64.680 17.908863
64.685 17.980247
64.690 17.928396
64.695 17.313185
64.700 17.359409
64.705 17.674864
64.710 18.23575
64.715 18.749609
64.720 18.372168
64.725 18.219526
64.730 18.850721
64.735 18.574511
64.740 18.43119
64.745 18.480373
64.750 18.739649
64.755 18.969738
64.760 19.281601
64.765 19.353682
64.770 19.709787
64.775 19.801968
64.780 19.693768
64.785 19.261265
64.790 19.421133
64.795 19.35078
64.800 18.999372
64.805 18.635691
64.810 17.87822
64.815 17.412727
64.820 17.469069
64.825 17.312862
64.830 17.412395
64.835 18.013706
64.840 18.505959
64.845 19.203194
64.850 19.257225
64.855 19.890972
64.860 20.528811
64.865 20.407927
64.870 20.45533
64.875 20.362885
64.880 21.267818
64.885 21.862869
64.890 21.646128
64.895 21.828873
64.900 21.820847
64.905 21.774073
64.910 21.882908
64.915 22.305212
64.920 22.846386
64.925 22.647196
64.930 22.273827
64.935 22.199923
64.940 22.752098
64.945 22.765997
64.950 21.961481
64.955 21.927927
64.960 21.501192
64.965 21.559322
64.970 22.379232
64.975 22.57342
64.980 23.564005
64.985 24.231745
64.990 25.13624
64.995 26.947035
65.000 27.818275
65.005 27.29582
65.010 26.768656
65.015 26.250175
65.020 26.013159
65.025 25.729988
65.030 25.106842
65.035 24.580927
65.040 24.926363
65.045 25.428801
65.050 25.327003
65.055 25.27117
65.060 24.678576
65.065 24.13113
65.070 24.440561
65.075 24.4944
65.080 24.54637
65.085 24.427402
65.090 24.319445
65.095 24.47876
65.100 24.966448
65.105 24.900835
65.110 24.903643
65.115 25.043814
65.120 24.721703
65.125 24.589359
65.130 24.823021
65.135 24.588804
65.140 24.439354
65.145 24.414417
65.150 24.493797
65.155 24.662537
65.160 24.467358
65.165 24.303596
65.170 24.050749
65.175 23.541098
65.180 23.354605
65.185 23.125736
65.190 23.733753
65.195 23.597122
65.200 23.406919
65.205 23.473621
65.210 23.953972
65.215 23.18144
65.220 22.602282
65.225 21.979517
65.230 22.056416
65.235 21.056957
65.240 20.792723
65.245 20.393509
65.250 20.496336
65.255 21.232206
65.260 21.60523
65.265 22.640173
65.270 23.505678
65.275 23.444141
65.280 24.104443
65.285 24.40843
65.290 24.297091
65.295 24.450872
65.300 23.813614
65.305 23.991898
65.310 24.526295
65.315 24.103624
65.320 24.243393
65.325 23.895781
65.330 23.744759
65.335 23.346014
65.340 22.796408
65.345 22.148699
65.350 21.817751
65.355 21.74161
65.360 21.73847
65.365 21.329082
65.370 21.248898
65.375 21.376051
65.380 21.521982
65.385 21.63253
65.390 21.551628
65.395 21.720201
65.400 22.32229
65.405 22.468845
65.410 23.366722
65.415 23.736109
65.420 23.724913
65.425 23.514702
65.430 23.217791
65.435 23.258945
65.440 23.675781
65.445 23.464447
65.450 23.269073
65.455 23.649237
65.460 23.923725
65.465 23.710405
65.470 23.521223
65.475 23.041574
65.480 23.299257
65.485 23.450048
65.490 23.441057
65.495 23.385429
65.500 23.944668
65.505 24.02142
65.510 24.368103
65.515 24.49918
65.520 24.97817
65.525 25.004631
65.530 25.191896
65.535 25.242022
65.540 25.307106
65.545 25.386881
65.550 25.37524
65.555 24.988081
65.560 25.314093
65.565 25.284414
65.570 24.641413
65.575 24.494091
65.580 23.952166
65.585 23.603403
65.590 23.227768
65.595 23.313574
65.600 23.957924
65.605 23.973709
65.610 24.085072
65.615 24.135952
65.620 23.969725
65.625 23.979477
65.630 24.181463
65.635 23.872677
65.640 24.133598
65.645 24.254986
65.650 24.856079
65.655 25.274332
65.660 24.888601
65.665 24.107897
65.670 24.189642
65.675 24.427841
65.680 24.481924
65.685 24.589508
65.690 25.598028
65.695 26.268669
65.700 27.119537
65.705 27.101471
65.710 26.998512
65.715 27.527136
65.720 27.223297
65.725 26.389368
65.730 26.574804
65.735 26.353611
65.740 26.587799
65.745 26.942049
65.750 26.937441
65.755 26.958048
65.760 26.54895
65.765 26.497644
65.770 26.338203
65.775 26.314304
65.780 26.276819
65.785 26.352221
65.790 26.636293
65.795 28.121687
65.800 28.830736
65.805 29.523394
65.810 29.835962
65.815 29.487789
65.820 29.177452
65.825 29.127222
65.830 28.932196
65.835 28.105906
65.840 27.947506
65.845 27.637556
65.850 28.244379
65.855 28.876371
65.860 29.377535
65.865 29.074598
65.870 28.868868
65.875 28.321074
65.880 28.59029
65.885 28.506207
65.890 27.586311
65.895 27.565104
65.900 27.555601
65.905 28.577955
65.910 29.508726
65.915 30.080227
65.920 30.200552
65.925 30.891756
65.930 31.583166
65.935 31.75905
65.940 31.401945
65.945 31.402407
65.950 30.590805
65.955 31.092913
65.960 31.122952
65.965 30.475643
65.970 30.787909
65.975 30.62571
65.980 30.312111
65.985 30.229536
65.990 29.857185
65.995 29.893051
66.000 30.352598
66.005 30.287693
66.010 30.7342
66.015 31.151825
66.020 31.536736
66.025 30.775517
66.030 30.969864
66.035 30.825432
66.040 30.524248
66.045 30.672342
66.050 30.183012
66.055 30.667105
66.060 31.089098
66.065 30.858318
66.070 30.969664
66.075 30.797529
66.080 29.772099
66.085 29.667265
66.090 29.209444
66.095 28.965034
66.100 28.92548
66.105 29.154648
66.110 29.41782
66.115 30.016497
66.120 30.181467
66.125 30.224329
66.130 30.99304
66.135 31.122379
66.140 31.066586
66.145 31.207623
66.150 30.818233
66.155 30.449923
66.160 30.858444
66.165 30.720669
66.170 30.077789
66.175 29.460182
66.180 29.659159
66.185 29.51927
66.190 30.131962
66.195 29.876356
66.200 29.650694
66.205 29.23704
66.210 28.754158
66.215 28.431965
66.220 29.376062
66.225 29.535065
66.230 29.781502
66.235 29.656836
66.240 30.254356
66.245 30.552584
66.250 29.710136
66.255 29.152546
66.260 28.584293
66.265 28.586981
66.270 29.021816
66.275 28.42065
66.280 28.742897
66.285 29.736429
66.290 29.598541
66.295 29.934923
66.300 28.677607
66.305 28.378092
66.310 28.984037
66.315 29.244333
66.320 29.158638
66.325 29.237827
66.330 29.077486
66.335 29.230011
66.340 29.33882
66.345 29.455063
66.350 29.431835
66.355 28.74379
66.360 27.998888
66.365 27.111107
66.370 27.156586
66.375 25.918964
66.380 25.478065
66.385 25.340023
66.390 25.561144
66.395 25.753099
66.400 25.688757
66.405 25.531961
66.410 25.825834
66.415 25.74538
66.420 25.039322
66.425 24.650333
66.430 24.515579
66.435 24.694864
66.440 24.867239
66.445 24.529272
66.450 23.992035
66.455 24.363325
66.460 24.492683
66.465 24.820271
66.470 24.523149
66.475 24.014791
66.480 24.670389
66.485 24.465858
66.490 24.201447
66.495 23.800377
66.500 23.901091
66.505 24.436066
66.510 24.929123
66.515 24.12178
66.520 24.047457
66.525 24.391449
66.530 24.722937
66.535 24.412086
66.540 24.663435
66.545 24.63658
66.550 24.626772
66.555 24.149149
66.560 23.725491
66.565 24.030121
66.570 23.944523
66.575 23.470358
66.580 22.821598
66.585 22.824892
66.590 22.763756
66.595 22.393898
66.600 21.693739
66.605 20.991596
66.610 20.524357
66.615 20.617601
66.620 20.063963
66.625 20.035309
66.630 19.919937
66.635 19.772383
66.640 19.445313
66.645 18.944784
66.650 18.585583
66.655 18.592916
66.660 18.388042
66.665 17.997332
66.670 18.3195
66.675 19.280512
66.680 20.081779
66.685 20.018736
66.690 19.900492
66.695 19.903486
66.700 20.094143
66.705 20.207911
66.710 20.147449
66.715 20.142918
66.720 21.071712
66.725 21.385658
66.730 21.417854
66.735 21.200115
66.740 21.200825
66.745 21.168526
66.750 20.757067
66.755 19.724703
66.760 20.049236
66.765 19.664131
66.770 19.688993
66.775 19.455853
66.780 19.056211
66.785 19.364933
66.790 19.779348
66.795 19.61985
66.800 19.655294
66.805 19.53908
66.810 19.547531
66.815 19.600145
66.820 19.300833
66.825 18.925524
66.830 18.884874
66.835 18.769442
66.840 19.079865
66.845 19.237801
66.850 19.316187
66.855 19.410091
66.860 19.106318
66.865 18.842033
66.870 19.274269
66.875 18.763483
66.880 18.400917
66.885 18.061403
66.890 17.560301
66.895 17.326372
66.900 17.338385
66.905 17.209602
66.910 17.156673
66.915 17.559296
66.920 18.028805
66.925 18.482542
66.930 18.767612
66.935 18.42527
66.940 18.030725
66.945 17.864391
66.950 17.799353
66.955 17.513393
66.960 17.53134
66.965 18.188177
66.970 18.543474
66.975 19.210899
66.980 19.123465
66.985 18.731075
66.990 18.515959
66.995 18.446104
67.000 18.286295
67.005 18.127199
67.010 18.229057
67.015 18.957115
67.020 18.912926
67.025 19.120171
67.030 18.734419
67.035 18.624392
67.040 18.695332
67.045 17.837048
67.050 17.211048
67.055 17.438507
67.060 17.859318
67.065 18.184464
67.070 18.181286
67.075 18.461275
67.080 18.807137
67.085 18.873484
67.090 18.820215
67.095 18.708033
67.100 18.808985
67.105 18.934069
67.110 18.630692
67.115 19.253326
67.120 19.515779
67.125 19.492819
67.130 19.232647
67.135 18.988401
67.140 18.982519
67.145 19.308071
67.150 18.742933
67.155 19.006739
67.160 18.821957
67.165 18.527178
67.170 18.531586
67.175 18.365891
67.180 18.108456
67.185 17.626286
67.190 17.207241
67.195 17.316351
67.200 17.680431
67.205 17.92737
67.210 17.563955
67.215 17.642437
67.220 17.863621
67.225 17.933117
67.230 18.055126
67.235 18.02359
67.240 18.271145
67.245 18.715942
67.250 19.262012
67.255 19.801271
67.260 19.717655
67.265 19.149815
67.270 18.908415
67.275 18.568264
67.280 18.211042
67.285 18.101089
67.290 17.68696
67.295 18.099226
67.300 18.190514
67.305 18.225056
67.310 17.847645
67.315 17.993032
67.320 17.547203
67.325 17.881599
67.330 17.5077
67.335 17.519428
67.340 17.710768
67.345 18.519691
67.350 18.905714
67.355 18.639729
67.360 18.610746
67.365 19.02387
67.370 19.082214
67.375 18.937712
67.380 18.114599
67.385 17.519239
67.390 17.488537
67.395 16.997959
67.400 17.003864
67.405 17.249002
67.410 17.515144
67.415 18.04921
67.420 18.711355
67.425 18.753424
67.430 19.079113
67.435 19.01347
67.440 18.918777
67.445 18.301844
67.450 18.112753
67.455 17.90547
67.460 18.023426
67.465 17.988928
67.470 17.855732
67.475 17.939764
67.480 18.596052
67.485 18.876522
67.490 18.73353
67.495 19.13698
67.500 19.483046
67.505 19.682337
67.510 19.676844
67.515 19.514359
67.520 19.311357
67.525 19.157688
67.530 18.676996
67.535 18.036295
67.540 18.173666
67.545 18.219612
67.550 17.937674
67.555 17.811769
67.560 17.917341
67.565 17.89304
67.570 18.434048
67.575 18.299078
67.580 18.577019
67.585 18.736965
67.590 18.810043
67.595 18.363043
67.600 18.397533
67.605 18.579676
67.610 18.014847
67.615 17.424118
67.620 17.099911
67.625 16.922853
67.630 16.971241
67.635 16.578102
67.640 16.38084
67.645 16.794739
67.650 17.424686
67.655 17.912004
67.660 17.579634
67.665 17.924519
67.670 17.814808
67.675 18.178501
67.680 18.147385
67.685 17.868711
67.690 17.680714
67.695 18.243603
67.700 18.005527
67.705 17.583721
67.710 17.02211
67.715 16.736208
67.720 16.608799
67.725 16.91016
67.730 17.912823
67.735 18.137632
67.740 18.507261
67.745 18.781033
67.750 18.783459
67.755 18.644073
67.760 17.91173
67.765 17.032362
67.770 17.420452
67.775 17.79216
67.780 18.071714
67.785 18.379265
67.790 18.595594
67.795 18.505474
67.800 18.630627
67.805 17.900669
67.810 17.78985
67.815 17.598812
67.820 17.460123
67.825 17.615082
67.830 17.869419
67.835 17.744781
67.840 18.503639
67.845 18.492819
67.850 18.381916
67.855 18.637506
67.860 18.508604
67.865 18.660244
67.870 18.672861
67.875 17.892197
67.880 17.452991
67.885 17.562115
67.890 17.627853
67.895 17.906969
67.900 17.987949
67.905 18.537889
67.910 18.776196
67.915 19.16551
67.920 19.665127
67.925 19.341843
67.930 19.032177
67.935 18.965948
67.940 18.817974
67.945 19.053568
67.950 18.388744
67.955 17.880276
67.960 18.207979
67.965 18.187208
67.970 18.153433
67.975 18.30061
67.980 18.594038
67.985 19.422529
67.990 19.408272
67.995 19.712585
68.000 19.643879
68.005 20.000221
68.010 20.03677
68.015 19.857708
68.020 19.699116
68.025 19.872862
68.030 19.963915
68.035 20.706966
68.040 21.129236
68.045 21.202688
68.050 21.200983
68.055 20.834511
68.060 20.631437
68.065 20.039497
68.070 18.845331
68.075 17.58585
68.080 17.111469
68.085 17.096344
68.090 17.381512
68.095 17.47949
68.100 17.736366
68.105 18.678263
68.110 18.530182
68.115 18.294197
68.120 18.448383
68.125 18.076544
68.130 17.75592
68.135 16.98205
68.140 16.200642
68.145 16.857733
68.150 16.707232
68.155 16.403618
68.160 16.9408
68.165 16.854969
68.170 17.364861
68.175 18.142231
68.180 18.293388
68.185 19.020689
68.190 19.442326
68.195 19.440506
68.200 20.10528
68.205 20.365381
68.210 19.753828
68.215 19.44721
68.220 19.041319
68.225 19.061371
68.230 18.491961
68.235 17.497772
68.240 17.091478
68.245 16.820284
68.250 16.868196
68.255 17.175602
68.260 17.012674
68.265 17.434952
68.270 17.795391
68.275 18.237532
68.280 18.37248
68.285 17.857607
68.290 17.308645
68.295 17.271034
68.300 17.452244
68.305 17.727535
68.310 17.572823
68.315 18.376049
68.320 18.892963
68.325 18.53388
68.330 18.019506
68.335 18.05504
68.340 18.14554
68.345 18.422188
68.350 17.701645
68.355 18.09247
68.360 18.399059
68.365 18.533918
68.370 18.384388
68.375 17.922636
68.380 17.26475
68.385 17.348438
68.390 16.707039
68.395 16.755671
68.400 17.216391
68.405 17.176579
68.410 17.50836
68.415 17.969185
68.420 18.27463
68.425 18.522251
68.430 17.942636
68.435 17.753571
68.440 17.590717
68.445 17.376898
68.450 17.319181
68.455 16.640228
68.460 16.647001
68.465 17.271891
68.470 16.899935
68.475 16.998638
68.480 16.847916
68.485 16.6908
68.490 17.575716
68.495 18.043217
68.500 18.035563
68.505 18.319162
68.510 18.080658
68.515 18.224129
68.520 17.919022
68.525 17.555746
68.530 17.467922
68.535 17.128981
68.540 17.264009
68.545 17.250242
68.550 17.659613
68.555 18.107014
68.560 17.892546
68.565 17.883631
68.570 17.745823
68.575 17.421335
68.580 17.578642
68.585 17.244749
68.590 16.886032
68.595 16.709476
68.600 16.985134
68.605 17.589041
68.610 18.460905
68.615 18.867081
68.620 18.935892
68.625 19.497652
68.630 19.174541
68.635 18.694973
68.640 18.392195
68.645 18.055288
68.650 18.056967
68.655 18.079506
68.660 18.338545
68.665 19.223509
68.670 19.544085
68.675 19.755535
68.680 19.557928
68.685 19.410496
68.690 18.923311
68.695 19.249989
68.700 18.907383
68.705 18.554607
68.710 18.843206
68.715 18.976301
68.720 19.159685
68.725 18.923653
68.730 18.440948
68.735 18.907768
68.740 19.046967
68.745 18.976639
68.750 18.404247
68.755 18.056311
68.760 18.31575
68.765 18.236044
68.770 17.84432
68.775 18.046162
68.780 18.112936
68.785 18.694727
68.790 19.303701
68.795 19.187908
68.800 19.041695
68.805 19.779848
68.810 19.902706
68.815 19.809065
68.820 19.245468
68.825 18.695581
68.830 19.126902
68.835 19.286331
68.840 18.560528
68.845 18.1049
68.850 18.136959
68.855 18.527697
68.860 18.735792
68.865 18.91905
68.870 18.913807
68.875 19.248407
68.880 19.486671
68.885 19.446898
68.890 19.423998
68.895 19.043722
68.900 19.04538
68.905 19.385914
68.910 19.64736
68.915 20.037985
68.920 20.428986
68.925 20.555279
68.930 21.01894
68.935 20.730148
68.940 20.339138
68.945 20.568867
68.950 20.469376
68.955 20.028755
68.960 20.489178
68.965 20.248346
68.970 19.877623
68.975 19.829536
68.980 18.897379
68.985 18.671362
68.990 19.018944
68.995 18.632254
69.000 19.226952
69.005 20.107866
69.010 20.766245
69.015 20.810413
69.020 20.508734
69.025 20.637268
69.030 20.431543
69.035 20.177935
69.040 19.44364
69.045 19.342943
69.050 19.835951
69.055 20.225149
69.060 20.082439
69.065 20.284594
69.070 20.522924
69.075 20.874657
69.080 20.959293
69.085 20.996824
69.090 21.142532
69.095 21.563555
69.100 22.168419
69.105 21.225441
69.110 20.204466
69.115 20.521242
69.120 21.018448
69.125 21.023886
69.130 20.82052
69.135 20.531462
69.140 21.895029
69.145 22.870811
69.150 22.068836
69.155 22.244698
69.160 22.33814
69.165 22.012905
69.170 22.725838
69.175 22.063169
69.180 21.831604
69.185 22.206764
69.190 21.527781
69.195 21.609018
69.200 21.336664
69.205 20.739717
69.210 20.514257
69.215 20.66567
69.220 21.047892
69.225 21.503546
69.230 21.177084
69.235 21.388624
69.240 22.087769
69.245 22.794624
69.250 23.298056
69.255 23.030739
69.260 22.954489
69.265 23.346342
69.270 23.633097
69.275 23.835745
69.280 23.986965
69.285 23.951651
69.290 24.287979
69.295 24.353369
69.300 24.487354
69.305 24.331139
69.310 22.907242
69.315 21.604378
69.320 21.305511
69.325 21.362337
69.330 21.964924
69.335 21.693312
69.340 22.107016
69.345 23.456274
69.350 24.026382
69.355 23.633345
69.360 23.480204
69.365 23.437147
69.370 23.238619
69.375 22.902321
69.380 23.740257
69.385 23.584972
69.390 24.206999
69.395 24.785198
69.400 25.336184
69.405 25.490173
69.410 25.140224
69.415 24.840319
69.420 25.409813
69.425 25.099396
69.430 24.525702
69.435 24.447725
69.440 25.247023
69.445 26.030764
69.450 26.334118
69.455 26.690548
69.460 26.282574
69.465 26.207293
69.470 25.47596
69.475 24.858679
69.480 24.454943
69.485 24.0214
69.490 23.678259
69.495 24.675779
69.500 25.409658
69.505 25.840071
69.510 25.815609
69.515 25.298515
69.520 25.006781
69.525 24.22509
69.530 23.209993
69.535 23.385263
69.540 23.213715
69.545 24.002377
69.550 24.719458
69.555 25.187981
69.560 26.469973
69.565 26.826317
69.570 26.855999
69.575 26.781855
69.580 26.110649
69.585 26.015011
69.590 26.37084
69.595 25.492762
69.600 24.821802
69.605 24.567467
69.610 24.603846
69.615 24.686045
69.620 25.09342
69.625 25.300674
69.630 25.59889
69.635 25.203167
69.640 25.275927
69.645 25.24407
69.650 24.755318
69.655 24.192598
69.660 24.031479
69.665 24.384138
69.670 24.971457
69.675 25.62253
69.680 26.042543
69.685 26.024456
69.690 25.985792
69.695 25.461231
69.700 25.496069
69.705 25.661331
69.710 25.336384
69.715 25.572674
69.720 25.835577
69.725 25.631327
69.730 25.787966
69.735 25.700453
69.740 25.204815
69.745 25.049362
69.750 24.402832
69.755 23.946749
69.760 24.575176
69.765 24.061419
69.770 23.273592
69.775 23.014969
69.780 22.149897
69.785 22.185841
69.790 21.168594
69.795 21.068272
69.800 21.840683
69.805 22.260771
69.810 21.672468
69.815 21.862289
69.820 21.78248
69.825 22.586533
69.830 22.182062
69.835 21.188389
69.840 20.585291
69.845 20.640234
69.850 20.456978
69.855 20.137558
69.860 19.519144
69.865 19.441954
69.870 19.955139
69.875 20.419756
69.880 20.581768
69.885 21.016575
69.890 21.11586
69.895 20.714388
69.900 19.934359
69.905 19.844521
69.910 19.767855
69.915 19.610716
69.920 19.489227
69.925 20.013939
69.930 19.710175
69.935 19.904268
69.940 19.86285
69.945 19.843441
69.950 19.506491
69.955 19.352346
69.960 19.565924
69.965 19.747604
69.970 20.06768
69.975 19.807638
69.980 19.258039
69.985 19.286777
69.990 18.680237
69.995 18.12616
70.000 17.817127
70.005 17.382441
70.010 16.902571
70.015 16.939182
70.020 17.215206
70.025 17.554251
70.030 18.25119
70.035 18.485744
70.040 19.146845
70.045 19.865406
70.050 20.451899
70.055 20.854727
70.060 20.696592
70.065 20.920584
70.070 20.977938
70.075 20.700037
70.080 20.48315
70.085 19.770836
70.090 19.741158
70.095 19.747368
70.100 19.076857
70.105 18.462614
70.110 17.764021
70.115 17.600027
70.120 17.493753
70.125 17.312614
70.130 17.16357
70.135 17.256361
70.140 17.164795
70.145 17.62516
70.150 17.637621
70.155 17.700079
70.160 17.151966
70.165 16.48506
70.170 16.843956
70.175 17.332054
70.180 17.126131
70.185 17.111937
70.190 17.259665
70.195 17.759472
70.200 18.153118
70.205 17.88904
70.210 17.786398
70.215 17.623541
70.220 17.621294
70.225 17.447319
70.230 18.139206
70.235 18.510622
70.240 18.262226
70.245 18.466578
70.250 18.513178
70.255 18.570957
70.260 18.102787
70.265 17.157866
70.270 16.454847
70.275 16.2799
70.280 15.997232
70.285 16.628811
70.290 16.698545
70.295 17.062096
70.300 17.035744
70.305 17.542248
70.310 17.959442
70.315 18.268639
70.320 17.996243
70.325 17.525707
70.330 17.521265
70.335 17.614851
70.340 17.694912
70.345 17.133291
70.350 16.520941
70.355 16.955952
70.360 17.856131
70.365 17.804054
70.370 17.309095
70.375 17.189068
70.380 17.593742
70.385 17.789242
70.390 17.102365
70.395 16.970709
70.400 16.650164
70.405 16.837276
70.410 17.337065
70.415 17.302767
70.420 17.392673
70.425 17.523708
70.430 17.747921
70.435 18.259037
70.440 18.171614
70.445 17.504946
70.450 17.593914
70.455 17.526028
70.460 17.406267
70.465 17.250311
70.470 17.199286
70.475 17.713621
70.480 17.891554
70.485 17.63756
70.490 17.292137
70.495 16.809494
70.500 17.260384
70.505 17.20026
70.510 17.222332
70.515 16.868969
70.520 16.422516
70.525 16.570908
70.530 16.911901
70.535 16.291046
70.540 16.162239
70.545 16.241991
70.550 17.082092
70.555 17.879183
70.560 18.229237
70.565 18.400959
70.570 18.274931
70.575 18.130508
70.580 17.590834
70.585 17.152103
70.590 16.450626
70.595 15.916537
70.600 15.456268
70.605 15.55327
70.610 15.530774
70.615 14.93385
70.620 15.574852
70.625 16.310369
70.630 16.864033
70.635 16.579117
70.640 16.085051
70.645 16.187326
70.650 16.40852
70.655 15.97637
70.660 15.716509
70.665 15.38081
70.670 16.039268
70.675 16.799881
70.680 16.446821
70.685 16.661634
70.690 16.871218
70.695 17.27137
70.700 17.227772
70.705 16.767782
70.710 16.768688
70.715 17.474873
70.720 18.265602
70.725 18.369793
70.730 18.276985
70.735 18.355692
70.740 18.538248
70.745 18.243015
70.750 18.011374
70.755 17.125475
70.760 16.83106
70.765 17.040485
70.770 17.379419
70.775 17.01284
70.780 16.605536
70.785 16.270884
70.790 16.425749
70.795 16.349272
70.800 15.876049
70.805 15.724113
70.810 15.627387
70.815 15.704473
70.820 16.886557
70.825 17.234993
70.830 17.243795
70.835 17.408304
70.840 17.805647
70.845 18.090895
70.850 18.412586
70.855 17.552099
70.860 16.781059
70.865 16.828056
70.870 16.472874
70.875 16.675463
70.880 16.935534
70.885 16.924738
70.890 16.503988
70.895 16.506903
70.900 16.583113
70.905 16.669828
70.910 16.376741
70.915 16.190176
70.920 15.916307
70.925 16.108572
70.930 16.491114
70.935 17.149635
70.940 17.827864
70.945 17.612045
70.950 17.725525
70.955 18.726978
70.960 19.097139
70.965 18.588615
70.970 17.126928
70.975 16.365187
70.980 16.772623
70.985 17.270393
70.990 16.676723
70.995 16.574356
71.000 16.962927
71.005 17.625816
71.010 17.440582
71.015 16.579037
71.020 15.855843
71.025 16.224922
71.030 16.550634
71.035 15.910306
71.040 16.065187
71.045 16.43232
71.050 16.709614
71.055 16.929817
71.060 15.586869
71.065 15.241785
71.070 15.518796
71.075 15.711821
71.080 15.78086
71.085 15.923312
71.090 16.414606
71.095 17.276173
71.100 17.430143
71.105 17.392641
71.110 17.453243
71.115 17.760113
71.120 17.455242
71.125 17.228655
71.130 17.767231
71.135 18.215839
71.140 18.093866
71.145 17.781727
71.150 18.318787
71.155 18.444551
71.160 18.361691
71.165 18.036037
71.170 18.427471
71.175 18.741743
71.180 18.346811
71.185 17.526251
71.190 17.400513
71.195 16.573719
71.200 15.898815
71.205 15.279783
71.210 15.502323
71.215 16.032566
71.220 15.97626
71.225 16.263397
71.230 17.026392
71.235 17.005148
71.240 16.178297
71.245 16.072496
71.250 15.868063
71.255 16.315218
71.260 16.254456
71.265 16.752983
71.270 16.372765
71.275 16.287256
71.280 15.848176
71.285 15.783154
71.290 15.87689
71.295 16.164295
71.300 16.037916
71.305 16.788975
71.310 17.415825
71.315 17.651941
71.320 17.80228
71.325 17.72027
71.330 17.406193
71.335 17.441839
71.340 17.645706
71.345 17.503494
71.350 17.032154
71.355 16.969994
71.360 16.815613
71.365 15.900507
71.370 15.922528
71.375 15.821342
71.380 15.92021
71.385 16.184374
71.390 15.888906
71.395 15.76886
71.400 16.381025
71.405 16.064539
71.410 16.13978
71.415 15.935701
71.420 16.180498
71.425 16.332617
71.430 15.86603
71.435 15.597356
71.440 15.608971
71.445 15.587016
71.450 16.064903
71.455 15.507924
71.460 15.983806
71.465 16.65233
71.470 16.424322
71.475 16.169159
71.480 16.002983
71.485 15.667061
71.490 15.617071
71.495 15.26434
71.500 15.414988
71.505 15.658403
71.510 16.026499
71.515 16.306278
71.520 16.439962
71.525 16.188101
71.530 16.049746
71.535 15.75832
71.540 15.622959
71.545 14.961019
71.550 14.90799
71.555 14.989879
71.560 14.830913
71.565 14.888635
71.570 15.19006
71.575 15.532134
71.580 15.987899
71.585 16.429077
71.590 16.922541
71.595 17.732092
71.600 17.635084
71.605 17.607973
71.610 17.429052
71.615 17.469419
71.620 17.418064
71.625 17.389475
71.630 17.228849
71.635 17.402903
71.640 17.075214
71.645 17.358187
71.650 17.338421
71.655 16.669678
71.660 16.39139
71.665 16.820847
71.670 17.100208
71.675 17.461716
71.680 17.537296
71.685 17.641804
71.690 17.507784
71.695 17.279463
71.700 16.840017
71.705 15.955055
71.710 15.696358
71.715 15.189565
71.720 14.914639
71.725 15.453673
71.730 15.146965
71.735 15.231761
71.740 16.012386
71.745 16.550047
71.750 16.616278
71.755 16.951717
71.760 16.394516
71.765 16.655083
71.770 16.648981
71.775 16.761156
71.780 16.794626
71.785 16.896952
71.790 16.730614
71.795 17.06428
71.800 17.10614
71.805 17.006704
71.810 16.81011
71.815 16.784967
71.820 17.130167
71.825 17.365595
71.830 17.457582
71.835 17.631622
71.840 17.420879
71.845 17.191097
71.850 16.967701
71.855 16.633125
71.860 16.814785
71.865 16.886032
71.870 16.802641
71.875 17.040743
71.880 16.635466
71.885 16.340605
71.890 16.36091
71.895 15.575174
71.900 15.756559
71.905 15.696283
71.910 15.618731
71.915 15.722955
71.920 15.596077
71.925 15.843401
71.930 15.954213
71.935 15.611815
71.940 15.790014
71.945 15.919041
71.950 15.886247
71.955 15.926369
71.960 15.66594
71.965 15.983345
71.970 16.019951
71.975 15.976759
71.980 16.092773
71.985 16.253895
71.990 16.411753
71.995 16.062201
72.000 16.023912
72.005 16.306705
72.010 15.747208
72.015 15.687555
72.020 15.641356
72.025 15.665516
72.030 15.965098
72.035 15.688752
72.040 15.738931
72.045 15.638175
72.050 15.403173
72.055 15.657488
72.060 15.786211
72.065 15.237836
72.070 14.788618
72.075 14.64431
72.080 15.226772
72.085 15.378392
72.090 14.8009
72.095 14.752129
72.100 15.26321
72.105 15.615707
72.110 16.281813
72.115 16.625393
72.120 16.945198
72.125 17.359489
72.130 17.714182
72.135 17.802668
72.140 17.879622
72.145 17.142017
72.150 16.778366
72.155 16.63032
72.160 16.302544
72.165 16.304438
72.170 15.83013
72.175 16.090298
72.180 16.069078
72.185 15.72977
72.190 15.769918
72.195 15.76939
72.200 15.124894
72.205 15.001084
72.210 14.459982
72.215 14.981774
72.220 15.020788
72.225 14.975179
72.230 15.348166
72.235 15.815642
72.240 16.574158
72.245 16.714746
72.250 16.388271
72.255 16.426311
72.260 16.465998
72.265 16.230625
72.270 16.199533
72.275 15.613126
72.280 15.375895
72.285 15.332101
72.290 15.112191
72.295 15.050837
72.300 14.94764
72.305 14.662868
72.310 14.563565
72.315 15.027559
72.320 14.897571
72.325 14.837027
72.330 15.361166
72.335 16.007559
72.340 16.503431
72.345 16.902237
72.350 17.1998
72.355 18.208078
72.360 18.17593
72.365 17.62628
72.370 17.525364
72.375 17.468813
72.380 17.271862
72.385 16.855742
72.390 16.000109
72.395 16.181688
72.400 16.240543
72.405 16.322102
72.410 16.544758
72.415 16.485514
72.420 15.69028
72.425 16.023554
72.430 16.103481
72.435 15.969698
72.440 15.925781
72.445 15.483515
72.450 15.574047
72.455 16.001335
72.460 15.926217
72.465 15.653352
72.470 15.91762
72.475 15.23567
72.480 15.284856
72.485 14.994258
72.490 15.301361
72.495 15.657377
72.500 15.504349
72.505 15.067
72.510 15.335182
72.515 14.93677
72.520 15.243514
72.525 14.771042
72.530 14.929923
72.535 15.502188
72.540 15.630236
72.545 15.917347
72.550 16.613363
72.555 16.525179
72.560 16.986662
72.565 16.636509
72.570 16.052238
72.575 15.706744
72.580 15.774582
72.585 15.725409
72.590 15.826256
72.595 14.926443
72.600 15.436602
72.605 15.614038
72.610 15.622458
72.615 15.115702
72.620 14.87676
72.625 14.914765
72.630 14.608162
72.635 14.771717
72.640 14.73878
72.645 14.842064
72.650 14.884393
72.655 14.636209
72.660 14.892042
72.665 15.323026
72.670 15.083251
72.675 16.093353
72.680 16.510265
72.685 16.738607
72.690 16.622995
72.695 16.73926
72.700 16.462807
72.705 15.846357
72.710 14.862437
72.715 14.793521
72.720 15.301157
72.725 15.795083
72.730 15.711202
72.735 16.254986
72.740 16.344141
72.745 16.217075
72.750 16.155277
72.755 15.29684
72.760 14.944558
72.765 14.489592
72.770 14.153421
72.775 14.772288
72.780 14.902225
72.785 14.881474
72.790 15.346737
72.795 15.555336
72.800 15.825026
72.805 16.08765
72.810 15.899251
72.815 15.62764
72.820 15.736346
72.825 16.091478
72.830 15.914474
72.835 15.947778
72.840 15.890282
72.845 15.718347
72.850 15.956147
72.855 15.651566
72.860 15.76792
72.865 15.594376
72.870 15.220575
72.875 15.216095
72.880 15.437122
72.885 15.469339
72.890 15.475561
72.895 15.215086
72.900 15.366894
72.905 15.664391
72.910 15.488025
72.915 14.946141
72.920 14.899405
72.925 15.12437
72.930 15.570668
72.935 15.597458
72.940 15.597339
72.945 15.907327
72.950 15.883963
72.955 15.8229
72.960 15.628807
72.965 15.156081
72.970 15.116576
72.975 15.101851
72.980 15.131451
72.985 15.642711
72.990 16.155251
72.995 15.49194
73.000 15.718411
