!@!!GADDS PLOTSO FILE: Chi integration type
!@!!Title/SampleName: map-96
!@!!Comment: ?
!@!!User: Bruker Instrument Administrator
!@!!Site: University of Illinois Chicago
!@!!Frame: map-96_01_000.gfrm
!@!!Wavelengths    1.54184   1.54056   1.54439
!@!!Frame angles: 2Theta: 63.000 Omega: 50.000 Phi: 0.000 Chi: 90.000
!@!!Integration range: 2Theta: 53.000 to 73.000  Gamma: -105.000 to -75.000
!@!!Integration method: bin normalized
!@!N
!@!SS
!@!M
!@!L 0.0 0.0 0.0 0.0
!@!XDegrees
!@!YCounts
53.000 10.076565
53.005 9.774412
53.010 9.683086
53.015 9.231226
53.020 8.580992
53.025 8.363089
53.030 8.692423
53.035 9.528349
53.040 9.397438
53.045 9.116899
53.050 9.07171
53.055 9.243112
53.060 9.187656
53.065 8.886389
53.070 9.026114
53.075 9.454345
53.080 9.617446
53.085 10.085013
53.090 10.321792
53.095 10.643491
53.100 11.080276
53.105 11.043118
53.110 11.251192
53.115 11.281438
53.120 11.372425
53.125 11.19515
53.130 10.828834
53.135 10.071757
53.140 9.628345
53.145 10.087864
53.150 10.297539
53.155 10.467859
53.160 10.482033
53.165 10.749719
53.170 10.79991
53.175 10.681676
53.180 10.108857
53.185 9.567352
53.190 9.691488
53.195 9.963497
53.200 10.068639
53.205 10.4493
53.210 10.431211
53.215 10.37355
53.220 10.656277
53.225 9.895227
53.230 9.534773
53.235 9.336515
53.240 9.014124
53.245 9.17826
53.250 9.327441
53.255 9.286367
53.260 9.408194
53.265 9.298939
53.270 9.607361
53.275 9.73227
53.280 9.796348
53.285 9.331975
53.290 9.274726
53.295 9.576163
53.300 9.593976
53.305 9.261314
53.310 8.900531
53.315 8.899194
53.320 9.043572
53.325 9.011392
53.330 9.273098
53.335 9.426175
53.340 9.897301
53.345 10.029075
53.350 10.107319
53.355 10.497311
53.360 10.842336
53.365 10.861324
53.370 11.09429
53.375 11.038572
53.380 11.20956
53.385 11.951023
53.390 11.504141
53.395 11.369248
53.400 11.240782
53.405 10.980215
53.410 11.219077
53.415 10.920135
53.420 10.61095
53.425 10.738777
53.430 10.460765
53.435 10.359654
53.440 10.118377
53.445 9.895438
53.450 9.827141
53.455 9.700244
53.460 9.750135
53.465 10.00652
53.470 10.242674
53.475 10.481639
53.480 10.456962
53.485 10.608184
53.490 10.779385
53.495 11.133646
53.500 10.797216
53.505 11.138067
53.510 11.246537
53.515 11.524472
53.520 11.117236
53.525 10.442261
53.530 10.163827
53.535 10.431975
53.540 10.153564
53.545 10.231182
53.550 10.509139
53.555 11.249733
53.560 11.364344
53.565 11.119464
53.570 11.24188
53.575 11.408008
53.580 11.125299
53.585 10.571395
53.590 10.656789
53.595 11.251091
53.600 11.050136
53.605 10.44781
53.610 10.404416
53.615 10.335638
53.620 10.681086
53.625 10.691895
53.630 10.209731
53.635 10.875671
53.640 11.670864
53.645 11.564479
53.650 12.025906
53.655 11.765296
53.660 11.459564
53.665 11.595537
53.670 11.163986
53.675 10.688429
53.680 10.235007
53.685 9.446349
53.690 9.557453
53.695 9.950683
53.700 9.986088
53.705 9.966243
53.710 10.035881
53.715 10.340857
53.720 10.818618
53.725 11.413615
53.730 12.053561
53.735 12.313845
53.740 12.24838
53.745 12.4236
53.750 12.62349
53.755 12.216159
53.760 11.207294
53.765 10.568508
53.770 10.444425
53.775 10.503668
53.780 10.195473
53.785 10.00775
53.790 10.174397
53.795 10.717509
53.800 11.021085
53.805 11.298101
53.810 11.489158
53.815 11.925301
53.820 12.451243
53.825 12.229009
53.830 11.947069
53.835 12.04557
53.840 11.624269
53.845 11.456141
53.850 11.116725
53.855 10.947816
53.860 11.536329
53.865 11.645003
53.870 11.866285
53.875 12.15226
53.880 12.159029
53.885 12.326896
53.890 12.344673
53.895 11.838767
53.900 11.521777
53.905 10.998119
53.910 10.962246
53.915 11.120604
53.920 11.036939
53.925 11.188689
53.930 11.419283
53.935 11.387077
53.940 11.748283
53.945 11.430439
53.950 11.395544
53.955 11.229009
53.960 10.978538
53.965 11.481029
53.970 11.502587
53.975 11.577929
53.980 12.023274
53.985 12.270256
53.990 12.437954
53.995 12.768604
54.000 11.81988
54.005 11.589182
54.010 11.297332
54.015 11.400419
54.020 11.427993
54.025 10.950761
54.030 11.0218
54.035 12.005832
54.040 12.61613
54.045 12.680784
54.050 12.401971
54.055 12.752107
54.060 12.774795
54.065 12.433514
54.070 12.152397
54.075 11.980501
54.080 12.24412
54.085 12.295725
54.090 11.577487
54.095 11.625155
54.100 11.543694
54.105 11.058282
54.110 10.706661
54.115 10.230526
54.120 9.885559
54.125 10.336354
54.130 10.119201
54.135 10.152202
54.140 10.668599
54.145 11.276571
54.150 11.10336
54.155 10.808082
54.160 10.56498
54.165 11.05092
54.170 11.170596
54.175 11.107806
54.180 11.161066
54.185 11.697155
54.190 12.18727
54.195 12.063191
54.200 11.896905
54.205 11.916891
54.210 11.937034
54.215 12.097031
54.220 12.201818
54.225 12.431967
54.230 13.239733
54.235 13.497617
54.240 13.417906
54.245 13.290538
54.250 12.90758
54.255 12.814903
54.260 12.39978
54.265 11.728733
54.270 11.709503
54.275 11.643745
54.280 11.316776
54.285 11.221898
54.290 11.183634
54.295 11.616538
54.300 11.648853
54.305 11.396835
54.310 11.369422
54.315 11.54078
54.320 11.65889
54.325 11.524402
54.330 11.383694
54.335 11.632631
54.340 11.736023
54.345 11.754195
54.350 11.811831
54.355 12.16559
54.360 12.544584
54.365 12.445082
54.370 12.095913
54.375 11.787013
54.380 11.95361
54.385 12.16939
54.390 11.532075
54.395 10.834899
54.400 11.096211
54.405 11.447694
54.410 11.944074
54.415 11.933986
54.420 11.864973
54.425 12.682316
54.430 13.107524
54.435 12.679121
54.440 12.277711
54.445 11.744215
54.450 11.655656
54.455 11.260178
54.460 10.57773
54.465 10.556943
54.470 10.575968
54.475 11.497204
54.480 11.827451
54.485 11.640821
54.490 11.628692
54.495 12.126558
54.500 12.207841
54.505 12.314432
54.510 11.903678
54.515 11.631421
54.520 11.523561
54.525 11.45903
54.530 11.69452
54.535 11.546614
54.540 11.309591
54.545 11.511104
54.550 11.686837
54.555 11.988474
54.560 11.695138
54.565 11.495603
54.570 11.474475
54.575 11.66241
54.580 11.153743
54.585 11.18646
54.590 11.052604
54.595 11.073154
54.600 11.16387
54.605 11.381428
54.610 11.574009
54.615 11.538638
54.620 11.743398
54.625 11.818325
54.630 11.494117
54.635 11.314132
54.640 11.217772
54.645 10.809378
54.650 11.134064
54.655 11.007104
54.660 11.685375
54.665 12.066373
54.670 12.478806
54.675 12.828437
54.680 12.663094
54.685 12.74251
54.690 13.100991
54.695 12.575314
54.700 12.18014
54.705 11.850714
54.710 11.335442
54.715 11.982068
54.720 11.589602
54.725 11.197762
54.730 11.374913
54.735 11.524547
54.740 11.716253
54.745 11.872971
54.750 11.580187
54.755 11.729555
54.760 11.590009
54.765 11.670177
54.770 11.905128
54.775 12.250368
54.780 11.986591
54.785 11.760777
54.790 11.592766
54.795 11.955669
54.800 11.993459
54.805 11.723196
54.810 11.225566
54.815 11.824722
54.820 11.814446
54.825 12.288206
54.830 12.443604
54.835 12.514254
54.840 12.55427
54.845 12.397422
54.850 12.365364
54.855 12.612534
54.860 12.345747
54.865 11.910583
54.870 11.849574
54.875 11.730361
54.880 12.242965
54.885 12.019178
54.890 11.672485
54.895 11.457825
54.900 11.660146
54.905 11.825044
54.910 11.635617
54.915 11.135182
54.920 11.075655
54.925 11.317404
54.930 10.817794
54.935 10.427564
54.940 10.659971
54.945 11.328767
54.950 11.838623
54.955 11.925688
54.960 12.034629
54.965 12.817069
54.970 12.767023
54.975 12.541827
54.980 12.011524
54.985 12.072244
54.990 12.655916
54.995 12.241149
55.000 11.896177
55.005 11.93609
55.010 11.975689
55.015 12.170608
55.020 11.742286
55.025 11.275124
55.030 11.464174
55.035 11.346417
55.040 11.238605
55.045 11.535174
55.050 11.740277
55.055 12.361935
55.060 12.572665
55.065 12.919899
55.070 13.352196
55.075 13.746789
55.080 13.610629
55.085 13.123899
55.090 12.704002
55.095 12.73323
55.100 12.902225
55.105 12.749477
55.110 12.453819
55.115 12.430915
55.120 12.510437
55.125 12.58148
55.130 12.198252
55.135 11.950367
55.140 12.042456
55.145 11.859393
55.150 11.985621
55.155 12.352324
55.160 12.110679
55.165 12.25085
55.170 12.196092
55.175 12.274137
55.180 12.576369
55.185 12.797468
55.190 12.496642
55.195 12.954629
55.200 13.13705
55.205 13.120174
55.210 12.858037
55.215 12.695708
55.220 12.226498
55.225 12.480351
55.230 11.80977
55.235 11.681035
55.240 11.822072
55.245 12.045603
55.250 11.949227
55.255 12.322372
55.260 11.947291
55.265 12.491704
55.270 12.571988
55.275 12.368486
55.280 11.919432
55.285 12.078528
55.290 12.671708
55.295 12.791251
55.300 12.872254
55.305 12.385692
55.310 11.995448
55.315 12.29128
55.320 12.148547
55.325 12.319471
55.330 12.875105
55.335 13.452096
55.340 13.763268
55.345 14.140112
55.350 13.988059
55.355 13.729638
55.360 13.728357
55.365 13.511894
55.370 13.140918
55.375 13.452462
55.380 13.878145
55.385 13.98283
55.390 13.773994
55.395 13.209625
55.400 13.119589
55.405 13.436993
55.410 13.254554
55.415 12.96246
55.420 12.654696
55.425 12.407497
55.430 12.163015
55.435 12.167568
55.440 12.050745
55.445 12.059829
55.450 11.771635
55.455 11.788036
55.460 11.921984
55.465 12.160799
55.470 11.783191
55.475 11.526962
55.480 11.617743
55.485 12.158885
55.490 12.364755
55.495 13.20437
55.500 13.408999
55.505 13.147469
55.510 13.368663
55.515 13.492899
55.520 13.721148
55.525 13.676836
55.530 13.250669
55.535 13.628918
55.540 14.098265
55.545 14.301503
55.550 14.640307
55.555 14.69079
55.560 14.254588
55.565 13.479233
55.570 13.252827
55.575 13.397313
55.580 12.964607
55.585 12.475069
55.590 12.626974
55.595 12.801108
55.600 12.66719
55.605 12.409624
55.610 12.372527
55.615 12.433754
55.620 12.448461
55.625 12.25475
55.630 12.438789
55.635 12.663969
55.640 12.716556
55.645 12.503897
55.650 12.341198
55.655 12.569775
55.660 12.403596
55.665 12.519704
55.670 12.215874
55.675 11.969269
55.680 11.623692
55.685 11.719526
55.690 11.543169
55.695 11.733652
55.700 11.645197
55.705 12.028413
55.710 11.879241
55.715 12.187007
55.720 12.19283
55.725 12.29239
55.730 13.019991
55.735 13.381994
55.740 13.444003
55.745 14.048505
55.750 14.291931
55.755 13.945424
55.760 14.107095
55.765 14.123031
55.770 14.065122
55.775 14.485136
55.780 14.143108
55.785 13.943851
55.790 14.079281
55.795 14.102253
55.800 13.843497
55.805 13.416179
55.810 12.499887
55.815 12.459689
55.820 12.57532
55.825 12.462803
55.830 12.196478
55.835 12.411106
55.840 12.978114
55.845 13.395179
55.850 13.856105
55.855 13.564132
55.860 13.692136
55.865 13.804085
55.870 13.256899
55.875 13.127889
55.880 12.65755
55.885 12.801572
55.890 12.788273
55.895 12.704808
55.900 12.18177
55.905 12.001558
55.910 12.077959
55.915 12.405635
55.920 12.034136
55.925 12.180834
55.930 12.598887
55.935 13.493062
55.940 13.690316
55.945 13.643975
55.950 13.478132
55.955 13.79403
55.960 13.578012
55.965 13.123206
55.970 12.953237
55.975 12.718482
55.980 12.983356
55.985 12.865713
55.990 12.777238
55.995 12.523049
56.000 12.585178
56.005 12.638021
56.010 12.785865
56.015 12.013085
56.020 12.469135
56.025 12.638103
56.030 13.113654
56.035 12.985288
56.040 12.629981
56.045 12.5431
56.050 12.861979
56.055 12.221506
56.060 12.196772
56.065 12.129721
56.070 12.356186
56.075 12.88027
56.080 13.159585
56.085 13.569696
56.090 14.164446
56.095 14.33612
56.100 14.442857
56.105 14.133018
56.110 14.389147
56.115 14.553131
56.120 14.416283
56.125 14.106611
56.130 13.934228
56.135 13.923749
56.140 14.085154
56.145 13.756459
56.150 13.881642
56.155 13.751867
56.160 13.90332
56.165 13.358361
56.170 13.256201
56.175 13.075875
56.180 12.813713
56.185 12.721935
56.190 12.528191
56.195 12.938756
56.200 13.804958
56.205 13.913846
56.210 13.710593
56.215 13.565362
56.220 13.888766
56.225 14.294089
56.230 14.182038
56.235 13.8394
56.240 13.999746
56.245 14.693696
56.250 14.998302
56.255 14.619137
56.260 14.686504
56.265 14.710773
56.270 14.76664
56.275 14.960419
56.280 14.746143
56.285 14.680301
56.290 14.572901
56.295 14.061769
56.300 13.93963
56.305 13.768091
56.310 13.217171
56.315 12.820971
56.320 12.792227
56.325 12.663995
56.330 12.66146
56.335 12.826207
56.340 12.853623
56.345 12.906985
56.350 12.976217
56.355 13.122711
56.360 13.437072
56.365 13.596267
56.370 13.384237
56.375 13.303252
56.380 13.444889
56.385 13.518832
56.390 13.312803
56.395 12.989839
56.400 12.576511
56.405 12.315661
56.410 12.707648
56.415 12.860148
56.420 12.986042
56.425 13.162082
56.430 13.180899
56.435 13.653605
56.440 13.691899
56.445 13.402109
56.450 13.318247
56.455 13.378276
56.460 13.448879
56.465 13.97059
56.470 13.805885
56.475 13.887836
56.480 13.915444
56.485 13.67972
56.490 13.930311
56.495 14.541049
56.500 14.234821
56.505 14.384936
56.510 14.586651
56.515 14.738774
56.520 14.868258
56.525 14.492317
56.530 13.747275
56.535 13.782361
56.540 13.404943
56.545 12.853208
56.550 12.971332
56.555 13.448944
56.560 13.232774
56.565 13.064422
56.570 12.911646
56.575 12.787606
56.580 13.195538
56.585 12.963917
56.590 12.457381
56.595 12.432215
56.600 12.186057
56.605 12.398314
56.610 12.606041
56.615 12.280786
56.620 12.003178
56.625 12.108817
56.630 12.012602
56.635 12.044002
56.640 12.596649
56.645 12.879263
56.650 13.544647
56.655 13.858048
56.660 14.0349
56.665 14.285999
56.670 14.527885
56.675 14.159363
56.680 13.910974
56.685 13.799453
56.690 13.997614
56.695 14.504497
56.700 15.089772
56.705 15.366732
56.710 15.40153
56.715 15.749595
56.720 16.010754
56.725 15.987
56.730 15.653463
56.735 15.463886
56.740 15.142709
56.745 15.388034
56.750 14.84355
56.755 14.218484
56.760 13.914849
56.765 13.923022
56.770 14.085763
56.775 14.032519
56.780 14.012851
56.785 14.233624
56.790 14.333991
56.795 14.357357
56.800 14.311229
56.805 13.890096
56.810 14.084793
56.815 13.545792
56.820 13.461025
56.825 13.858451
56.830 13.88395
56.835 13.284194
56.840 13.295145
56.845 13.31394
56.850 13.899015
56.855 14.264191
56.860 13.712293
56.865 13.827899
56.870 14.053987
56.875 14.396783
56.880 14.583344
56.885 14.392068
56.890 14.270258
56.895 15.000272
56.900 15.356483
56.905 15.821127
56.910 15.383165
56.915 15.131389
56.920 14.822122
56.925 14.65564
56.930 13.990548
56.935 13.454846
56.940 13.673584
56.945 13.652201
56.950 13.997819
56.955 14.419635
56.960 14.697437
56.965 14.758197
56.970 14.810868
56.975 14.572845
56.980 14.55278
56.985 14.364212
56.990 13.893135
56.995 13.87184
57.000 14.372149
57.005 14.755219
57.010 14.717443
57.015 14.889515
57.020 15.172223
57.025 15.429041
57.030 15.229758
57.035 14.530133
57.040 14.18265
57.045 14.130001
57.050 14.00603
57.055 13.606519
57.060 13.415003
57.065 13.228955
57.070 13.295313
57.075 13.736374
57.080 13.665684
57.085 13.655098
57.090 13.48314
57.095 13.583978
57.100 13.965452
57.105 13.949867
57.110 13.745231
57.115 13.801672
57.120 14.161956
57.125 14.710777
57.130 14.399824
57.135 14.723507
57.140 14.76298
57.145 15.206441
57.150 14.974986
57.155 14.424907
57.160 14.010323
57.165 13.833416
57.170 13.541914
57.175 13.565954
57.180 13.134933
57.185 12.790709
57.190 13.094077
57.195 13.514576
57.200 13.563155
57.205 13.477699
57.210 13.472675
57.215 13.840181
57.220 14.375278
57.225 14.163427
57.230 14.186759
57.235 14.499366
57.240 14.360487
57.245 14.342363
57.250 13.956868
57.255 13.335521
57.260 13.216666
57.265 13.542598
57.270 13.80912
57.275 14.294977
57.280 14.198172
57.285 14.144166
57.290 14.765836
57.295 14.851953
57.300 14.325693
57.305 14.243835
57.310 14.007164
57.315 13.964504
57.320 14.20888
57.325 14.395268
57.330 14.854359
57.335 15.102081
57.340 15.23507
57.345 15.759159
57.350 16.372032
57.355 16.263235
57.360 16.024563
57.365 15.853671
57.370 15.659018
57.375 15.703262
57.380 15.359779
57.385 15.275314
57.390 15.28524
57.395 15.718398
57.400 16.208902
57.405 16.128181
57.410 15.803485
57.415 15.875024
57.420 16.012232
57.425 16.093487
57.430 15.53674
57.435 14.977233
57.440 14.830438
57.445 14.753005
57.450 14.574553
57.455 14.21961
57.460 14.078021
57.465 14.349153
57.470 14.152386
57.475 14.253982
57.480 14.248391
57.485 14.016866
57.490 14.015456
57.495 13.837527
57.500 13.347462
57.505 13.259089
57.510 12.632307
57.515 12.611053
57.520 12.693804
57.525 12.356619
57.530 12.395892
57.535 13.182945
57.540 13.692698
57.545 14.518581
57.550 14.767747
57.555 15.371353
57.560 16.073608
57.565 15.861677
57.570 15.24684
57.575 15.268568
57.580 15.063236
57.585 14.411983
57.590 13.887604
57.595 13.702467
57.600 13.948793
57.605 14.224338
57.610 14.302046
57.615 14.494777
57.620 15.170814
57.625 15.727999
57.630 15.950032
57.635 15.935323
57.640 15.824609
57.645 15.770643
57.650 15.611372
57.655 16.101675
57.660 16.172901
57.665 16.368002
57.670 16.515507
57.675 15.985182
57.680 16.103178
57.685 15.983794
57.690 15.063284
57.695 15.056992
57.700 14.710974
57.705 14.678143
57.710 15.127185
57.715 14.809822
57.720 15.012567
57.725 15.041215
57.730 15.301457
57.735 15.485534
57.740 15.343822
57.745 15.08748
57.750 15.184582
57.755 15.130804
57.760 15.129034
57.765 14.727427
57.770 14.537032
57.775 14.734964
57.780 15.225777
57.785 15.724914
57.790 15.581582
57.795 15.852777
57.800 15.640443
57.805 16.081795
57.810 16.391846
57.815 16.029785
57.820 15.868161
57.825 16.231256
57.830 16.36944
57.835 16.484549
57.840 16.105827
57.845 16.434038
57.850 16.864836
57.855 16.845858
57.860 16.557598
57.865 15.990458
57.870 15.791656
57.875 16.072361
57.880 15.499335
57.885 14.802984
57.890 14.624681
57.895 13.965388
57.900 14.40854
57.905 14.753561
57.910 14.458923
57.915 14.87037
57.920 15.312681
57.925 15.034767
57.930 15.798775
57.935 15.75993
57.940 16.107508
57.945 15.973924
57.950 16.129494
57.955 15.978508
57.960 15.960601
57.965 15.849209
57.970 16.5082
57.975 16.334204
57.980 17.033915
57.985 17.208584
57.990 17.297192
57.995 18.024612
58.000 18.012186
58.005 17.440062
58.010 17.013786
58.015 16.717527
58.020 16.561985
58.025 17.119444
58.030 17.431465
58.035 17.784302
58.040 18.458212
58.045 18.488232
58.050 19.015268
58.055 19.232992
58.060 18.423258
58.065 18.271366
58.070 18.049204
58.075 17.918203
58.080 18.028553
58.085 17.308767
58.090 16.947542
58.095 16.951471
58.100 16.327833
58.105 16.178232
58.110 16.274717
58.115 16.658695
58.120 17.120552
58.125 17.609108
58.130 17.970716
58.135 17.753929
58.140 17.197645
58.145 16.879562
58.150 16.601526
58.155 16.154108
58.160 15.353073
58.165 15.024093
58.170 15.743592
58.175 15.983694
58.180 15.803389
58.185 15.428602
58.190 15.661365
58.195 16.261236
58.200 16.912575
58.205 16.945251
58.210 17.363911
58.215 17.861132
58.220 18.246731
58.225 19.012365
58.230 19.510767
58.235 19.502363
58.240 19.703081
58.245 19.719433
58.250 19.724312
58.255 19.608644
58.260 19.262991
58.265 19.137173
58.270 19.228743
58.275 19.001873
58.280 19.066589
58.285 18.69453
58.290 18.572357
58.295 18.611477
58.300 18.408306
58.305 18.593304
58.310 19.494547
58.315 19.860329
58.320 20.631557
58.325 20.805397
58.330 20.82065
58.335 21.05868
58.340 20.497
58.345 20.290783
58.350 20.295546
58.355 20.176373
58.360 20.313095
58.365 20.235067
58.370 20.199099
58.375 20.274187
58.380 19.617479
58.385 19.412603
58.390 20.184017
58.395 20.602703
58.400 20.600912
58.405 20.780926
58.410 21.06464
58.415 21.665276
58.420 22.067406
58.425 21.650084
58.430 22.056892
58.435 22.533142
58.440 22.763996
58.445 23.378527
58.450 23.952742
58.455 24.126631
58.460 24.44253
58.465 24.567142
58.470 25.093542
58.475 25.366308
58.480 25.038343
58.485 25.404137
58.490 26.085117
58.495 26.696697
58.500 27.594267
58.505 28.436974
58.510 29.80582
58.515 30.248205
58.520 30.70573
58.525 31.388668
58.530 31.683002
58.535 31.678316
58.540 31.94673
58.545 31.6096
58.550 31.740936
58.555 32.376217
58.560 33.566185
58.565 33.747494
58.570 33.901894
58.575 33.582836
58.580 33.740105
58.585 34.535419
58.590 35.07391
58.595 34.991402
58.600 35.117783
58.605 35.654732
58.610 36.37101
58.615 36.781845
58.620 37.071568
58.625 36.68335
58.630 37.050629
58.635 37.658848
58.640 37.460037
58.645 37.978142
58.650 38.734962
58.655 39.202003
58.660 39.455772
58.665 39.657104
58.670 39.926193
58.675 40.408512
58.680 40.163235
58.685 39.591454
58.690 39.500721
58.695 40.888103
58.700 40.443092
58.705 39.902924
58.710 40.603428
58.715 41.486362
58.720 41.780804
58.725 40.856598
58.730 39.374939
58.735 39.223415
58.740 39.097088
58.745 37.918537
58.750 37.558353
58.755 37.483974
58.760 37.536064
58.765 37.667324
58.770 37.674625
58.775 37.046906
58.780 36.935112
58.785 35.578762
58.790 34.946537
58.795 34.784603
58.800 33.867069
58.805 34.008335
58.810 33.745499
58.815 33.017498
58.820 32.39922
58.825 31.687185
58.830 30.819506
58.835 29.789562
58.840 28.782124
58.845 27.938469
58.850 27.359785
58.855 27.617998
58.860 27.771179
58.865 28.355192
58.870 28.97905
58.875 29.026609
58.880 28.858868
58.885 28.55722
58.890 27.78034
58.895 26.933046
58.900 26.043356
58.905 24.213209
58.910 23.554626
58.915 23.050993
58.920 22.57832
58.925 22.467688
58.930 22.160151
58.935 21.88283
58.940 22.321705
58.945 22.167171
58.950 22.166952
58.955 22.084379
58.960 22.102278
58.965 22.02059
58.970 21.573399
58.975 21.268808
58.980 21.163363
58.985 20.817562
58.990 20.377613
58.995 19.918964
59.000 19.73077
59.005 19.596136
59.010 19.619898
59.015 19.092339
59.020 18.577526
59.025 18.392649
59.030 18.064022
59.035 18.042082
59.040 18.063105
59.045 18.030104
59.050 18.180481
59.055 18.810925
59.060 19.22616
59.065 19.283623
59.070 18.645599
59.075 18.710773
59.080 18.046644
59.085 18.006756
59.090 17.723745
59.095 18.117043
59.100 18.928799
59.105 19.5746
59.110 19.153728
59.115 19.641027
59.120 19.645796
59.125 19.37966
59.130 18.65661
59.135 18.20389
59.140 18.087086
59.145 18.061697
59.150 17.594376
59.155 17.294487
59.160 17.619532
59.165 17.757813
59.170 17.554333
59.175 17.217857
59.180 17.04858
59.185 17.117262
59.190 16.889093
59.195 16.707499
59.200 16.760611
59.205 17.191107
59.210 17.402174
59.215 17.605755
59.220 17.06002
59.225 16.925692
59.230 16.565088
59.235 16.267752
59.240 15.953759
59.245 15.874834
59.250 15.998466
59.255 16.114616
59.260 16.07477
59.265 16.047647
59.270 15.952212
59.275 16.11488
59.280 15.744489
59.285 15.372181
59.290 15.558646
59.295 15.610632
59.300 15.761022
59.305 15.946157
59.310 15.960351
59.315 16.120253
59.320 16.198158
59.325 16.182695
59.330 16.825775
59.335 16.904127
59.340 16.543108
59.345 16.397812
59.350 16.298641
59.355 16.404886
59.360 16.401356
59.365 16.225784
59.370 15.705262
59.375 15.272642
59.380 15.254826
59.385 15.475169
59.390 15.844668
59.395 16.447496
59.400 15.904572
59.405 15.878497
59.410 16.602974
59.415 16.523129
59.420 16.527918
59.425 16.505854
59.430 16.159599
59.435 16.403635
59.440 16.197968
59.445 15.9377
59.450 15.829726
59.455 15.623368
59.460 15.293191
59.465 15.055199
59.470 15.244882
59.475 16.030979
59.480 16.476307
59.485 16.786793
59.490 16.977295
59.495 17.393824
59.500 17.336294
59.505 16.997984
59.510 16.58976
59.515 16.664993
59.520 16.548037
59.525 16.274172
59.530 15.601964
59.535 15.822206
59.540 16.131117
59.545 16.475267
59.550 15.980556
59.555 15.913288
59.560 16.131977
59.565 16.066828
59.570 15.759711
59.575 16.069244
59.580 15.557649
59.585 15.583343
59.590 15.389604
59.595 15.613862
59.600 15.920437
59.605 15.779014
59.610 15.210953
59.615 14.984495
59.620 15.33634
59.625 15.255547
59.630 15.10595
59.635 15.449972
59.640 15.802166
59.645 16.187717
59.650 16.263838
59.655 16.400215
59.660 16.767569
59.665 16.155893
59.670 16.109346
59.675 15.928953
59.680 15.653329
59.685 15.628589
59.690 15.574433
59.695 15.293778
59.700 15.93213
59.705 16.081823
59.710 16.344534
59.715 16.52276
59.720 16.757565
59.725 16.58684
59.730 16.540043
59.735 16.637678
59.740 16.336578
59.745 16.224558
59.750 15.916592
59.755 15.733011
59.760 15.819289
59.765 16.043097
59.770 15.909551
59.775 15.980436
59.780 16.212034
59.785 16.867025
59.790 17.198353
59.795 17.228401
59.800 16.990759
59.805 16.03758
59.810 15.594163
59.815 15.443695
59.820 15.41266
59.825 14.93845
59.830 14.8956
59.835 15.095631
59.840 15.530663
59.845 15.669091
59.850 15.483728
59.855 15.332959
59.860 15.539531
59.865 15.493916
59.870 15.584234
59.875 15.31137
59.880 15.808911
59.885 15.932495
59.890 16.395443
59.895 16.898476
59.900 16.876732
59.905 16.700645
59.910 17.076986
59.915 16.771572
59.920 16.827063
59.925 16.282446
59.930 15.835509
59.935 16.085369
59.940 16.110279
59.945 15.496943
59.950 15.29815
59.955 15.07482
59.960 14.945145
59.965 14.953667
59.970 15.276792
59.975 16.115072
59.980 16.672039
59.985 17.0061
59.990 17.139315
59.995 17.218042
60.000 16.765381
60.005 16.09757
60.010 15.564154
60.015 15.328391
60.020 15.00462
60.025 15.175595
60.030 15.034556
60.035 15.296985
60.040 15.471692
60.045 15.847245
60.050 15.805698
60.055 15.148304
60.060 14.781007
60.065 14.834516
60.070 15.033777
60.075 15.228151
60.080 15.246943
60.085 15.515799
60.090 16.18063
60.095 16.992958
60.100 16.957584
60.105 16.930355
60.110 16.533895
60.115 16.620342
60.120 16.958437
60.125 16.977432
60.130 16.663261
60.135 16.719143
60.140 16.846252
60.145 17.261358
60.150 17.116795
60.155 16.829943
60.160 16.722628
60.165 16.679798
60.170 16.290844
60.175 15.654622
60.180 15.088758
60.185 15.02096
60.190 14.818526
60.195 14.41581
60.200 14.054571
60.205 14.140265
60.210 14.714741
60.215 15.657453
60.220 15.328441
60.225 16.113173
60.230 17.395607
60.235 17.936638
60.240 18.327484
60.245 17.740885
60.250 17.257906
60.255 17.562059
60.260 16.931835
60.265 16.152382
60.270 16.075628
60.275 15.820899
60.280 15.996526
60.285 16.084694
60.290 16.221409
60.295 16.098894
60.300 15.865298
60.305 15.416722
60.310 15.355491
60.315 14.919064
60.320 14.539738
60.325 14.380234
60.330 14.187226
60.335 14.544286
60.340 15.127137
60.345 15.907795
60.350 16.447153
60.355 16.830961
60.360 17.211937
60.365 17.829226
60.370 17.974367
60.375 17.654827
60.380 17.053135
60.385 17.119852
60.390 16.915304
60.395 16.633574
60.400 16.865189
60.405 16.787432
60.410 17.190594
60.415 16.754709
60.420 16.512415
60.425 16.312477
60.430 16.305128
60.435 15.469069
60.440 15.26388
60.445 15.372373
60.450 15.791448
60.455 15.875674
60.460 16.106047
60.465 16.077728
60.470 16.291031
60.475 16.297335
60.480 16.199287
60.485 16.496346
60.490 16.430038
60.495 16.494768
60.500 16.290882
60.505 16.231268
60.510 16.387014
60.515 16.450132
60.520 16.272093
60.525 16.114731
60.530 15.985854
60.535 16.201935
60.540 16.009598
60.545 15.410967
60.550 14.900221
60.555 15.266444
60.560 15.709135
60.565 16.148197
60.570 16.479853
60.575 16.506035
60.580 16.492792
60.585 16.738615
60.590 16.712934
60.595 16.659733
60.600 16.400888
60.605 15.797002
60.610 16.018219
60.615 16.432323
60.620 16.188435
60.625 15.536094
60.630 15.021475
60.635 15.134215
60.640 15.709649
60.645 16.113905
60.650 16.421413
60.655 16.35708
60.660 16.597483
60.665 16.687559
60.670 16.612518
60.675 16.69525
60.680 16.79007
60.685 16.511299
60.690 16.482948
60.695 16.248074
60.700 16.032257
60.705 15.399445
60.710 14.40542
60.715 14.161527
60.720 14.297044
60.725 14.603553
60.730 15.015597
60.735 15.318601
60.740 15.768147
60.745 16.699154
60.750 16.542488
60.755 16.276947
60.760 16.217257
60.765 16.443731
60.770 16.53002
60.775 16.393295
60.780 15.580379
60.785 15.8053
60.790 15.79171
60.795 15.434517
60.800 14.972843
60.805 15.18071
60.810 15.535239
60.815 15.988554
60.820 15.820709
60.825 15.654225
60.830 15.612696
60.835 15.58568
60.840 15.290152
60.845 15.619496
60.850 16.371811
60.855 16.657192
60.860 17.116236
60.865 17.471945
60.870 18.072445
60.875 18.071585
60.880 17.525961
60.885 16.606497
60.890 16.55917
60.895 16.177736
60.900 16.241772
60.905 15.832485
60.910 15.732945
60.915 15.566343
60.920 15.579062
60.925 15.864091
60.930 16.678596
60.935 16.868698
60.940 16.981531
60.945 17.009094
60.950 17.231838
60.955 16.895075
60.960 16.386162
60.965 16.040815
60.970 15.681643
60.975 15.186615
60.980 14.932117
60.985 14.986819
60.990 15.056379
60.995 14.944098
61.000 14.900122
61.005 14.547465
61.010 14.641438
61.015 14.934635
61.020 14.89152
61.025 15.12132
61.030 15.130095
61.035 15.112929
61.040 15.40935
61.045 15.454904
61.050 15.240731
61.055 15.435919
61.060 15.526308
61.065 15.957233
61.070 16.211262
61.075 16.889875
61.080 17.465757
61.085 17.945681
61.090 17.603497
61.095 17.682831
61.100 17.693872
61.105 17.177895
61.110 16.669153
61.115 16.781677
61.120 16.461206
61.125 16.219316
61.130 16.005629
61.135 16.074329
61.140 15.889136
61.145 15.362085
61.150 15.125843
61.155 15.367383
61.160 15.734509
61.165 15.316152
61.170 15.133592
61.175 15.939139
61.180 16.41696
61.185 16.096895
61.190 15.695903
61.195 15.822987
61.200 15.767059
61.205 15.60186
61.210 15.463762
61.215 15.537453
61.220 15.776041
61.225 15.701608
61.230 16.257864
61.235 16.843864
61.240 17.080704
61.245 17.392313
61.250 17.825623
61.255 17.831043
61.260 18.157513
61.265 17.855963
61.270 17.840803
61.275 17.766867
61.280 17.57618
61.285 17.331161
61.290 17.651125
61.295 17.494045
61.300 17.215693
61.305 17.025454
61.310 16.929665
61.315 16.699766
61.320 16.53957
61.325 16.700279
61.330 17.25107
61.335 17.258949
61.340 17.459675
61.345 17.434793
61.350 17.15336
61.355 17.098524
61.360 16.938824
61.365 16.716135
61.370 16.156704
61.375 15.590768
61.380 15.715555
61.385 16.103315
61.390 16.104485
61.395 15.568178
61.400 15.489517
61.405 15.747847
61.410 16.050243
61.415 16.203697
61.420 15.687472
61.425 15.446982
61.430 15.597938
61.435 15.627487
61.440 15.543406
61.445 15.377032
61.450 15.577512
61.455 16.073898
61.460 16.387716
61.465 16.430273
61.470 16.429838
61.475 16.698694
61.480 16.775627
61.485 17.017937
61.490 16.552738
61.495 16.496283
61.500 17.246496
61.505 17.695543
61.510 17.738083
61.515 17.856661
61.520 17.841446
61.525 18.412157
61.530 18.57523
61.535 17.991007
61.540 17.352863
61.545 17.360533
61.550 17.600613
61.555 17.453478
61.560 17.568178
61.565 17.639862
61.570 17.948244
61.575 18.55102
61.580 18.974129
61.585 19.067511
61.590 19.227175
61.595 19.315355
61.600 19.063395
61.605 18.820601
61.610 18.940102
61.615 19.04818
61.620 18.147739
61.625 17.319778
61.630 16.530363
61.635 16.360603
61.640 16.287025
61.645 15.976259
61.650 15.552131
61.655 15.948751
61.660 16.20565
61.665 16.389385
61.670 16.349915
61.675 16.543657
61.680 17.185003
61.685 17.954607
61.690 17.77261
61.695 17.814962
61.700 17.800776
61.705 18.181501
61.710 18.492891
61.715 17.975229
61.720 17.014475
61.725 17.03088
61.730 16.859997
61.735 16.864017
61.740 16.650173
61.745 16.093559
61.750 16.084717
61.755 16.879963
61.760 16.511885
61.765 17.274734
61.770 17.51767
61.775 17.865965
61.780 18.025314
61.785 17.606316
61.790 17.237196
61.795 17.650473
61.800 16.920008
61.805 16.976065
61.810 16.854591
61.815 16.822132
61.820 17.101812
61.825 17.426424
61.830 17.608528
61.835 17.501081
61.840 17.360357
61.845 17.273737
61.850 17.57172
61.855 18.32268
61.860 18.509295
61.865 18.533281
61.870 18.522053
61.875 18.589922
61.880 17.968872
61.885 17.477489
61.890 16.834675
61.895 16.582577
61.900 16.517008
61.905 16.471735
61.910 16.598452
61.915 16.617262
61.920 16.411993
61.925 16.166243
61.930 15.486541
61.935 15.192456
61.940 15.895061
61.945 15.819249
61.950 16.292542
61.955 16.657259
61.960 16.475273
61.965 16.843769
61.970 17.186081
61.975 17.126795
61.980 17.253511
61.985 17.155773
61.990 17.305473
61.995 17.461601
62.000 17.809734
62.005 17.457083
62.010 17.26804
62.015 17.267733
62.020 17.154427
62.025 17.137209
62.030 16.533316
62.035 15.986126
62.040 16.27079
62.045 16.489462
62.050 16.993069
62.055 17.034143
62.060 16.728106
62.065 16.543344
62.070 16.987719
62.075 17.039677
62.080 16.35078
62.085 16.014713
62.090 15.543378
62.095 15.479437
62.100 15.588227
62.105 15.432131
62.110 15.347188
62.115 15.520414
62.120 15.636544
62.125 15.951838
62.130 16.18082
62.135 17.193727
62.140 17.517466
62.145 17.659191
62.150 18.08062
62.155 18.011518
62.160 17.489716
62.165 17.614538
62.170 17.689144
62.175 17.9135
62.180 17.985897
62.185 17.671913
62.190 17.982765
62.195 18.514473
62.200 18.72974
62.205 18.310957
62.210 17.763634
62.215 17.747124
62.220 17.58013
62.225 17.199699
62.230 17.002504
62.235 16.413387
62.240 16.019918
62.245 16.453043
62.250 16.454094
62.255 16.598997
62.260 17.276926
62.265 17.426876
62.270 17.537352
62.275 17.325624
62.280 17.11273
62.285 17.158752
62.290 17.045158
62.295 16.415228
62.300 16.426273
62.305 16.288879
62.310 16.282719
62.315 15.617596
62.320 15.790562
62.325 16.003311
62.330 16.416838
62.335 17.076504
62.340 18.263477
62.345 18.871706
62.350 19.0438
62.355 18.305342
62.360 18.33507
62.365 17.999048
62.370 17.507797
62.375 16.483332
62.380 16.134579
62.385 16.291992
62.390 16.468224
62.395 16.700764
62.400 16.950668
62.405 17.150719
62.410 17.53801
62.415 17.924236
62.420 17.684875
62.425 17.490677
62.430 17.506189
62.435 17.390081
62.440 17.297907
62.445 16.884781
62.450 16.66394
62.455 16.843056
62.460 16.667362
62.465 16.575962
62.470 16.9818
62.475 17.274483
62.480 17.883118
62.485 17.872467
62.490 18.129971
62.495 18.9184
62.500 18.752148
62.505 17.959778
62.510 17.629694
62.515 17.68368
62.520 17.651266
62.525 17.205694
62.530 16.360565
62.535 15.998959
62.540 15.919998
62.545 16.131796
62.550 15.745329
62.555 15.973247
62.560 16.224695
62.565 16.642332
62.570 16.696732
62.575 16.795258
62.580 16.3836
62.585 16.324593
62.590 16.636951
62.595 16.62031
62.600 16.508997
62.605 16.974926
62.610 16.859865
62.615 16.85285
62.620 16.620022
62.625 15.780773
62.630 15.7731
62.635 15.517725
62.640 15.100366
62.645 15.453941
62.650 15.620941
62.655 15.60803
62.660 16.030287
62.665 16.422178
62.670 17.166204
62.675 17.565086
62.680 17.126341
62.685 16.792999
62.690 16.993071
62.695 17.476826
62.700 17.161837
62.705 16.826454
62.710 17.009123
62.715 17.422958
62.720 17.600332
62.725 17.88549
62.730 17.986782
62.735 18.203959
62.740 18.424725
62.745 18.307465
62.750 18.223446
62.755 18.674231
62.760 18.452932
62.765 17.927059
62.770 18.07198
62.775 17.399672
62.780 17.22629
62.785 17.302141
62.790 16.734903
62.795 16.639408
62.800 16.948593
62.805 16.759007
62.810 17.0215
62.815 17.210512
62.820 17.563889
62.825 17.722252
62.830 18.001623
62.835 17.954258
62.840 17.956749
62.845 17.49276
62.850 17.056728
62.855 16.491249
62.860 16.346594
62.865 15.942032
62.870 15.49934
62.875 15.650523
62.880 15.771799
62.885 15.98244
62.890 16.175344
62.895 16.375607
62.900 16.888653
62.905 16.827808
62.910 16.461103
62.915 16.798075
62.920 16.751877
62.925 17.088736
62.930 17.294828
62.935 17.327679
62.940 17.397724
62.945 17.976227
62.950 18.225773
62.955 18.597553
62.960 18.077271
62.965 17.728115
62.970 17.362597
62.975 17.892828
62.980 18.246363
62.985 18.483921
62.990 18.500444
62.995 19.131001
63.000 19.293987
63.005 19.112623
63.010 18.691988
63.015 18.500572
63.020 17.966404
63.025 17.509171
63.030 17.144806
63.035 16.733097
63.040 17.232607
63.045 17.03862
63.050 17.324928
63.055 18.296953
63.060 18.436911
63.065 18.558493
63.070 19.111853
63.075 18.730328
63.080 18.759108
63.085 17.966455
63.090 17.013824
63.095 16.646395
63.100 16.50769
63.105 16.404053
63.110 16.728071
63.115 17.071756
63.120 17.546844
63.125 18.22094
63.130 18.81604
63.135 19.250334
63.140 19.135096
63.145 18.79574
63.150 18.837629
63.155 19.046652
63.160 19.219353
63.165 19.40609
63.170 19.295862
63.175 19.502993
63.180 19.738829
63.185 19.289354
63.190 18.029154
63.195 17.620165
63.200 17.299791
63.205 16.828714
63.210 17.03092
63.215 17.368015
63.220 17.37289
63.225 17.37043
63.230 17.300053
63.235 17.070885
63.240 17.323246
63.245 16.854198
63.250 16.437613
63.255 16.376982
63.260 16.451015
63.265 16.2645
63.270 16.461765
63.275 16.380091
63.280 16.442196
63.285 16.091743
63.290 15.977248
63.295 16.586039
63.300 16.887571
63.305 16.889278
63.310 17.204611
63.315 17.960066
63.320 18.559349
63.325 18.88233
63.330 19.244656
63.335 19.223387
63.340 19.219639
63.345 18.956924
63.350 18.214333
63.355 18.116083
63.360 17.862652
63.365 17.027662
63.370 16.364014
63.375 16.425888
63.380 16.840912
63.385 17.305223
63.390 17.380581
63.395 17.622391
63.400 18.316526
63.405 18.500319
63.410 18.359077
63.415 18.200857
63.420 18.101257
63.425 17.516838
63.430 17.647526
63.435 17.850218
63.440 17.88575
63.445 18.072344
63.450 18.093105
63.455 18.471312
63.460 19.460121
63.465 19.28697
63.470 18.873144
63.475 19.483423
63.480 19.048508
63.485 19.032282
63.490 18.689276
63.495 18.041805
63.500 17.885794
63.505 18.230658
63.510 18.745564
63.515 18.905256
63.520 18.413355
63.525 18.409126
63.530 18.641808
63.535 19.173735
63.540 18.792622
63.545 18.347673
63.550 18.229921
63.555 18.149244
63.560 17.637041
63.565 16.540365
63.570 15.723238
63.575 16.126467
63.580 16.125868
63.585 16.606739
63.590 16.843929
63.595 17.572445
63.600 18.427322
63.605 18.456545
63.610 17.770336
63.615 17.223406
63.620 16.878016
63.625 16.461767
63.630 16.274906
63.635 15.751901
63.640 16.341864
63.645 16.634125
63.650 16.901594
63.655 17.038626
63.660 17.542589
63.665 17.800056
63.670 18.463305
63.675 18.359674
63.680 17.835197
63.685 18.160358
63.690 18.134462
63.695 17.909964
63.700 17.813824
63.705 17.596031
63.710 17.045858
63.715 17.609827
63.720 17.409563
63.725 17.661915
63.730 18.094475
63.735 18.058472
63.740 18.313698
63.745 17.944075
63.750 17.291382
63.755 17.292759
63.760 16.8332
63.765 16.3741
63.770 16.13998
63.775 16.722166
63.780 18.128948
63.785 18.606047
63.790 18.50651
63.795 18.898594
63.800 18.860279
63.805 18.511713
63.810 18.066271
63.815 17.960917
63.820 18.360464
63.825 18.496382
63.830 18.142366
63.835 18.584993
63.840 19.255306
63.845 19.083397
63.850 18.331234
63.855 17.839067
63.860 17.795307
63.865 18.185255
63.870 17.98686
63.875 17.93577
63.880 18.146128
63.885 18.553267
63.890 18.362812
63.895 18.674128
63.900 18.415842
63.905 18.491234
63.910 18.577461
63.915 18.643915
63.920 18.8165
63.925 19.071234
63.930 18.973629
63.935 19.635321
63.940 19.649576
63.945 19.611019
63.950 19.173649
63.955 19.339396
63.960 19.269037
63.965 19.398546
63.970 19.441692
63.975 19.640242
63.980 19.86631
63.985 20.674627
63.990 20.527308
63.995 20.632715
64.000 20.370094
64.005 20.510798
64.010 21.006344
64.015 21.409697
64.020 21.677561
64.025 22.446438
64.030 22.739344
64.035 23.514019
64.040 23.284426
64.045 22.915855
64.050 23.093931
64.055 22.342983
64.060 21.929325
64.065 22.418802
64.070 22.697979
64.075 22.837219
64.080 22.732117
64.085 22.982246
64.090 23.381546
64.095 23.744085
64.100 23.357651
64.105 22.770422
64.110 23.003443
64.115 23.170897
64.120 23.450209
64.125 24.011633
64.130 23.984169
64.135 24.106436
64.140 24.417976
64.145 25.177931
64.150 25.735119
64.155 26.111639
64.160 26.256737
64.165 27.058323
64.170 27.761997
64.175 28.245272
64.180 28.401266
64.185 28.356068
64.190 28.082827
64.195 28.65106
64.200 28.258966
64.205 27.736095
64.210 27.916849
64.215 27.898552
64.220 28.669136
64.225 30.004038
64.230 30.816488
64.235 32.263046
64.240 33.659985
64.245 34.522125
64.250 35.496323
64.255 36.097843
64.260 36.036732
64.265 36.53944
64.270 36.500797
64.275 37.022289
64.280 37.879276
64.285 38.376236
64.290 38.714947
64.295 39.901493
64.300 41.073925
64.305 42.295017
64.310 43.041718
64.315 44.074142
64.320 44.19931
64.325 45.174664
64.330 46.073914
64.335 46.65382
64.340 47.307846
64.345 47.408253
64.350 46.329819
64.355 47.447598
64.360 48.040962
64.365 48.239304
64.370 48.698414
64.375 49.477764
64.380 50.804226
64.385 51.743557
64.390 52.13974
64.395 52.343266
64.400 53.076065
64.405 52.85635
64.410 53.696774
64.415 53.710808
64.420 54.010719
64.425 53.869991
64.430 53.930878
64.435 53.903736
64.440 54.232044
64.445 53.167416
64.450 52.826855
64.455 53.024769
64.460 53.326977
64.465 54.179787
64.470 54.029037
64.475 52.768749
64.480 52.514324
64.485 52.141815
64.490 52.547405
64.495 52.210445
64.500 51.539051
64.505 51.372463
64.510 50.662766
64.515 50.672131
64.520 50.8447
64.525 49.843254
64.530 49.540352
64.535 49.615002
64.540 49.41087
64.545 49.481174
64.550 48.755756
64.555 47.773869
64.560 47.356678
64.565 46.852818
64.570 45.47871
64.575 44.429657
64.580 44.383278
64.585 43.687378
64.590 43.405708
64.595 43.145641
64.600 42.744488
64.605 42.458366
64.610 41.9529
64.615 41.507668
64.620 41.289509
64.625 40.283569
64.630 39.001984
64.635 37.973736
64.640 36.626522
64.645 36.037563
64.650 35.374603
64.655 34.331673
64.660 34.534336
64.665 34.804852
64.670 34.562656
64.675 34.093044
64.680 34.119553
64.685 34.273315
64.690 34.045181
64.695 33.485348
64.700 33.72229
64.705 33.620983
64.710 33.477333
64.715 33.239254
64.720 32.937675
64.725 33.3643
64.730 33.140617
64.735 32.423054
64.740 31.930857
64.745 30.465002
64.750 29.455883
64.755 28.332352
64.760 27.32659
64.765 26.623678
64.770 26.373838
64.775 26.043745
64.780 25.866304
64.785 25.587805
64.790 25.794138
64.795 25.384443
64.800 25.371239
64.805 25.285376
64.810 25.556723
64.815 25.858418
64.820 25.96846
64.825 25.326574
64.830 24.72657
64.835 24.334892
64.840 24.463816
64.845 24.334324
64.850 23.565016
64.855 22.577017
64.860 22.733801
64.865 23.220678
64.870 23.757391
64.875 23.76091
64.880 23.219736
64.885 23.278883
64.890 23.761835
64.895 23.550142
64.900 23.865286
64.905 23.568533
64.910 22.854582
64.915 22.855419
64.920 23.458132
64.925 23.435862
64.930 23.569662
64.935 23.504198
64.940 23.799833
64.945 24.201843
64.950 24.752066
64.955 24.936222
64.960 24.747953
64.965 25.065416
64.970 24.927979
64.975 25.429781
64.980 25.558168
64.985 26.278513
64.990 26.555389
64.995 27.606106
65.000 28.131907
65.005 28.369453
65.010 28.294445
65.015 28.931154
65.020 29.380772
65.025 29.986645
65.030 31.022568
65.035 31.593472
65.040 31.760756
65.045 32.178123
65.050 32.231102
65.055 32.409355
65.060 32.948704
65.065 33.027035
65.070 33.673962
65.075 34.769176
65.080 35.311077
65.085 35.798717
65.090 36.281162
65.095 36.623718
65.100 36.706089
65.105 36.782925
65.110 37.078835
65.115 37.112724
65.120 37.415485
65.125 37.613663
65.130 38.712643
65.135 38.643799
65.140 39.191143
65.145 39.378944
65.150 39.42775
65.155 39.777973
65.160 39.682926
65.165 38.993343
65.170 39.915604
65.175 39.611225
65.180 39.532082
65.185 39.801537
65.190 39.708199
65.195 39.831261
65.200 40.072407
65.205 39.917313
65.210 39.828735
65.215 39.965611
65.220 40.012894
65.225 39.956451
65.230 40.38533
65.235 39.874386
65.240 40.073444
65.245 39.41827
65.250 38.907494
65.255 38.517094
65.260 38.695293
65.265 38.929657
65.270 39.85535
65.275 39.532383
65.280 40.08699
65.285 40.78067
65.290 41.545078
65.295 42.001141
65.300 42.792831
65.305 42.923977
65.310 43.887081
65.315 44.384953
65.320 44.21088
65.325 43.74065
65.330 43.630688
65.335 42.765919
65.340 42.144386
65.345 41.839275
65.350 42.30434
65.355 42.750347
65.360 43.145733
65.365 43.098934
65.370 42.646812
65.375 43.163158
65.380 43.50956
65.385 42.741589
65.390 42.911011
65.395 42.379448
65.400 42.451756
65.405 42.639404
65.410 42.810879
65.415 42.755932
65.420 42.740021
65.425 42.103306
65.430 42.587311
65.435 43.205219
65.440 43.708427
65.445 43.695457
65.450 42.727257
65.455 42.388088
65.460 42.64135
65.465 42.691532
65.470 41.728046
65.475 40.766895
65.480 40.376762
65.485 41.405319
65.490 42.273411
65.495 41.742092
65.500 41.534359
65.505 42.066235
65.510 42.9925
65.515 43.16153
65.520 42.94817
65.525 42.00853
65.530 41.838921
65.535 40.646347
65.540 40.229927
65.545 39.667904
65.550 39.088551
65.555 37.958237
65.560 38.37133
65.565 38.858891
65.570 39.047131
65.575 38.698509
65.580 39.233318
65.585 39.712784
65.590 40.236927
65.595 40.426281
65.600 39.996212
65.605 40.123627
65.610 40.139751
65.615 39.383141
65.620 39.017605
65.625 38.978222
65.630 38.607155
65.635 38.487251
65.640 39.114212
65.645 39.37125
65.650 38.872711
65.655 38.19603
65.660 37.713337
65.665 37.560551
65.670 37.684998
65.675 36.773617
65.680 36.197411
65.685 36.573509
65.690 36.694824
65.695 36.045654
65.700 36.817619
65.705 36.350803
65.710 35.861847
65.715 35.030521
65.720 33.923191
65.725 33.298134
65.730 32.484863
65.735 31.273371
65.740 30.636433
65.745 30.341221
65.750 30.100004
65.755 30.406715
65.760 30.83025
65.765 31.440723
65.770 31.923628
65.775 32.362663
65.780 32.276146
65.785 32.32999
65.790 32.179806
65.795 31.771027
65.800 31.02564
65.805 30.718117
65.810 30.681244
65.815 30.404423
65.820 30.239428
65.825 29.607222
65.830 29.201456
65.835 29.596737
65.840 28.744129
65.845 28.727327
65.850 29.105181
65.855 29.189281
65.860 29.610603
65.865 29.687531
65.870 28.794718
65.875 28.515087
65.880 27.94804
65.885 27.888832
65.890 27.26713
65.895 27.121475
65.900 27.164568
65.905 27.614561
65.910 27.420881
65.915 27.119989
65.920 27.15678
65.925 27.016998
65.930 26.073042
65.935 25.755333
65.940 25.309528
65.945 25.399828
65.950 25.238848
65.955 24.517015
65.960 24.148588
65.965 24.085606
65.970 24.341803
65.975 24.252012
65.980 24.502163
65.985 24.725801
65.990 24.526478
65.995 24.178087
66.000 24.029907
66.005 23.309629
66.010 22.625788
66.015 22.120934
66.020 21.522587
66.025 21.613258
66.030 20.792801
66.035 20.83935
66.040 21.042908
66.045 20.769514
66.050 20.434612
66.055 20.610926
66.060 20.282036
66.065 20.764822
66.070 20.142374
66.075 20.288361
66.080 20.892471
66.085 21.175137
66.090 20.961962
66.095 20.673237
66.100 20.916296
66.105 20.908178
66.110 20.607403
66.115 20.188299
66.120 19.443319
66.125 19.252954
66.130 19.452269
66.135 19.086588
66.140 19.036943
66.145 19.191309
66.150 19.85194
66.155 20.652548
66.160 20.437843
66.165 20.370392
66.170 20.339525
66.175 20.338423
66.180 19.796732
66.185 19.194466
66.190 19.085112
66.195 18.911196
66.200 19.21121
66.205 20.376623
66.210 20.85516
66.215 20.836224
66.220 20.513971
66.225 20.202021
66.230 20.001369
66.235 19.929653
66.240 18.593214
66.245 17.708826
66.250 17.662188
66.255 17.885004
66.260 18.334791
66.265 18.413446
66.270 18.293303
66.275 19.00581
66.280 19.669172
66.285 19.663538
66.290 19.694164
66.295 19.642345
66.300 20.190693
66.305 19.853405
66.310 19.124216
66.315 18.775011
66.320 19.271744
66.325 19.456877
66.330 19.150467
66.335 18.42016
66.340 17.940269
66.345 18.278856
66.350 19.20212
66.355 19.064148
66.360 18.970354
66.365 19.181719
66.370 19.440254
66.375 19.670921
66.380 18.86138
66.385 17.770615
66.390 17.025721
66.395 16.764393
66.400 16.679827
66.405 16.710073
66.410 17.21508
66.415 18.481514
66.420 19.480177
66.425 20.118525
66.430 19.923653
66.435 19.810663
66.440 20.379353
66.445 20.48601
66.450 19.752411
66.455 19.148102
66.460 19.363379
66.465 20.305096
66.470 20.415936
66.475 19.791658
66.480 19.37499
66.485 19.002586
66.490 18.612505
66.495 18.333124
66.500 18.157053
66.505 18.036055
66.510 18.38887
66.515 18.840479
66.520 19.167913
66.525 19.72403
66.530 19.668974
66.535 19.662367
66.540 20.235832
66.545 20.083076
66.550 20.413345
66.555 20.578537
66.560 20.503267
66.565 20.533173
66.570 20.276981
66.575 19.982229
66.580 19.870138
66.585 19.442787
66.590 19.565805
66.595 19.894346
66.600 19.931055
66.605 20.139147
66.610 20.699915
66.615 20.806192
66.620 21.097612
66.625 21.091572
66.630 20.738873
66.635 20.669092
66.640 20.13455
66.645 19.299608
66.650 18.798378
66.655 18.391632
66.660 18.183996
66.665 17.425886
66.670 17.384483
66.675 17.925238
66.680 18.647303
66.685 18.80229
66.690 18.54739
66.695 18.118126
66.700 18.289917
66.705 18.452562
66.710 18.11517
66.715 17.348051
66.720 17.339109
66.725 17.357548
66.730 17.33946
66.735 17.355394
66.740 17.253687
66.745 18.004019
66.750 18.208706
66.755 18.207067
66.760 19.0121
66.765 19.626751
66.770 19.684637
66.775 19.936653
66.780 19.520702
66.785 19.063789
66.790 18.659063
66.795 18.617767
66.800 18.303452
66.805 18.044325
66.810 17.346344
66.815 17.160009
66.820 17.994162
66.825 18.914993
66.830 18.67033
66.835 18.516115
66.840 18.768156
66.845 18.591375
66.850 19.140818
66.855 18.922182
66.860 18.783432
66.865 18.928827
66.870 19.362425
66.875 19.250021
66.880 19.155033
66.885 18.741962
66.890 18.665941
66.895 18.697502
66.900 18.872379
66.905 19.105562
66.910 19.213501
66.915 19.205511
66.920 19.363119
66.925 19.38814
66.930 19.170387
66.935 18.851274
66.940 18.429708
66.945 17.916029
66.950 17.669716
66.955 17.276014
66.960 17.06839
66.965 16.989042
66.970 17.112265
66.975 17.404272
66.980 18.199602
66.985 18.401037
66.990 18.765614
66.995 18.772116
67.000 18.555738
67.005 18.829655
67.010 18.784964
67.015 18.622469
67.020 18.769979
67.025 19.267004
67.030 19.452961
67.035 20.341684
67.040 20.143347
67.045 19.921095
67.050 20.619499
67.055 21.472603
67.060 21.389282
67.065 21.317537
67.070 20.632528
67.075 20.648205
67.080 21.167082
67.085 20.568863
67.090 19.59828
67.095 19.71549
67.100 19.720688
67.105 19.186287
67.110 18.743618
67.115 18.473974
67.120 18.226355
67.125 17.988329
67.130 17.627352
67.135 17.880354
67.140 18.690014
67.145 19.11113
67.150 19.507633
67.155 19.562519
67.160 19.235056
67.165 19.508205
67.170 19.397078
67.175 19.350365
67.180 18.928795
67.185 18.239323
67.190 18.884699
67.195 19.345982
67.200 18.162752
67.205 18.025871
67.210 17.456215
67.215 17.973562
67.220 18.072386
67.225 17.947218
67.230 18.053253
67.235 18.513956
67.240 18.346834
67.245 18.977999
67.250 18.59936
67.255 18.290056
67.260 17.973131
67.265 18.179419
67.270 18.308226
67.275 18.076868
67.280 17.813383
67.285 18.578642
67.290 19.339846
67.295 19.315853
67.300 19.291363
67.305 19.811153
67.310 20.292109
67.315 20.127247
67.320 19.788837
67.325 19.229544
67.330 19.019682
67.335 18.899536
67.340 18.226023
67.345 18.19902
67.350 18.424719
67.355 18.272867
67.360 18.152168
67.365 17.905947
67.370 18.346376
67.375 19.046265
67.380 19.208485
67.385 18.11138
67.390 17.904991
67.395 17.817307
67.400 17.708719
67.405 17.082567
67.410 16.849657
67.415 16.761147
67.420 17.81555
67.425 18.112803
67.430 17.89216
67.435 18.11025
67.440 18.350208
67.445 18.45429
67.450 18.807053
67.455 19.139805
67.460 19.703653
67.465 20.183142
67.470 20.069975
67.475 20.053656
67.480 19.631989
67.485 19.527283
67.490 19.220812
67.495 18.98255
67.500 19.264183
67.505 19.110449
67.510 18.893749
67.515 18.616205
67.520 18.167038
67.525 17.994881
67.530 17.833364
67.535 17.524223
67.540 17.318419
67.545 17.376329
67.550 17.625795
67.555 18.523569
67.560 18.107586
67.565 18.176905
67.570 17.932934
67.575 17.996363
67.580 18.150116
67.585 17.985525
67.590 17.589701
67.595 17.873419
67.600 18.145504
67.605 18.679583
67.610 18.772089
67.615 18.295992
67.620 18.505636
67.625 19.020424
67.630 18.852802
67.635 18.534567
67.640 18.488157
67.645 18.483097
67.650 19.100542
67.655 18.655516
67.660 18.517265
67.665 18.885561
67.670 19.311159
67.675 19.77902
67.680 20.09507
67.685 20.272572
67.690 20.779013
67.695 20.575651
67.700 20.274647
67.705 19.153654
67.710 18.432182
67.715 18.552462
67.720 18.703426
67.725 18.006718
67.730 17.285513
67.735 17.350937
67.740 17.389051
67.745 17.075378
67.750 16.835226
67.755 16.229156
67.760 16.391521
67.765 16.73694
67.770 16.747976
67.775 17.412224
67.780 17.482645
67.785 17.01874
67.790 17.22698
67.795 17.230234
67.800 17.689077
67.805 18.339947
67.810 18.641529
67.815 18.671228
67.820 18.850971
67.825 18.977131
67.830 19.14673
67.835 18.672762
67.840 18.159103
67.845 17.700907
67.850 17.627838
67.855 17.733358
67.860 17.692183
67.865 17.840769
67.870 17.702522
67.875 17.743856
67.880 18.260677
67.885 19.042124
67.890 19.673828
67.895 19.384323
67.900 19.459064
67.905 20.460964
67.910 20.477705
67.915 19.778957
67.920 19.000214
67.925 19.062943
67.930 19.958389
67.935 19.837349
67.940 19.473986
67.945 20.106918
67.950 20.43264
67.955 21.096884
67.960 20.672516
67.965 20.084518
67.970 20.023645
67.975 19.990259
67.980 19.551569
67.985 19.241583
67.990 19.018703
67.995 19.070835
68.000 18.861418
68.005 18.776657
68.010 19.093056
68.015 19.59326
68.020 20.501442
68.025 20.291325
68.030 20.034283
68.035 20.231594
68.040 20.309662
68.045 19.992634
68.050 20.152231
68.055 19.491152
68.060 19.431438
68.065 19.641481
68.070 20.123829
68.075 19.861452
68.080 19.665998
68.085 19.310902
68.090 19.489851
68.095 19.270218
68.100 18.929935
68.105 19.133751
68.110 19.226418
68.115 19.64147
68.120 19.637428
68.125 19.644302
68.130 19.700735
68.135 20.130861
68.140 20.090136
68.145 20.219193
68.150 19.603495
68.155 19.309622
68.160 19.972803
68.165 20.518465
68.170 20.384022
68.175 20.407871
68.180 20.908419
68.185 21.768314
68.190 22.431702
68.195 22.500168
68.200 22.87101
68.205 22.963371
68.210 23.001999
68.215 22.463459
68.220 22.538975
68.225 22.563564
68.230 22.444267
68.235 22.30302
68.240 22.442457
68.245 22.680279
68.250 23.243534
68.255 23.205542
68.260 23.499813
68.265 23.92894
68.270 23.889517
68.275 23.451397
68.280 23.084627
68.285 23.639505
68.290 23.84059
68.295 23.412912
68.300 22.993488
68.305 23.172022
68.310 23.706833
68.315 23.747177
68.320 23.201479
68.325 23.086119
68.330 24.230221
68.335 25.061615
68.340 25.680632
68.345 26.438087
68.350 27.304935
68.355 27.921753
68.360 27.854696
68.365 27.057264
68.370 26.809027
68.375 26.416004
68.380 26.864168
68.385 27.303591
68.390 27.295372
68.395 28.029894
68.400 28.59206
68.405 28.778782
68.410 28.877558
68.415 28.91688
68.420 28.97448
68.425 29.304041
68.430 29.65729
68.435 29.759218
68.440 30.664808
68.445 31.088099
68.450 31.539339
68.455 31.436777
68.460 32.019753
68.465 31.707254
68.470 31.508701
68.475 31.743927
68.480 31.63756
68.485 31.594776
68.490 31.739628
68.495 31.573349
68.500 32.08453
68.505 32.602688
68.510 32.847771
68.515 33.515408
68.520 34.69339
68.525 35.290588
68.530 36.284508
68.535 36.505787
68.540 36.588486
68.545 36.375866
68.550 36.3652
68.555 36.860653
68.560 37.496269
68.565 37.528885
68.570 37.869911
68.575 38.092773
68.580 38.62616
68.585 38.762657
68.590 38.120213
68.595 37.624023
68.600 37.333061
68.605 37.221634
68.610 36.993706
68.615 36.731007
68.620 37.102505
68.625 37.389782
68.630 37.41272
68.635 37.959835
68.640 38.215893
68.645 38.247864
68.650 38.633297
68.655 37.872166
68.660 37.531956
68.665 37.339195
68.670 37.420628
68.675 38.244305
68.680 38.190804
68.685 38.384975
68.690 38.152832
68.695 39.086025
68.700 39.343845
68.705 38.85918
68.710 38.840553
68.715 38.499512
68.720 38.367092
68.725 38.591328
68.730 38.245346
68.735 38.893505
68.740 38.435112
68.745 38.139687
68.750 37.942978
68.755 37.418079
68.760 37.368256
68.765 36.47126
68.770 35.253647
68.775 35.274303
68.780 35.283955
68.785 35.643433
68.790 35.078617
68.795 34.648449
68.800 35.426628
68.805 36.053646
68.810 35.796383
68.815 35.345638
68.820 34.855984
68.825 35.402576
68.830 35.099854
68.835 34.176994
68.840 33.73687
68.845 34.003643
68.850 33.847534
68.855 34.249542
68.860 33.873665
68.865 33.952312
68.870 33.80212
68.875 33.260399
68.880 32.794258
68.885 32.11533
68.890 31.672935
68.895 31.854109
68.900 31.981371
68.905 31.916058
68.910 31.879131
68.915 32.449848
68.920 32.896927
68.925 32.961765
68.930 33.236393
68.935 32.862064
68.940 32.57877
68.945 32.53772
68.950 32.359203
68.955 32.30415
68.960 32.75227
68.965 32.109001
68.970 31.788248
68.975 31.76166
68.980 31.37425
68.985 30.242647
68.990 28.916084
68.995 28.376057
69.000 27.695826
69.005 28.030184
69.010 28.032818
69.015 27.727737
69.020 28.24077
69.025 28.425566
69.030 27.949139
69.035 27.873371
69.040 27.316687
69.045 26.84273
69.050 26.044556
69.055 25.590675
69.060 25.212969
69.065 25.73609
69.070 25.676508
69.075 25.766642
69.080 25.909271
69.085 26.725342
69.090 27.208612
69.095 27.888298
69.100 27.860947
69.105 28.120073
69.110 28.573645
69.115 28.304428
69.120 27.591215
69.125 27.196327
69.130 26.560188
69.135 25.780775
69.140 24.85972
69.145 24.393316
69.150 24.356016
69.155 24.451019
69.160 24.319479
69.165 24.545307
69.170 24.599226
69.175 23.701727
69.180 23.232386
69.185 22.994989
69.190 23.191088
69.195 22.974895
69.200 22.481524
69.205 22.365425
69.210 22.66391
69.215 22.477528
69.220 21.955101
69.225 21.704123
69.230 22.012217
69.235 22.208647
69.240 22.839195
69.245 23.346951
69.250 22.913351
69.255 22.786877
69.260 22.541252
69.265 22.406801
69.270 22.216745
69.275 21.368204
69.280 20.850395
69.285 21.663397
69.290 21.380213
69.295 21.206015
69.300 20.052347
69.305 19.877705
69.310 19.823462
69.315 19.646893
69.320 19.240528
69.325 19.939592
69.330 19.505827
69.335 19.92794
69.340 20.050318
69.345 20.613323
69.350 20.526617
69.355 19.751865
69.360 19.679508
69.365 20.959541
69.370 21.562977
69.375 21.079432
69.380 21.035065
69.385 20.906408
69.390 21.869492
69.395 21.754045
69.400 20.958885
69.405 20.051601
69.410 19.756456
69.415 18.999218
69.420 19.241346
69.425 18.984043
69.430 18.964392
69.435 19.599043
69.440 19.767204
69.445 20.265566
69.450 20.628946
69.455 20.361963
69.460 19.869038
69.465 19.117462
69.470 18.510347
69.475 18.619852
69.480 18.539186
69.485 18.756613
69.490 18.747053
69.495 18.848454
69.500 19.758739
69.505 20.047142
69.510 20.422226
69.515 21.150837
69.520 20.395374
69.525 19.619213
69.530 19.513441
69.535 18.917246
69.540 18.816732
69.545 18.859371
69.550 18.85537
69.555 19.611668
69.560 19.998983
69.565 20.161343
69.570 20.363426
69.575 20.064806
69.580 19.601707
69.585 19.039282
69.590 19.270161
69.595 19.780342
69.600 19.604233
69.605 18.911497
69.610 19.038969
69.615 18.887878
69.620 18.775682
69.625 18.285944
69.630 18.17086
69.635 18.447149
69.640 18.341614
69.645 18.285078
69.650 18.316103
69.655 18.711409
69.660 18.81905
69.665 19.08577
69.670 19.355677
69.675 19.545721
69.680 19.382837
69.685 19.45084
69.690 19.281855
69.695 19.200058
69.700 18.473368
69.705 18.00614
69.710 17.989103
69.715 18.428213
69.720 18.755972
69.725 18.442383
69.730 18.410543
69.735 18.505524
69.740 19.117952
69.745 19.248989
69.750 19.121647
69.755 18.637466
69.760 18.923094
69.765 18.940252
69.770 18.862829
69.775 18.547455
69.780 18.425459
69.785 18.46163
69.790 19.300844
69.795 19.192778
69.800 19.207558
69.805 19.139341
69.810 19.194006
69.815 19.882027
69.820 19.344795
69.825 18.980474
69.830 19.615545
69.835 19.884275
69.840 20.140791
69.845 20.059662
69.850 19.132229
69.855 19.270187
69.860 18.915501
69.865 17.992083
69.870 17.65621
69.875 17.687057
69.880 17.686626
69.885 18.255219
69.890 18.362391
69.895 18.283318
69.900 18.352686
69.905 18.069324
69.910 17.886446
69.915 18.062761
69.920 18.166559
69.925 18.027771
69.930 18.236769
69.935 18.385015
69.940 18.291109
69.945 18.498159
69.950 18.112961
69.955 18.087927
69.960 18.516348
69.965 18.132742
69.970 17.897543
69.975 18.224079
69.980 18.054974
69.985 17.912746
69.990 17.707066
69.995 17.779728
70.000 18.371098
70.005 18.849957
70.010 19.46771
70.015 20.054729
70.020 20.26528
70.025 20.125336
70.030 19.792786
70.035 19.956266
70.040 19.654356
70.045 18.813742
70.050 18.718939
70.055 19.008806
70.060 19.137671
70.065 19.132793
70.070 18.477873
70.075 18.381016
70.080 17.733252
70.085 17.517223
70.090 17.394896
70.095 17.32626
70.100 17.131405
70.105 17.124998
70.110 17.007025
70.115 17.684998
70.120 17.269781
70.125 17.578835
70.130 17.282106
70.135 17.785517
70.140 17.881966
70.145 18.255589
70.150 17.85854
70.155 17.545464
70.160 17.341267
70.165 18.045008
70.170 18.135897
70.175 18.304565
70.180 18.392624
70.185 19.33139
70.190 19.701702
70.195 19.470018
70.200 19.348684
70.205 19.148031
70.210 18.931469
70.215 18.830748
70.220 17.993805
70.225 18.574932
70.230 19.115665
70.235 19.166906
70.240 19.550678
70.245 19.824041
70.250 20.350336
70.255 20.568375
70.260 19.94758
70.265 19.57303
70.270 19.161926
70.275 18.631382
70.280 17.683111
70.285 16.818199
70.290 16.883801
70.295 17.607363
70.300 17.506271
70.305 17.622053
70.310 17.903011
70.315 18.114906
70.320 18.468884
70.325 18.345322
70.330 17.864153
70.335 17.74407
70.340 18.011623
70.345 17.674313
70.350 17.636776
70.355 17.925917
70.360 18.278818
70.365 18.824293
70.370 19.330181
70.375 19.317839
70.380 19.719584
70.385 19.494558
70.390 18.744408
70.395 17.980392
70.400 17.462336
70.405 17.123005
70.410 17.138615
70.415 17.400356
70.420 17.838947
70.425 17.793146
70.430 18.048695
70.435 18.702974
70.440 18.848051
70.445 18.567932
70.450 18.309952
70.455 17.900976
70.460 18.664394
70.465 18.77351
70.470 18.538984
70.475 18.852322
70.480 18.901192
70.485 18.757156
70.490 18.851744
70.495 17.723602
70.500 17.190451
70.505 17.204626
70.510 17.022953
70.515 17.550249
70.520 17.668459
70.525 18.204363
70.530 18.813347
70.535 19.070759
70.540 19.311352
70.545 19.075291
70.550 18.939354
70.555 19.08375
70.560 18.528679
70.565 18.301094
70.570 17.852098
70.575 17.271338
70.580 17.767714
70.585 17.802692
70.590 17.710554
70.595 17.871075
70.600 18.222675
70.605 19.045464
70.610 18.92527
70.615 18.991272
70.620 18.408207
70.625 18.574259
70.630 18.86639
70.635 18.663364
70.640 18.089649
70.645 17.975414
70.650 17.693027
70.655 18.033152
70.660 17.907125
70.665 17.63188
70.670 17.367439
70.675 17.950783
70.680 18.098215
70.685 18.119068
70.690 18.442678
70.695 19.145464
70.700 19.187653
70.705 19.151648
70.710 18.870716
70.715 18.598265
70.720 18.537031
70.725 18.603312
70.730 18.601833
70.735 18.693386
70.740 18.257742
70.745 18.007383
70.750 18.343586
70.755 17.887991
70.760 17.180393
70.765 16.592821
70.770 17.107191
70.775 17.863831
70.780 18.001524
70.785 18.093948
70.790 18.598186
70.795 18.728935
70.800 18.74964
70.805 18.606049
70.810 19.186798
70.815 19.741989
70.820 19.323376
70.825 19.155476
70.830 19.304501
70.835 19.529266
70.840 19.212349
70.845 18.203421
70.850 18.433064
70.855 18.118208
70.860 17.905962
70.865 18.025454
70.870 17.981443
70.875 17.962559
70.880 17.673307
70.885 16.995226
70.890 17.003675
70.895 17.17737
70.900 17.546053
70.905 17.570244
70.910 18.262405
70.915 18.868496
70.920 18.799515
70.925 18.365984
70.930 18.197962
70.935 18.280939
70.940 17.566969
70.945 16.923452
70.950 16.751955
70.955 17.269354
70.960 17.960524
70.965 17.305471
70.970 17.113478
70.975 17.601837
70.980 17.891499
70.985 17.736692
70.990 17.45442
70.995 17.891926
71.000 18.101952
71.005 17.948879
71.010 17.95434
71.015 17.76309
71.020 17.771984
71.025 17.299137
71.030 16.819212
71.035 16.778513
71.040 16.435856
71.045 16.596563
71.050 17.280905
71.055 17.404078
71.060 17.73299
71.065 17.97847
71.070 18.499706
71.075 19.25799
71.080 19.562283
71.085 19.744751
71.090 20.085499
71.095 20.165476
71.100 20.428551
71.105 20.056765
71.110 19.201548
71.115 18.251902
71.120 17.814962
71.125 17.804596
71.130 18.42926
71.135 18.228621
71.140 18.190866
71.145 18.255314
71.150 18.463249
71.155 18.145079
71.160 18.212032
71.165 17.55496
71.170 16.9583
71.175 17.556915
71.180 17.450603
71.185 18.324671
71.190 18.542088
71.195 18.46487
71.200 18.897118
71.205 19.123024
71.210 19.217541
71.215 18.947319
71.220 18.078981
71.225 17.858368
71.230 17.244278
71.235 16.774784
71.240 16.453556
71.245 16.065966
71.250 16.973356
71.255 17.743887
71.260 18.162394
71.265 19.218616
71.270 20.509403
71.275 20.990175
71.280 21.866346
71.285 21.9734
71.290 21.800379
71.295 21.376513
71.300 20.760349
71.305 19.734272
71.310 19.470448
71.315 18.159472
71.320 17.682348
71.325 17.824677
71.330 18.301027
71.335 18.196573
71.340 18.576439
71.345 18.287218
71.350 18.339529
71.355 18.271957
71.360 17.942251
71.365 17.263573
71.370 17.577379
71.375 17.494951
71.380 17.808262
71.385 17.875736
71.390 17.638285
71.395 18.251822
71.400 18.815163
71.405 19.078312
71.410 19.099049
71.415 19.007326
71.420 19.271072
71.425 18.855724
71.430 18.045391
71.435 17.745861
71.440 17.553789
71.445 17.420715
71.450 17.415337
71.455 17.135269
71.460 17.149317
71.465 17.656096
71.470 17.604544
71.475 17.258142
71.480 17.291668
71.485 17.287466
71.490 17.381779
71.495 17.811157
71.500 17.812143
71.505 17.71806
71.510 17.962755
71.515 18.466606
71.520 18.500013
71.525 18.799446
71.530 18.654428
71.535 18.589268
71.540 18.876341
71.545 18.94245
71.550 18.984554
71.555 18.661743
71.560 18.584806
71.565 18.601555
71.570 18.786533
71.575 18.847364
71.580 18.468761
71.585 18.264132
71.590 18.170979
71.595 18.263702
71.600 18.12355
71.605 17.579983
71.610 17.334597
71.615 16.958733
71.620 17.339268
71.625 17.656458
71.630 17.813459
71.635 17.751007
71.640 17.917339
71.645 18.098055
71.650 18.307089
71.655 18.509085
71.660 18.054483
71.665 17.747671
71.670 18.467787
71.675 18.964697
71.680 19.229527
71.685 19.169155
71.690 19.390488
71.695 19.316025
71.700 19.381397
71.705 18.833281
71.710 18.174639
71.715 18.728661
71.720 19.120552
71.725 19.407986
71.730 19.38966
71.735 18.933189
71.740 19.352301
71.745 20.0158
71.750 18.930305
71.755 18.536493
71.760 18.475832
71.765 18.7985
71.770 18.543877
71.775 17.962582
71.780 17.336094
71.785 17.812304
71.790 17.204414
71.795 16.818985
71.800 17.404118
71.805 17.614029
71.810 17.302885
71.815 17.258583
71.820 16.83169
71.825 17.274668
71.830 17.060972
71.835 16.776693
71.840 17.182957
71.845 18.208672
71.850 18.504372
71.855 18.189896
71.860 18.341469
71.865 17.805319
71.870 17.317612
71.875 16.885288
71.880 16.834988
71.885 17.398123
71.890 17.437611
71.895 17.517979
71.900 18.233025
71.905 18.553368
71.910 19.160448
71.915 19.328466
71.920 19.503031
71.925 19.73768
71.930 19.514601
71.935 19.143816
71.940 19.190453
71.945 18.538416
71.950 17.958241
71.955 18.034054
71.960 18.102985
71.965 18.436932
71.970 18.730482
71.975 18.874653
71.980 18.329811
71.985 18.627352
71.990 18.509508
71.995 18.303534
72.000 18.30949
72.005 18.024426
72.010 17.605343
72.015 17.54562
72.020 16.983139
72.025 17.220276
72.030 17.556589
72.035 17.398024
72.040 17.595726
72.045 17.564999
72.050 18.209343
72.055 17.819372
72.060 17.273403
72.065 17.285931
72.070 17.297661
72.075 17.10527
72.080 17.314659
72.085 16.438053
72.090 17.410234
72.095 17.752838
72.100 18.01943
72.105 18.296877
72.110 18.464508
72.115 18.956942
72.120 19.046177
72.125 18.597614
72.130 18.346298
72.135 17.657993
72.140 17.407228
72.145 17.94338
72.150 17.748964
72.155 18.449314
72.160 18.386927
72.165 18.606474
72.170 18.957672
72.175 19.614386
72.180 19.279566
72.185 19.214071
72.190 18.758575
72.195 19.301819
72.200 18.946527
72.205 18.186672
72.210 17.808578
72.215 17.820019
72.220 17.915314
72.225 17.767277
72.230 17.44264
72.235 17.791296
72.240 18.407581
72.245 18.202293
72.250 18.040958
72.255 18.211353
72.260 18.722761
72.265 18.461496
72.270 19.145489
72.275 19.283409
72.280 19.65992
72.285 19.917492
72.290 19.39971
72.295 19.361437
72.300 19.461344
72.305 18.791035
72.310 18.881586
72.315 19.203749
72.320 19.508503
72.325 19.258965
72.330 19.03504
72.335 19.213869
72.340 19.049164
72.345 18.202858
72.350 17.309214
72.355 17.318491
72.360 17.460941
72.365 17.11463
72.370 16.842695
72.375 17.200836
72.380 17.354654
72.385 17.626875
72.390 17.967381
72.395 18.348072
72.400 19.008099
72.405 18.850142
72.410 18.842155
72.415 19.132578
72.420 18.807362
72.425 18.273239
72.430 18.271553
72.435 17.961502
72.440 17.398876
72.445 17.238554
72.450 17.494696
72.455 17.865232
72.460 17.328188
72.465 16.895779
72.470 17.44869
72.475 17.737698
72.480 17.55402
72.485 16.910789
72.490 17.725739
72.495 18.3888
72.500 19.108522
72.505 18.870003
72.510 18.960323
72.515 19.108189
72.520 19.04574
72.525 18.901365
72.530 18.962107
72.535 18.376106
72.540 18.796019
72.545 19.075546
72.550 19.299353
72.555 18.938675
72.560 18.464619
72.565 18.41227
72.570 17.912899
72.575 17.224371
72.580 17.261225
72.585 17.342669
72.590 17.433266
72.595 17.190598
72.600 17.045462
72.605 17.34877
72.610 17.450129
72.615 17.830339
72.620 17.853926
72.625 18.5998
72.630 18.943624
72.635 18.904364
72.640 18.847689
72.645 18.792244
72.650 18.432487
72.655 18.463152
72.660 18.128918
72.665 17.811012
72.670 18.2563
72.675 18.528391
72.680 18.34683
72.685 17.397842
72.690 16.842089
72.695 17.138128
72.700 17.019804
72.705 16.930412
72.710 16.830421
72.715 17.53693
72.720 18.32313
72.725 18.460543
72.730 18.422182
72.735 18.803606
72.740 18.39208
72.745 18.378887
72.750 18.198387
72.755 18.077639
72.760 18.636656
72.765 18.348223
72.770 18.072285
72.775 18.103861
72.780 17.931196
72.785 18.017694
72.790 17.708307
72.795 16.82485
72.800 16.562716
72.805 16.318413
72.810 15.910636
72.815 15.607216
72.820 15.017001
72.825 15.216279
72.830 15.34345
72.835 15.590323
72.840 15.686636
72.845 15.778729
72.850 15.755982
72.855 15.883895
72.860 15.46815
72.865 15.657091
72.870 15.89233
72.875 16.235832
72.880 16.679897
72.885 17.109917
72.890 17.407724
72.895 17.526678
72.900 17.372343
72.905 17.448729
72.910 17.723921
72.915 17.307779
72.920 17.082273
72.925 16.55834
72.930 16.669523
72.935 16.190126
72.940 15.763494
72.945 15.336781
72.950 15.272421
72.955 15.659695
72.960 16.242638
72.965 16.214869
72.970 16.508671
72.975 16.659393
72.980 17.012377
72.985 17.271467
72.990 16.938807
72.995 16.691996
73.000 17.053141
