!@!!GADDS PLOTSO FILE: Chi integration type
!@!!Title/SampleName: map-5f
!@!!Comment: ?
!@!!User: Bruker Instrument Administrator
!@!!Site: University of Illinois Chicago
!@!!Frame: map-5f_01_000.gfrm
!@!!Wavelengths    1.54184   1.54056   1.54439
!@!!Frame angles: 2Theta: 63.000 Omega: 50.000 Phi: 0.000 Chi: 90.000
!@!!Integration range: 2Theta: 53.000 to 73.000  Gamma: -105.000 to -75.000
!@!!Integration method: bin normalized
!@!N
!@!SS
!@!M
!@!L 0.0 0.0 0.0 0.0
!@!XDegrees
!@!YCounts
53.000 8.748857
53.005 8.27454
53.010 8.067748
53.015 7.719672
53.020 7.41353
53.025 7.085218
53.030 6.740548
53.035 6.385743
53.040 6.642619
53.045 6.655163
53.050 6.790322
53.055 7.030999
53.060 7.409744
53.065 7.654507
53.070 8.130874
53.075 8.171792
53.080 7.835414
53.085 7.813877
53.090 7.609288
53.095 7.867272
53.100 8.113391
53.105 8.112922
53.110 8.285182
53.115 8.728827
53.120 8.826537
53.125 8.721914
53.130 8.244035
53.135 8.254037
53.140 8.22858
53.145 8.235508
53.150 8.246509
53.155 8.732778
53.160 8.821732
53.165 9.214744
53.170 9.386556
53.175 9.844715
53.180 9.573811
53.185 9.240871
53.190 9.022205
53.195 9.142935
53.200 8.72236
53.205 8.330611
53.210 8.250583
53.215 8.510159
53.220 8.721289
53.225 9.167295
53.230 9.077816
53.235 9.22724
53.240 9.080242
53.245 8.750079
53.250 8.931583
53.255 8.929273
53.260 8.884412
53.265 8.902753
53.270 8.587693
53.275 8.81332
53.280 8.654871
53.285 8.508028
53.290 7.999099
53.295 7.890697
53.300 7.946714
53.305 8.502007
53.310 8.54964
53.315 8.317419
53.320 8.245317
53.325 8.342314
53.330 8.367527
53.335 8.16878
53.340 7.956968
53.345 8.149279
53.350 8.32166
53.355 8.127592
53.360 8.428462
53.365 8.426129
53.370 8.94924
53.375 9.284064
53.380 9.624394
53.385 10.295093
53.390 10.236082
53.395 9.89385
53.400 10.031569
53.405 9.723258
53.410 9.128344
53.415 8.765795
53.420 8.511006
53.425 8.422533
53.430 8.024405
53.435 7.731776
53.440 7.844117
53.445 8.031203
53.450 7.996295
53.455 8.06265
53.460 8.63323
53.465 8.700425
53.470 8.408056
53.475 8.302491
53.480 8.030077
53.485 7.783935
53.490 7.710877
53.495 7.787987
53.500 8.329148
53.505 8.709057
53.510 8.62711
53.515 8.669553
53.520 8.710988
53.525 8.693769
53.530 8.14361
53.535 7.979079
53.540 8.082578
53.545 8.537359
53.550 8.733168
53.555 8.410151
53.560 8.322942
53.565 8.379154
53.570 8.377716
53.575 8.417132
53.580 8.63618
53.585 8.753192
53.590 9.218883
53.595 9.239268
53.600 9.500818
53.605 9.010612
53.610 8.243109
53.615 8.076246
53.620 7.782484
53.625 7.461168
53.630 7.366448
53.635 7.544731
53.640 7.72387
53.645 8.006675
53.650 8.109613
53.655 8.374615
53.660 8.718455
53.665 8.855922
53.670 9.040742
53.675 9.480428
53.680 9.303646
53.685 9.409273
53.690 9.574727
53.695 9.49376
53.700 9.303081
53.705 9.36693
53.710 9.290223
53.715 9.584552
53.720 9.933668
53.725 9.980136
53.730 9.501453
53.735 8.890027
53.740 8.085901
53.745 7.729338
53.750 7.409775
53.755 7.066875
53.760 7.497552
53.765 7.995165
53.770 8.836021
53.775 9.547385
53.780 9.733661
53.785 10.110468
53.790 10.069057
53.795 9.778536
53.800 9.68586
53.805 9.222158
53.810 8.908433
53.815 9.105125
53.820 8.821456
53.825 8.471876
53.830 8.853601
53.835 8.976081
53.840 8.698264
53.845 8.248439
53.850 7.678118
53.855 7.608841
53.860 7.691738
53.865 7.753391
53.870 7.670689
53.875 8.501847
53.880 8.949395
53.885 8.714701
53.890 9.020658
53.895 9.044524
53.900 8.431252
53.905 8.18497
53.910 7.689284
53.915 7.704161
53.920 8.177468
53.925 8.291853
53.930 8.732097
53.935 9.270231
53.940 9.309937
53.945 9.639127
53.950 9.753728
53.955 9.621897
53.960 9.531995
53.965 9.335298
53.970 9.163242
53.975 9.501183
53.980 9.499193
53.985 9.039032
53.990 9.009262
53.995 8.801367
54.000 8.818525
54.005 9.721462
54.010 9.672917
54.015 9.970113
54.020 10.224809
54.025 9.917413
54.030 9.78451
54.035 9.39077
54.040 8.886579
54.045 8.753752
54.050 8.493437
54.055 8.573402
54.060 8.865525
54.065 9.150746
54.070 9.510646
54.075 9.113943
54.080 9.241907
54.085 9.265827
54.090 9.17832
54.095 8.98459
54.100 8.811338
54.105 8.942832
54.110 9.36381
54.115 9.211183
54.120 9.133372
54.125 9.447159
54.130 9.516222
54.135 9.879743
54.140 9.658737
54.145 9.408128
54.150 9.615929
54.155 10.185298
54.160 10.18932
54.165 10.464253
54.170 9.986248
54.175 9.74473
54.180 10.401744
54.185 10.26576
54.190 10.064216
54.195 9.911575
54.200 9.679912
54.205 9.874543
54.210 10.203107
54.215 9.94385
54.220 9.733005
54.225 9.473349
54.230 9.39681
54.235 9.870992
54.240 10.002073
54.245 9.727099
54.250 9.63834
54.255 9.756185
54.260 9.916608
54.265 9.479062
54.270 9.030467
54.275 9.064927
54.280 9.55069
54.285 10.075665
54.290 10.318289
54.295 10.167578
54.300 10.486541
54.305 10.546866
54.310 10.684504
54.315 10.034329
54.320 9.53838
54.325 9.498385
54.330 9.435377
54.335 9.475521
54.340 9.299306
54.345 8.768358
54.350 8.880968
54.355 9.242945
54.360 9.259433
54.365 9.330935
54.370 9.168534
54.375 9.604058
54.380 10.391085
54.385 10.391704
54.390 10.320624
54.395 10.415229
54.400 10.599222
54.405 10.941668
54.410 10.642954
54.415 10.229282
54.420 10.324678
54.425 10.272964
54.430 10.216583
54.435 10.243896
54.440 9.655535
54.445 9.724283
54.450 9.857142
54.455 9.936658
54.460 9.697098
54.465 9.40497
54.470 9.251952
54.475 9.490113
54.480 9.329683
54.485 8.888671
54.490 8.917445
54.495 9.274402
54.500 9.813118
54.505 10.189125
54.510 10.195031
54.515 10.576389
54.520 10.457149
54.525 10.334002
54.530 9.996322
54.535 9.646524
54.540 9.880376
54.545 9.764308
54.550 9.948112
54.555 10.26026
54.560 10.245997
54.565 10.399495
54.570 10.61062
54.575 10.681179
54.580 10.872751
54.585 10.543995
54.590 10.528178
54.595 10.919851
54.600 10.841303
54.605 10.658085
54.610 10.446229
54.615 10.367393
54.620 10.163765
54.625 10.017145
54.630 10.019311
54.635 9.975823
54.640 10.125059
54.645 10.188544
54.650 10.163302
54.655 10.631929
54.660 10.452017
54.665 9.932464
54.670 9.804411
54.675 9.918731
54.680 9.876646
54.685 10.003622
54.690 9.860045
54.695 10.128762
54.700 10.37167
54.705 10.354033
54.710 9.623565
54.715 9.834533
54.720 10.0785
54.725 10.073604
54.730 10.064688
54.735 10.182296
54.740 10.293976
54.745 10.36205
54.750 9.979077
54.755 9.691571
54.760 9.867715
54.765 9.982786
54.770 10.150341
54.775 10.481043
54.780 10.664915
54.785 10.410974
54.790 10.370278
54.795 10.186106
54.800 9.818032
54.805 9.978907
54.810 9.258104
54.815 8.703779
54.820 8.895906
54.825 9.064596
54.830 9.197499
54.835 9.519733
54.840 8.801105
54.845 9.183986
54.850 9.763748
54.855 9.964235
54.860 10.027287
54.865 9.921886
54.870 10.324486
54.875 11.114493
54.880 10.904672
54.885 10.624464
54.890 10.388535
54.895 10.49077
54.900 10.368171
54.905 10.188991
54.910 10.402514
54.915 10.945331
54.920 10.77091
54.925 10.719901
54.930 10.508657
54.935 10.363121
54.940 10.340577
54.945 10.159622
54.950 10.184213
54.955 10.333996
54.960 10.670209
54.965 10.682456
54.970 10.643216
54.975 10.59415
54.980 10.674847
54.985 10.657981
54.990 10.753781
54.995 10.22763
55.000 10.06793
55.005 9.904348
55.010 9.861813
55.015 9.687219
55.020 9.841886
55.025 10.249628
55.030 10.663537
55.035 11.267873
55.040 11.169022
55.045 11.428853
55.050 11.793985
55.055 11.562022
55.060 11.185685
55.065 10.694343
55.070 10.39852
55.075 10.140856
55.080 9.668488
55.085 9.713983
55.090 9.682869
55.095 10.373231
55.100 10.776793
55.105 10.90616
55.110 11.1317
55.115 10.883297
55.120 11.151795
55.125 10.988276
55.130 10.377842
55.135 10.47578
55.140 10.825613
55.145 11.072407
55.150 11.405869
55.155 10.870897
55.160 10.998799
55.165 11.198461
55.170 11.189474
55.175 10.907338
55.180 10.847176
55.185 10.618262
55.190 10.976367
55.195 10.984401
55.200 10.911012
55.205 10.859821
55.210 11.137144
55.215 11.279488
55.220 11.207021
55.225 10.808238
55.230 10.910257
55.235 11.249959
55.240 11.305925
55.245 11.293834
55.250 11.503122
55.255 12.385122
55.260 12.893353
55.265 12.867814
55.270 12.409163
55.275 12.218889
55.280 11.854386
55.285 11.410837
55.290 10.840302
55.295 10.919105
55.300 10.934356
55.305 10.784557
55.310 10.735745
55.315 10.982709
55.320 10.86902
55.325 10.640161
55.330 10.237652
55.335 10.028468
55.340 10.418253
55.345 10.567892
55.350 10.545382
55.355 11.025376
55.360 10.96784
55.365 10.982846
55.370 10.783253
55.375 10.661559
55.380 10.488702
55.385 10.44227
55.390 10.205456
55.395 10.486389
55.400 10.413595
55.405 10.266729
55.410 10.142477
55.415 10.471652
55.420 10.663511
55.425 10.765409
55.430 11.435441
55.435 11.546206
55.440 11.598671
55.445 11.700161
55.450 11.594248
55.455 11.690967
55.460 11.536354
55.465 11.197343
55.470 11.597474
55.475 11.900441
55.480 11.854004
55.485 12.035684
55.490 11.825176
55.495 12.087516
55.500 12.13325
55.505 12.0269
55.510 11.71245
55.515 11.317142
55.520 11.299181
55.525 11.096606
55.530 10.822417
55.535 10.981083
55.540 11.093615
55.545 11.403926
55.550 11.777224
55.555 12.008844
55.560 11.947732
55.565 11.788192
55.570 11.656106
55.575 11.54021
55.580 11.637658
55.585 11.300203
55.590 11.235897
55.595 11.288402
55.600 11.329551
55.605 11.429411
55.610 11.459177
55.615 11.191272
55.620 11.125036
55.625 11.362719
55.630 11.550282
55.635 11.798325
55.640 11.385443
55.645 11.018144
55.650 11.109472
55.655 11.182881
55.660 11.217402
55.665 11.458491
55.670 11.414017
55.675 11.457819
55.680 11.308594
55.685 12.021832
55.690 12.268683
55.695 11.797034
55.700 11.824369
55.705 11.91483
55.710 12.353293
55.715 12.581006
55.720 12.147634
55.725 12.12162
55.730 11.916918
55.735 10.983643
55.740 10.370976
55.745 10.389039
55.750 10.531598
55.755 9.937505
55.760 9.815598
55.765 10.495903
55.770 11.20759
55.775 11.756482
55.780 11.582834
55.785 11.533753
55.790 12.299305
55.795 12.211895
55.800 11.612371
55.805 10.674809
55.810 10.252777
55.815 10.326215
55.820 10.460715
55.825 10.397998
55.830 10.90918
55.835 11.61305
55.840 12.584755
55.845 12.823909
55.850 12.494701
55.855 12.278193
55.860 11.808386
55.865 11.530392
55.870 11.388118
55.875 11.121406
55.880 11.103477
55.885 11.266855
55.890 11.515341
55.895 11.84162
55.900 12.051148
55.905 11.576802
55.910 11.522863
55.915 12.036962
55.920 12.404332
55.925 12.784318
55.930 12.441069
55.935 12.333201
55.940 12.518269
55.945 12.478017
55.950 12.759945
55.955 12.435792
55.960 12.221571
55.965 12.451704
55.970 12.586516
55.975 13.112158
55.980 13.111131
55.985 12.458422
55.990 12.074589
55.995 12.120039
56.000 11.969439
56.005 11.560905
56.010 11.416365
56.015 11.60199
56.020 11.386081
56.025 11.165094
56.030 10.348025
56.035 10.122773
56.040 10.376433
56.045 10.182121
56.050 10.21629
56.055 10.671535
56.060 11.243132
56.065 11.957481
56.070 11.958561
56.075 11.904127
56.080 11.480868
56.085 11.343528
56.090 10.957688
56.095 10.642628
56.100 10.389111
56.105 10.187291
56.110 10.892839
56.115 11.532249
56.120 12.104239
56.125 12.410251
56.130 12.6043
56.135 12.90764
56.140 13.421627
56.145 13.059895
56.150 12.912643
56.155 12.716837
56.160 13.292968
56.165 13.453388
56.170 13.522684
56.175 13.32282
56.180 13.107702
56.185 12.868342
56.190 12.902452
56.195 12.36607
56.200 12.080273
56.205 12.196842
56.210 12.206612
56.215 12.531496
56.220 13.065673
56.225 13.224814
56.230 13.216219
56.235 13.283643
56.240 12.934561
56.245 13.025931
56.250 12.59343
56.255 12.291951
56.260 12.170735
56.265 12.186364
56.270 12.19066
56.275 11.815177
56.280 11.686726
56.285 12.050426
56.290 11.482274
56.295 11.342086
56.300 11.258964
56.305 11.652894
56.310 12.154319
56.315 12.416478
56.320 12.135155
56.325 12.251348
56.330 12.363914
56.335 12.971909
56.340 12.660603
56.345 12.642333
56.350 12.148381
56.355 12.746497
56.360 13.061993
56.365 12.664893
56.370 12.010416
56.375 11.833484
56.380 11.929364
56.385 11.950766
56.390 11.46087
56.395 11.65415
56.400 11.972354
56.405 12.438894
56.410 12.514139
56.415 12.59752
56.420 13.137221
56.425 12.960052
56.430 12.880084
56.435 12.855989
56.440 12.073715
56.445 12.258894
56.450 11.960424
56.455 11.538389
56.460 11.846977
56.465 11.759993
56.470 11.853707
56.475 12.476863
56.480 12.974429
56.485 12.987461
56.490 12.720638
56.495 12.328724
56.500 12.415816
56.505 12.471984
56.510 12.159758
56.515 11.468209
56.520 11.666599
56.525 12.365181
56.530 12.540721
56.535 12.15913
56.540 12.507842
56.545 12.723303
56.550 13.115817
56.555 13.553605
56.560 13.182746
56.565 13.087246
56.570 12.989225
56.575 12.921306
56.580 12.769221
56.585 12.956455
56.590 12.20733
56.595 11.935346
56.600 11.903604
56.605 12.066487
56.610 11.829121
56.615 11.662119
56.620 11.174769
56.625 11.686061
56.630 12.169128
56.635 12.752127
56.640 12.504114
56.645 12.401846
56.650 12.301342
56.655 12.29674
56.660 12.044894
56.665 11.826003
56.670 11.521511
56.675 11.517682
56.680 11.706443
56.685 11.859289
56.690 11.679725
56.695 11.321231
56.700 11.433936
56.705 11.541054
56.710 11.861879
56.715 11.716403
56.720 11.740001
56.725 12.268332
56.730 12.432761
56.735 12.27679
56.740 12.358258
56.745 11.979381
56.750 12.105029
56.755 12.264524
56.760 11.861333
56.765 12.155757
56.770 12.42277
56.775 12.242168
56.780 12.361628
56.785 12.353563
56.790 12.595495
56.795 13.244514
56.800 13.372791
56.805 13.661192
56.810 13.871168
56.815 14.427376
56.820 14.589641
56.825 14.518843
56.830 14.171279
56.835 14.288539
56.840 14.103581
56.845 13.908993
56.850 13.214844
56.855 13.144794
56.860 12.868237
56.865 12.969679
56.870 13.115534
56.875 13.047345
56.880 12.831398
56.885 13.087024
56.890 12.947865
56.895 12.755751
56.900 12.624297
56.905 12.115115
56.910 11.892365
56.915 12.11873
56.920 11.69876
56.925 11.670617
56.930 11.875389
56.935 12.241721
56.940 12.744413
56.945 13.477731
56.950 13.973651
56.955 14.090718
56.960 13.915001
56.965 13.545918
56.970 12.894022
56.975 12.691604
56.980 11.928046
56.985 11.251844
56.990 11.169385
56.995 11.434426
57.000 11.563251
57.005 11.476951
57.010 11.299549
57.015 11.450843
57.020 11.691038
57.025 12.144827
57.030 12.191139
57.035 12.414454
57.040 13.274011
57.045 13.59525
57.050 13.983756
57.055 14.129136
57.060 13.57438
57.065 13.561874
57.070 13.921278
57.075 13.434557
57.080 13.376737
57.085 12.793805
57.090 12.753379
57.095 13.4259
57.100 13.148532
57.105 12.830752
57.110 12.845799
57.115 12.61985
57.120 13.233083
57.125 12.820395
57.130 12.1978
57.135 12.418705
57.140 12.322417
57.145 12.096841
57.150 12.28015
57.155 12.032321
57.160 12.135318
57.165 12.397757
57.170 12.865057
57.175 13.333673
57.180 13.228803
57.185 13.353725
57.190 13.709674
57.195 14.033501
57.200 13.821301
57.205 12.874143
57.210 12.663644
57.215 12.668852
57.220 12.885872
57.225 12.519672
57.230 12.638427
57.235 12.661609
57.240 13.059835
57.245 13.370813
57.250 13.762263
57.255 13.63189
57.260 13.881419
57.265 13.961305
57.270 14.483736
57.275 14.530822
57.280 14.205615
57.285 13.769815
57.290 13.500724
57.295 13.249025
57.300 12.726652
57.305 12.589968
57.310 12.205476
57.315 12.074277
57.320 12.101243
57.325 11.983363
57.330 12.259143
57.335 12.682475
57.340 12.657834
57.345 12.941907
57.350 12.905228
57.355 12.769988
57.360 12.720576
57.365 12.758213
57.370 12.914176
57.375 13.352192
57.380 13.610411
57.385 13.867418
57.390 14.952049
57.395 15.821895
57.400 15.90633
57.405 16.057205
57.410 16.016211
57.415 15.947439
57.420 16.276094
57.425 15.435467
57.430 15.244051
57.435 14.951056
57.440 14.517554
57.445 14.081
57.450 13.833722
57.455 13.32056
57.460 13.520658
57.465 13.482136
57.470 13.446994
57.475 13.048952
57.480 12.984498
57.485 13.188583
57.490 13.398502
57.495 13.404058
57.500 13.065854
57.505 13.132748
57.510 13.482149
57.515 14.193463
57.520 14.262817
57.525 14.385425
57.530 14.111215
57.535 14.253586
57.540 14.344748
57.545 13.846045
57.550 13.11303
57.555 12.715912
57.560 12.745396
57.565 13.469802
57.570 13.768204
57.575 13.964779
57.580 14.003486
57.585 14.10184
57.590 14.415263
57.595 14.66638
57.600 14.208981
57.605 14.116282
57.610 14.092535
57.615 14.045561
57.620 14.12568
57.625 13.63614
57.630 13.351011
57.635 13.658517
57.640 13.285414
57.645 13.060734
57.650 13.858852
57.655 14.125196
57.660 14.342102
57.665 14.705269
57.670 14.415027
57.675 14.568781
57.680 14.485382
57.685 14.042006
57.690 14.203814
57.695 13.819296
57.700 13.343692
57.705 13.633892
57.710 13.824281
57.715 13.8719
57.720 14.040197
57.725 14.024249
57.730 14.16793
57.735 14.036456
57.740 14.110003
57.745 13.799242
57.750 13.76092
57.755 13.26377
57.760 13.017667
57.765 12.884975
57.770 12.648401
57.775 12.437346
57.780 12.830191
57.785 12.42449
57.790 12.39495
57.795 12.735223
57.800 12.801917
57.805 13.171624
57.810 13.295007
57.815 13.557925
57.820 13.937398
57.825 13.827658
57.830 14.016577
57.835 14.020752
57.840 13.798701
57.845 13.459062
57.850 13.341584
57.855 13.455997
57.860 13.697593
57.865 13.828501
57.870 13.736541
57.875 13.520838
57.880 13.366329
57.885 13.005363
57.890 12.920528
57.895 12.761294
57.900 12.751307
57.905 13.145019
57.910 13.909313
57.915 14.432117
57.920 14.827855
57.925 15.094335
57.930 15.147259
57.935 14.772676
57.940 14.371002
57.945 13.43423
57.950 13.028535
57.955 12.688717
57.960 12.439716
57.965 12.087534
57.970 11.828619
57.975 11.868838
57.980 12.355877
57.985 12.956249
57.990 12.99835
57.995 13.359721
58.000 13.693778
58.005 14.234151
58.010 14.764547
58.015 14.36318
58.020 13.947553
58.025 14.070163
58.030 14.207284
58.035 14.225833
58.040 13.853846
58.045 13.809621
58.050 13.90122
58.055 14.074523
58.060 14.230713
58.065 14.157
58.070 14.002164
58.075 14.147335
58.080 14.223862
58.085 14.154198
58.090 14.051775
58.095 13.737394
58.100 13.804818
58.105 13.546702
58.110 13.151055
58.115 12.791894
58.120 12.916121
58.125 12.792059
58.130 12.750132
58.135 12.962275
58.140 13.484095
58.145 14.090884
58.150 14.2739
58.155 14.426755
58.160 14.791355
58.165 14.481708
58.170 14.053061
58.175 13.97709
58.180 13.658638
58.185 13.61808
58.190 13.013593
58.195 12.833437
58.200 13.320041
58.205 13.482289
58.210 13.953343
58.215 14.158238
58.220 14.480452
58.225 14.95839
58.230 14.706448
58.235 14.549315
58.240 14.274679
58.245 13.759244
58.250 13.942945
58.255 13.938769
58.260 13.898676
58.265 13.796369
58.270 13.552752
58.275 13.570115
58.280 13.539948
58.285 13.702366
58.290 13.775628
58.295 13.759177
58.300 14.240371
58.305 14.488024
58.310 14.664285
58.315 14.196103
58.320 13.558824
58.325 13.372256
58.330 13.511165
58.335 13.936291
58.340 14.127031
58.345 14.700144
58.350 15.072695
58.355 15.527001
58.360 15.927436
58.365 15.545802
58.370 15.157352
58.375 15.121268
58.380 15.469755
58.385 15.742514
58.390 15.795423
58.395 15.852633
58.400 16.038
58.405 16.013958
58.410 15.540375
58.415 14.971458
58.420 14.784042
58.425 14.616774
58.430 14.207249
58.435 14.283874
58.440 14.118303
58.445 14.47884
58.450 14.496215
58.455 14.758972
58.460 14.706624
58.465 15.181537
58.470 15.204003
58.475 15.264866
58.480 15.077239
58.485 14.580214
58.490 13.959202
58.495 13.605079
58.500 13.956546
58.505 14.179462
58.510 13.920278
58.515 13.606151
58.520 13.46756
58.525 14.042715
58.530 14.488488
58.535 13.774458
58.540 13.753928
58.545 14.002656
58.550 14.785717
58.555 15.25738
58.560 15.067273
58.565 14.839416
58.570 14.840829
58.575 14.662802
58.580 14.469964
58.585 14.075051
58.590 13.907025
58.595 14.167945
58.600 14.568101
58.605 14.461777
58.610 14.63881
58.615 14.681179
58.620 14.706106
58.625 15.018312
58.630 15.056261
58.635 15.283407
58.640 15.499071
58.645 15.596322
58.650 15.772612
58.655 15.824863
58.660 15.882226
58.665 15.143538
58.670 14.516882
58.675 14.36584
58.680 14.220942
58.685 14.448937
58.690 14.362503
58.695 14.325997
58.700 14.609355
58.705 14.704023
58.710 14.933462
58.715 14.810991
58.720 15.075744
58.725 15.609318
58.730 15.391139
58.735 15.611957
58.740 15.473187
58.745 15.462424
58.750 15.809058
58.755 15.146439
58.760 14.97256
58.765 14.660104
58.770 14.607861
58.775 14.942172
58.780 14.909486
58.785 14.67577
58.790 14.832047
58.795 14.672993
58.800 15.020467
58.805 14.845208
58.810 14.735737
58.815 14.903055
58.820 14.873564
58.825 14.860033
58.830 14.725056
58.835 14.203527
58.840 13.719292
58.845 13.357185
58.850 12.678386
58.855 12.688047
58.860 12.79397
58.865 12.752709
58.870 13.287984
58.875 13.592047
58.880 13.531171
58.885 13.425241
58.890 13.315187
58.895 13.33435
58.900 13.504967
58.905 13.360315
58.910 13.27168
58.915 13.341267
58.920 13.782519
58.925 13.514221
58.930 13.399323
58.935 13.46698
58.940 14.335417
58.945 14.80013
58.950 14.990513
58.955 14.925919
58.960 14.859711
58.965 14.681145
58.970 14.588642
58.975 14.443099
58.980 14.826273
58.985 15.254587
58.990 15.381267
58.995 16.168491
59.000 16.695862
59.005 17.488449
59.010 18.121569
59.015 17.924223
59.020 17.828707
59.025 17.694752
59.030 16.929518
59.035 16.900333
59.040 16.61129
59.045 16.123316
59.050 16.380127
59.055 16.070391
59.060 16.154619
59.065 16.446058
59.070 16.156393
59.075 16.285633
59.080 16.189081
59.085 15.865047
59.090 16.159792
59.095 16.286728
59.100 16.03014
59.105 16.076181
59.110 15.676826
59.115 15.828973
59.120 15.937457
59.125 15.929492
59.130 16.02817
59.135 16.081827
59.140 15.817862
59.145 16.040754
59.150 15.417679
59.155 15.259599
59.160 15.674877
59.165 15.893762
59.170 16.108377
59.175 16.196342
59.180 16.050856
59.185 16.365168
59.190 17.022903
59.195 17.537868
59.200 17.347214
59.205 17.138838
59.210 16.710621
59.215 16.709135
59.220 17.182575
59.225 16.863773
59.230 15.922491
59.235 16.021383
59.240 15.857859
59.245 16.433889
59.250 16.439695
59.255 15.960738
59.260 15.306694
59.265 15.245465
59.270 14.800128
59.275 15.432535
59.280 15.309013
59.285 15.371896
59.290 15.22836
59.295 15.642884
59.300 15.956428
59.305 16.58943
59.310 16.177727
59.315 15.944565
59.320 16.318062
59.325 16.678802
59.330 16.806852
59.335 16.649136
59.340 16.272406
59.345 16.36845
59.350 16.385115
59.355 16.715794
59.360 16.976988
59.365 16.854467
59.370 16.762884
59.375 16.828485
59.380 16.829353
59.385 17.147539
59.390 16.979372
59.395 16.934738
59.400 17.129519
59.405 17.667759
59.410 17.866716
59.415 18.293989
59.420 17.994698
59.425 17.650787
59.430 18.278936
59.435 18.509712
59.440 18.121107
59.445 18.090109
59.450 18.14389
59.455 17.788399
59.460 18.231636
59.465 17.504097
59.470 17.54563
59.475 17.901108
59.480 17.887804
59.485 17.732862
59.490 18.277855
59.495 17.528318
59.500 17.212252
59.505 16.786043
59.510 17.002134
59.515 16.541498
59.520 16.299707
59.525 16.415106
59.530 16.735836
59.535 16.886034
59.540 17.098171
59.545 16.507927
59.550 16.550392
59.555 17.175993
59.560 17.181414
59.565 17.172466
59.570 17.762165
59.575 17.587261
59.580 17.542849
59.585 17.767775
59.590 17.158669
59.595 16.630793
59.600 15.943467
59.605 15.649375
59.610 16.013218
59.615 16.497021
59.620 17.080355
59.625 17.534443
59.630 18.220966
59.635 18.492769
59.640 18.824907
59.645 18.969122
59.650 19.117277
59.655 19.310652
59.660 19.188078
59.665 19.322636
59.670 19.316885
59.675 19.198414
59.680 19.058336
59.685 19.130833
59.690 18.856071
59.695 19.377197
59.700 20.502831
59.705 21.483791
59.710 21.702486
59.715 21.366177
59.720 20.828566
59.725 20.635044
59.730 20.23218
59.735 19.28208
59.740 18.88303
59.745 19.406668
59.750 19.418667
59.755 20.034342
59.760 20.019121
59.765 19.815458
59.770 19.150066
59.775 18.798918
59.780 17.958496
59.785 18.401184
59.790 18.133835
59.795 18.070559
59.800 18.186628
59.805 18.861012
59.810 18.871943
59.815 19.188965
59.820 19.575556
59.825 20.146032
59.830 20.152138
59.835 19.956141
59.840 19.673758
59.845 19.913586
59.850 19.914394
59.855 20.039129
59.860 19.903395
59.865 20.585155
59.870 20.772778
59.875 21.363298
59.880 21.778429
59.885 21.487728
59.890 21.226923
59.895 20.928932
59.900 20.733053
59.905 21.154919
59.910 21.011427
59.915 21.204769
59.920 21.249584
59.925 21.4977
59.930 21.721716
59.935 21.591288
59.940 21.503668
59.945 21.220592
59.950 20.865988
59.955 20.794464
59.960 20.882029
59.965 21.379128
59.970 21.789551
59.975 21.996964
59.980 22.566233
59.985 22.688602
59.990 22.93536
59.995 22.931213
60.000 22.771088
60.005 22.516953
60.010 22.842649
60.015 23.041075
60.020 23.092669
60.025 23.152275
60.030 22.954876
60.035 22.821163
60.040 23.008049
60.045 22.512192
60.050 21.800436
60.055 21.632477
60.060 21.98934
60.065 22.155134
60.070 21.938976
60.075 21.757307
60.080 21.674749
60.085 21.914141
60.090 22.170425
60.095 22.043402
60.100 21.931192
60.105 22.573795
60.110 22.061958
60.115 22.592833
60.120 23.283361
60.125 23.87005
60.130 23.452543
60.135 23.27795
60.140 22.951159
60.145 23.433176
60.150 24.034018
60.155 23.940962
60.160 23.837248
60.165 23.770262
60.170 23.567093
60.175 23.686914
60.180 23.754545
60.185 22.741653
60.190 22.315228
60.195 21.443506
60.200 21.928709
60.205 22.022463
60.210 22.001541
60.215 22.119715
60.220 22.359205
60.225 22.616467
60.230 22.94879
60.235 22.53153
60.240 22.337421
60.245 22.442476
60.250 22.32832
60.255 21.991524
60.260 21.424194
60.265 21.285189
60.270 21.353508
60.275 21.664623
60.280 21.302292
60.285 21.098333
60.290 21.292433
60.295 21.629271
60.300 21.917477
60.305 22.217537
60.310 22.471849
60.315 22.693924
60.320 22.740274
60.325 22.888302
60.330 22.682152
60.335 22.144213
60.340 21.812908
60.345 21.821165
60.350 21.633612
60.355 21.674545
60.360 20.439878
60.365 19.89797
60.370 20.096703
60.375 20.20892
60.380 19.875038
60.385 19.657354
60.390 19.714855
60.395 20.419035
60.400 21.120592
60.405 21.162605
60.410 21.121511
60.415 20.941376
60.420 21.291643
60.425 21.109955
60.430 21.067421
60.435 20.662262
60.440 20.037729
60.445 19.836815
60.450 19.353512
60.455 18.574921
60.460 18.482096
60.465 18.492489
60.470 18.517689
60.475 18.853502
60.480 18.577282
60.485 18.795113
60.490 19.116947
60.495 18.977238
60.500 18.856127
60.505 18.922409
60.510 19.117294
60.515 19.11623
60.520 18.487431
60.525 18.475233
60.530 18.201229
60.535 17.753611
60.540 18.039782
60.545 17.298527
60.550 17.094704
60.555 17.291014
60.560 17.275736
60.565 17.3528
60.570 18.165714
60.575 17.884962
60.580 18.428516
60.585 19.30332
60.590 19.945751
60.595 20.5788
60.600 21.142488
60.605 20.53577
60.610 20.421139
60.615 20.470711
60.620 20.64403
60.625 20.151922
60.630 19.745779
60.635 19.714886
60.640 19.775042
60.645 19.965696
60.650 19.612335
60.655 18.406967
60.660 18.372692
60.665 17.976746
60.670 17.252321
60.675 17.267851
60.680 17.176014
60.685 16.427385
60.690 16.508718
60.695 16.682398
60.700 17.223354
60.705 17.061951
60.710 16.784679
60.715 16.565155
60.720 17.258631
60.725 17.790962
60.730 17.868582
60.735 17.946321
60.740 18.324118
60.745 18.478952
60.750 18.743595
60.755 18.60494
60.760 18.457098
60.765 18.178162
60.770 18.338667
60.775 18.143885
60.780 18.347847
60.785 18.557552
60.790 18.340086
60.795 18.455811
60.800 19.067204
60.805 18.964731
60.810 19.270365
60.815 19.413349
60.820 19.768557
60.825 19.747835
60.830 19.479317
60.835 18.825562
60.840 18.385927
60.845 18.216721
60.850 17.750769
60.855 17.253078
60.860 17.599096
60.865 17.069036
60.870 16.696644
60.875 17.114662
60.880 17.183285
60.885 17.086687
60.890 17.003622
60.895 16.484238
60.900 16.655596
60.905 17.242235
60.910 16.853939
60.915 16.784771
60.920 17.138086
60.925 17.15303
60.930 17.684286
60.935 17.51231
60.940 16.836929
60.945 16.832888
60.950 16.335976
60.955 15.855684
60.960 15.386793
60.965 14.901672
60.970 15.134276
60.975 14.763828
60.980 15.034897
60.985 15.424255
60.990 15.37839
60.995 15.352461
61.000 15.344112
61.005 15.40588
61.010 15.262028
61.015 15.059985
61.020 14.979492
61.025 15.082093
61.030 15.130591
61.035 15.187647
61.040 15.262204
61.045 15.406209
61.050 15.182087
61.055 14.768121
61.060 15.418612
61.065 15.881371
61.070 15.849874
61.075 15.60357
61.080 15.641304
61.085 16.08629
61.090 16.081972
61.095 15.389185
61.100 15.285893
61.105 15.599572
61.110 16.08404
61.115 16.031681
61.120 16.075678
61.125 16.702482
61.130 16.937321
61.135 16.652803
61.140 16.410805
61.145 16.07312
61.150 15.916318
61.155 15.721911
61.160 15.766177
61.165 15.750558
61.170 16.237032
61.175 16.368969
61.180 16.430145
61.185 17.052145
61.190 17.354555
61.195 17.368639
61.200 17.159409
61.205 16.854155
61.210 16.721127
61.215 17.277674
61.220 16.863977
61.225 16.815781
61.230 16.836514
61.235 17.135532
61.240 17.099079
61.245 17.632988
61.250 17.530481
61.255 17.842999
61.260 18.078297
61.265 18.036266
61.270 17.800869
61.275 17.95845
61.280 17.65708
61.285 17.679655
61.290 17.397305
61.295 17.395496
61.300 17.171858
61.305 17.078722
61.310 16.968204
61.315 16.848518
61.320 16.497831
61.325 15.931155
61.330 15.099015
61.335 14.652259
61.340 14.755996
61.345 14.383909
61.350 14.562533
61.355 15.090073
61.360 15.75968
61.365 16.279163
61.370 16.661379
61.375 16.703279
61.380 16.96911
61.385 16.989624
61.390 17.059626
61.395 17.249113
61.400 17.78966
61.405 18.311405
61.410 18.64797
61.415 18.967274
61.420 18.443102
61.425 18.004396
61.430 17.546818
61.435 16.992729
61.440 16.613165
61.445 16.16304
61.450 16.19212
61.455 16.603662
61.460 16.522007
61.465 16.769886
61.470 16.658272
61.475 16.843321
61.480 17.200727
61.485 17.335041
61.490 17.923346
61.495 18.288143
61.500 18.357941
61.505 17.887787
61.510 17.358973
61.515 16.516222
61.520 15.722398
61.525 14.891698
61.530 14.908699
61.535 14.797768
61.540 15.178752
61.545 15.748734
61.550 15.837691
61.555 16.159985
61.560 16.172096
61.565 16.082294
61.570 16.058765
61.575 16.529171
61.580 16.564287
61.585 16.903233
61.590 16.906414
61.595 16.551073
61.600 16.376165
61.605 16.094889
61.610 15.912712
61.615 15.770078
61.620 15.710249
61.625 16.316887
61.630 16.993567
61.635 16.722681
61.640 17.0602
61.645 17.452097
61.650 17.903273
61.655 18.512688
61.660 18.318548
61.665 18.541933
61.670 18.721457
61.675 18.857763
61.680 18.488001
61.685 17.824661
61.690 17.266001
61.695 16.907986
61.700 16.137735
61.705 15.978148
61.710 15.564308
61.715 15.808757
61.720 14.904547
61.725 14.652393
61.730 15.13194
61.735 15.820948
61.740 16.503132
61.745 16.595987
61.750 16.347654
61.755 17.303745
61.760 17.744141
61.765 17.552462
61.770 17.543108
61.775 17.158274
61.780 17.352442
61.785 17.413969
61.790 18.107382
61.795 17.791199
61.800 17.334351
61.805 16.710062
61.810 16.523794
61.815 16.704042
61.820 16.405956
61.825 16.042696
61.830 16.266657
61.835 16.349672
61.840 16.983713
61.845 16.640524
61.850 15.970273
61.855 16.53006
61.860 16.070011
61.865 16.220381
61.870 15.82239
61.875 15.739575
61.880 16.633284
61.885 16.670223
61.890 16.338844
61.895 16.661367
61.900 16.749557
61.905 17.316944
61.910 17.053555
61.915 16.633284
61.920 16.602055
61.925 16.625631
61.930 16.639322
61.935 16.634201
61.940 16.426096
61.945 16.490166
61.950 16.553028
61.955 16.815397
61.960 16.951458
61.965 16.723219
61.970 17.076019
61.975 17.411827
61.980 17.580851
61.985 17.73917
61.990 17.643959
61.995 17.427086
62.000 17.071558
62.005 16.853273
62.010 16.99357
62.015 16.955173
62.020 16.876671
62.025 17.122187
62.030 17.670698
62.035 17.87051
62.040 17.909119
62.045 18.199396
62.050 18.129007
62.055 17.479681
62.060 17.093287
62.065 16.178225
62.070 15.635943
62.075 15.07013
62.080 14.819098
62.085 15.003225
62.090 15.587935
62.095 16.410063
62.100 16.819128
62.105 17.038042
62.110 17.017109
62.115 16.751032
62.120 16.289934
62.125 16.162271
62.130 15.240925
62.135 15.146639
62.140 15.495161
62.145 15.670962
62.150 15.506051
62.155 15.522359
62.160 15.895509
62.165 16.45175
62.170 17.300968
62.175 17.141275
62.180 16.982693
62.185 17.194292
62.190 17.493917
62.195 17.138268
62.200 16.731979
62.205 15.975626
62.210 15.976138
62.215 16.18466
62.220 15.78382
62.225 15.831102
62.230 15.843067
62.235 16.252758
62.240 16.409676
62.245 16.304108
62.250 16.481041
62.255 17.027449
62.260 16.945015
62.265 16.925343
62.270 17.231213
62.275 17.290483
62.280 17.259329
62.285 16.754702
62.290 16.283016
62.295 15.948184
62.300 15.153707
62.305 14.370564
62.310 14.297404
62.315 14.770263
62.320 15.624254
62.325 15.818637
62.330 16.035868
62.335 16.533632
62.340 16.568928
62.345 16.68408
62.350 16.054935
62.355 15.319085
62.360 14.97219
62.365 15.068553
62.370 15.621972
62.375 15.928584
62.380 16.367697
62.385 16.486534
62.390 16.386341
62.395 16.665857
62.400 16.803875
62.405 15.965596
62.410 15.60194
62.415 15.184442
62.420 15.279629
62.425 15.038673
62.430 15.189203
62.435 15.324405
62.440 15.664831
62.445 16.392399
62.450 16.711756
62.455 17.260004
62.460 17.493866
62.465 17.245792
62.470 16.967152
62.475 16.812153
62.480 16.40085
62.485 15.688148
62.490 15.271799
62.495 15.567945
62.500 16.445885
62.505 16.471882
62.510 16.403208
62.515 16.05579
62.520 16.497812
62.525 16.979616
62.530 16.818747
62.535 15.976254
62.540 16.189392
62.545 16.610071
62.550 17.298489
62.555 16.942005
62.560 16.284046
62.565 16.122089
62.570 15.702174
62.575 15.397198
62.580 15.387364
62.585 14.854707
62.590 15.809663
62.595 16.537735
62.600 17.009874
62.605 17.948126
62.610 18.173161
62.615 18.036711
62.620 18.113586
62.625 17.407877
62.630 16.945215
62.635 16.466871
62.640 15.995471
62.645 15.775914
62.650 15.487222
62.655 15.565767
62.660 15.814964
62.665 16.308615
62.670 16.588024
62.675 16.610907
62.680 17.160154
62.685 17.059534
62.690 17.730598
62.695 18.048532
62.700 17.99291
62.705 17.775583
62.710 17.451979
62.715 17.12435
62.720 17.458105
62.725 17.077976
62.730 17.397484
62.735 17.551573
62.740 17.354172
62.745 17.627247
62.750 17.715765
62.755 17.596272
62.760 17.443987
62.765 16.8016
62.770 16.664757
62.775 16.838181
62.780 16.725138
62.785 16.987526
62.790 17.233351
62.795 17.166611
62.800 16.871164
62.805 17.090698
62.810 17.434954
62.815 17.604879
62.820 17.632935
62.825 17.536345
62.830 17.460035
62.835 17.763605
62.840 17.472792
62.845 17.024368
62.850 16.792444
62.855 16.445337
62.860 15.942176
62.865 15.194882
62.870 14.791428
62.875 14.485175
62.880 14.609426
62.885 14.680046
62.890 14.790925
62.895 15.43761
62.900 16.378632
62.905 16.181326
62.910 16.307533
62.915 16.291761
62.920 16.657209
62.925 16.678055
62.930 16.243002
62.935 15.939845
62.940 16.90517
62.945 17.556944
62.950 17.481155
62.955 17.208309
62.960 16.780485
62.965 16.973604
62.970 17.262033
62.975 17.216108
62.980 17.101156
62.985 17.210117
62.990 17.17181
62.995 17.852911
63.000 18.306301
63.005 18.349192
63.010 18.2693
63.015 18.500536
63.020 18.570646
63.025 18.809397
63.030 18.422852
63.035 18.168232
63.040 17.505592
63.045 17.541058
63.050 17.315456
63.055 18.029299
63.060 18.092182
63.065 18.031595
63.070 17.93902
63.075 17.775543
63.080 17.428677
63.085 16.886684
63.090 16.044121
63.095 15.811178
63.100 16.421352
63.105 17.049606
63.110 17.202532
63.115 17.261518
63.120 17.659883
63.125 18.063622
63.130 18.126829
63.135 17.303782
63.140 16.590286
63.145 16.671844
63.150 16.297232
63.155 15.941777
63.160 15.246932
63.165 15.144744
63.170 15.269082
63.175 15.568374
63.180 15.394122
63.185 15.22152
63.190 15.384912
63.195 16.194326
63.200 16.67174
63.205 16.750896
63.210 16.602905
63.215 17.239946
63.220 17.947975
63.225 18.062136
63.230 18.070763
63.235 17.758551
63.240 17.717339
63.245 17.763369
63.250 17.566568
63.255 17.561563
63.260 17.224859
63.265 16.434225
63.270 16.232395
63.275 16.737814
63.280 17.039703
63.285 16.883278
63.290 17.067858
63.295 17.548826
63.300 17.463219
63.305 17.534513
63.310 17.382269
63.315 17.592926
63.320 17.779867
63.325 17.201357
63.330 16.921469
63.335 17.09959
63.340 16.741421
63.345 15.882932
63.350 15.260663
63.355 15.081866
63.360 15.327035
63.365 16.126347
63.370 16.364651
63.375 17.051653
63.380 17.558746
63.385 17.712954
63.390 17.662376
63.395 17.012625
63.400 16.094917
63.405 15.559608
63.410 15.301488
63.415 15.015876
63.420 15.076259
63.425 14.615571
63.430 14.939487
63.435 15.341872
63.440 16.133535
63.445 16.564125
63.450 16.987444
63.455 17.329065
63.460 18.13765
63.465 18.885801
63.470 18.93862
63.475 18.558344
63.480 18.700455
63.485 18.92144
63.490 18.42919
63.495 18.37508
63.500 18.324165
63.505 18.293253
63.510 18.224632
63.515 17.97423
63.520 18.371065
63.525 19.187006
63.530 18.74929
63.535 18.099787
63.540 18.017773
63.545 17.972561
63.550 17.815577
63.555 17.643454
63.560 17.399601
63.565 17.49544
63.570 17.675562
63.575 17.843868
63.580 18.306898
63.585 18.251083
63.590 17.899805
63.595 17.451197
63.600 17.450899
63.605 17.712559
63.610 17.458799
63.615 17.004017
63.620 16.969667
63.625 16.724173
63.630 16.839142
63.635 16.345997
63.640 15.691277
63.645 15.896215
63.650 15.980564
63.655 15.810054
63.660 16.11257
63.665 16.395292
63.670 17.176836
63.675 17.620262
63.680 17.634214
63.685 17.760134
63.690 18.191271
63.695 18.291451
63.700 18.16761
63.705 18.800289
63.710 19.040506
63.715 18.452513
63.720 18.114489
63.725 18.291286
63.730 18.386637
63.735 18.435408
63.740 17.75827
63.745 17.347212
63.750 17.9741
63.755 17.416245
63.760 16.915564
63.765 16.95587
63.770 16.984188
63.775 16.967073
63.780 17.14323
63.785 17.300808
63.790 18.302055
63.795 18.173637
63.800 18.356853
63.805 18.559601
63.810 18.713234
63.815 18.809902
63.820 18.410378
63.825 17.807964
63.830 17.262215
63.835 16.643469
63.840 16.704741
63.845 16.551569
63.850 16.52018
63.855 16.830065
63.860 17.122229
63.865 17.852137
63.870 18.293207
63.875 17.828007
63.880 18.142094
63.885 17.580553
63.890 17.60063
63.895 17.64793
63.900 16.89933
63.905 16.43066
63.910 16.400625
63.915 16.248678
63.920 16.459221
63.925 16.0669
63.930 16.058662
63.935 16.396654
63.940 16.413399
63.945 16.604063
63.950 16.289644
63.955 16.15741
63.960 16.40439
63.965 16.77367
63.970 17.094395
63.975 17.483498
63.980 17.370289
63.985 17.222485
63.990 17.324604
63.995 17.209583
64.000 17.120644
64.005 17.065697
64.010 17.310062
64.015 18.07332
64.020 19.152514
64.025 19.4074
64.030 19.343971
64.035 19.24324
64.040 18.969498
64.045 18.462595
64.050 18.039087
64.055 17.737068
64.060 17.633408
64.065 18.20495
64.070 18.669859
64.075 18.908045
64.080 18.584
64.085 18.207476
64.090 18.072866
64.095 17.960442
64.100 17.539736
64.105 17.166378
64.110 17.345476
64.115 17.811714
64.120 18.378883
64.125 18.258343
64.130 17.742287
64.135 18.048912
64.140 18.034466
64.145 18.103815
64.150 17.475475
64.155 17.202509
64.160 17.1534
64.165 17.658903
64.170 17.988644
64.175 18.122383
64.180 18.154842
64.185 18.370325
64.190 18.191174
64.195 18.130146
64.200 17.643322
64.205 16.992184
64.210 17.313353
64.215 17.243488
64.220 17.307732
64.225 17.792831
64.230 18.238535
64.235 18.233116
64.240 18.409912
64.245 17.789232
64.250 17.564997
64.255 17.690933
64.260 17.468201
64.265 17.00461
64.270 17.310265
64.275 17.636955
64.280 18.043762
64.285 17.952368
64.290 17.517164
64.295 17.551941
64.300 18.070604
64.305 18.319864
64.310 17.903477
64.315 17.620804
64.320 17.751406
64.325 18.310431
64.330 17.854706
64.335 17.736837
64.340 18.213106
64.345 18.556303
64.350 18.658745
64.355 18.915854
64.360 18.47632
64.365 18.764843
64.370 18.240881
64.375 18.100214
64.380 18.542894
64.385 18.848906
64.390 18.985321
64.395 19.434109
64.400 19.476976
64.405 20.131254
64.410 19.609877
64.415 19.037642
64.420 19.144508
64.425 18.67351
64.430 18.953693
64.435 19.327442
64.440 19.003399
64.445 18.890978
64.450 19.344526
64.455 19.819679
64.460 19.883512
64.465 19.716787
64.470 19.700365
64.475 19.743988
64.480 19.690786
64.485 19.407072
64.490 18.857367
64.495 19.058182
64.500 18.95578
64.505 18.33526
64.510 17.85919
64.515 17.330505
64.520 17.345188
64.525 17.368202
64.530 16.931057
64.535 16.906031
64.540 17.133224
64.545 17.632648
64.550 18.307312
64.555 18.127668
64.560 18.442087
64.565 18.617191
64.570 18.693159
64.575 18.793489
64.580 18.577541
64.585 18.625069
64.590 18.559767
64.595 18.070131
64.600 18.090994
64.605 18.253698
64.610 18.097769
64.615 18.350142
64.620 18.413036
64.625 18.475649
64.630 18.413555
64.635 18.558802
64.640 18.488592
64.645 18.589161
64.650 18.514885
64.655 18.444971
64.660 18.276699
64.665 18.270386
64.670 17.917332
64.675 17.655392
64.680 17.742018
64.685 17.839832
64.690 17.92988
64.695 18.634068
64.700 19.379986
64.705 19.609509
64.710 20.113503
64.715 20.555092
64.720 20.671469
64.725 20.439402
64.730 19.633034
64.735 19.402567
64.740 19.993492
64.745 19.90799
64.750 19.529858
64.755 19.935411
64.760 20.281015
64.765 21.011881
64.770 20.932505
64.775 20.315298
64.780 20.178759
64.785 20.249989
64.790 19.55945
64.795 19.367229
64.800 19.244408
64.805 19.360189
64.810 19.537426
64.815 19.280977
64.820 18.830605
64.825 19.317101
64.830 19.093655
64.835 18.57494
64.840 18.468204
64.845 19.098673
64.850 19.572392
64.855 19.505562
64.860 18.620874
64.865 18.295752
64.870 18.356205
64.875 18.428553
64.880 17.785053
64.885 17.822309
64.890 18.623346
64.895 19.748363
64.900 20.470211
64.905 20.82518
64.910 21.215025
64.915 21.680752
64.920 21.912552
64.925 22.038269
64.930 22.214735
64.935 21.743435
64.940 21.469038
64.945 21.252899
64.950 21.18738
64.955 21.012934
64.960 20.635059
64.965 21.213205
64.970 21.700497
64.975 21.55545
64.980 21.30093
64.985 21.586483
64.990 22.229067
64.995 22.132957
65.000 21.149014
65.005 20.912104
65.010 21.387329
65.015 21.768969
65.020 21.99868
65.025 21.490324
65.030 21.133711
65.035 21.466698
65.040 22.292513
65.045 22.457081
65.050 22.334848
65.055 21.872065
65.060 22.074289
65.065 22.459642
65.070 22.873674
65.075 22.838514
65.080 22.390781
65.085 22.178099
65.090 22.12781
65.095 22.211487
65.100 22.867861
65.105 22.282413
65.110 21.971992
65.115 21.868086
65.120 22.030649
65.125 21.666624
65.130 21.123974
65.135 20.665104
65.140 21.015135
65.145 21.197716
65.150 21.336292
65.155 21.305584
65.160 21.333178
65.165 21.201855
65.170 21.285408
65.175 21.267672
65.180 21.234995
65.185 21.764051
65.190 21.693811
65.195 22.373507
65.200 22.803108
65.205 22.662724
65.210 22.162607
65.215 21.978224
65.220 22.008663
65.225 22.868412
65.230 22.310623
65.235 22.039934
65.240 22.377632
65.245 22.745214
65.250 22.632345
65.255 22.14695
65.260 22.14822
65.265 22.616472
65.270 23.114712
65.275 22.751633
65.280 22.74206
65.285 22.78871
65.290 22.847916
65.295 22.548613
65.300 21.870836
65.305 21.814293
65.310 22.371866
65.315 22.771919
65.320 22.890593
65.325 22.824963
65.330 23.034636
65.335 23.792803
65.340 23.472376
65.345 23.051073
65.350 23.01404
65.355 23.099436
65.360 22.775311
65.365 21.878567
65.370 21.533306
65.375 21.396931
65.380 21.168444
65.385 20.942987
65.390 21.523716
65.395 21.843012
65.400 22.418943
65.405 23.066715
65.410 23.207094
65.415 24.316402
65.420 24.633089
65.425 24.567293
65.430 24.390282
65.435 24.244591
65.440 24.524076
65.445 24.872478
65.450 24.349583
65.455 24.632612
65.460 24.716917
65.465 24.950523
65.470 25.002132
65.475 24.837418
65.480 24.338408
65.485 24.624502
65.490 25.060951
65.495 25.030914
65.500 25.28599
65.505 25.259514
65.510 24.837687
65.515 25.239426
65.520 25.087215
65.525 25.521156
65.530 25.876364
65.535 25.831553
65.540 26.726982
65.545 27.955786
65.550 28.969872
65.555 29.055864
65.560 28.314264
65.565 28.37258
65.570 29.016924
65.575 29.375898
65.580 29.476568
65.585 29.57106
65.590 29.60482
65.595 29.705204
65.600 30.126932
65.605 29.56502
65.610 28.95429
65.615 28.181694
65.620 28.183918
65.625 28.352865
65.630 28.409712
65.635 28.116211
65.640 28.150427
65.645 28.176592
65.650 29.166355
65.655 29.409388
65.660 29.540068
65.665 30.042606
65.670 31.016039
65.675 31.904934
65.680 32.70179
65.685 32.032032
65.690 32.073326
65.695 32.867775
65.700 32.575569
65.705 32.084541
65.710 32.353981
65.715 32.776905
65.720 33.361862
65.725 33.229584
65.730 32.870014
65.735 33.335144
65.740 34.363136
65.745 34.868912
65.750 35.498714
65.755 35.204781
65.760 34.74482
65.765 34.511082
65.770 34.498142
65.775 34.136295
65.780 33.953472
65.785 34.154324
65.790 34.853519
65.795 36.37608
65.800 36.352798
65.805 36.227486
65.810 36.153183
65.815 35.522655
65.820 35.423225
65.825 35.98349
65.830 35.713608
65.835 36.177315
65.840 36.033936
65.845 36.090752
65.850 36.797771
65.855 36.700161
65.860 36.301323
65.865 36.551189
65.870 36.22908
65.875 36.336147
65.880 36.879742
65.885 37.141102
65.890 37.042896
65.895 37.120819
65.900 37.847366
65.905 38.909744
65.910 39.691113
65.915 38.808048
65.920 38.552635
65.925 37.884914
65.930 38.013584
65.935 38.360893
65.940 38.492447
65.945 37.926407
65.950 37.88781
65.955 37.825214
65.960 39.181355
65.965 38.871529
65.970 38.497959
65.975 38.194138
65.980 38.754585
65.985 39.110138
65.990 39.535748
65.995 39.293053
66.000 39.658352
66.005 39.394154
66.010 39.260464
66.015 39.491844
66.020 40.168457
66.025 39.642334
66.030 38.800144
66.035 38.918064
66.040 38.427814
66.045 37.988464
66.050 37.276436
66.055 37.277645
66.060 38.070847
66.065 38.739185
66.070 38.382198
66.075 38.843693
66.080 39.188805
66.085 39.879128
66.090 39.804958
66.095 39.76984
66.100 40.153038
66.105 39.437878
66.110 38.530376
66.115 38.724079
66.120 38.41597
66.125 39.266811
66.130 39.597862
66.135 38.916969
66.140 39.581253
66.145 39.838531
66.150 39.389832
66.155 39.082527
66.160 37.567795
66.165 37.03297
66.170 36.749134
66.175 37.06007
66.180 37.920292
66.185 37.475357
66.190 37.071873
66.195 37.669926
66.200 38.06469
66.205 38.601036
66.210 38.009537
66.215 37.170055
66.220 37.562363
66.225 38.354439
66.230 37.695282
66.235 37.507641
66.240 36.894829
66.245 36.394035
66.250 36.229668
66.255 36.132862
66.260 34.765343
66.265 35.059044
66.270 34.151669
66.275 34.530838
66.280 35.023678
66.285 34.885403
66.290 34.661938
66.295 35.052361
66.300 34.492542
66.305 33.747509
66.310 32.961823
66.315 32.60762
66.320 32.749382
66.325 32.618439
66.330 31.996704
66.335 31.707022
66.340 32.281918
66.345 32.738461
66.350 32.16502
66.355 31.361078
66.360 30.957436
66.365 30.84623
66.370 30.84087
66.375 30.788868
66.380 30.792585
66.385 31.421368
66.390 31.452286
66.395 31.227468
66.400 31.135977
66.405 30.693073
66.410 30.365696
66.415 29.58445
66.420 29.386131
66.425 30.011658
66.430 30.56679
66.435 30.448027
66.440 30.509129
66.445 30.674438
66.450 30.880108
66.455 30.855549
66.460 30.511929
66.465 30.155161
66.470 30.394779
66.475 30.025887
66.480 30.049433
66.485 29.320091
66.490 29.560102
66.495 29.737432
66.500 29.990366
66.505 29.607119
66.510 29.267914
66.515 28.455477
66.520 28.467087
66.525 27.641512
66.530 26.651707
66.535 25.804979
66.540 26.509745
66.545 26.866552
66.550 26.915066
66.555 26.785099
66.560 26.290901
66.565 26.589092
66.570 26.582973
66.575 25.849556
66.580 25.449999
66.585 25.19338
66.590 25.188837
66.595 25.84516
66.600 25.642326
66.605 25.456049
66.610 25.374065
66.615 25.527481
66.620 24.865437
66.625 24.702906
66.630 23.808691
66.635 23.647421
66.640 23.648336
66.645 23.619627
66.650 23.60433
66.655 24.323307
66.660 23.673004
66.665 24.143839
66.670 24.130424
66.675 23.994095
66.680 23.880457
66.685 23.979248
66.690 23.883846
66.695 24.181108
66.700 23.988544
66.705 23.821621
66.710 23.935892
66.715 23.354612
66.720 22.663929
66.725 22.188358
66.730 22.041075
66.735 21.860924
66.740 22.073959
66.745 22.085354
66.750 22.584736
66.755 22.938566
66.760 23.131054
66.765 22.709976
66.770 22.248219
66.775 22.283447
66.780 22.527014
66.785 22.324181
66.790 22.276152
66.795 21.558601
66.800 21.905943
66.805 22.550043
66.810 22.385414
66.815 22.256744
66.820 22.158394
66.825 21.964634
66.830 22.454298
66.835 22.700233
66.840 22.312037
66.845 22.371822
66.850 22.61224
66.855 22.720966
66.860 22.654308
66.865 22.955673
66.870 22.865477
66.875 23.114048
66.880 23.155182
66.885 23.471088
66.890 23.519884
66.895 23.067709
66.900 22.197969
66.905 22.505768
66.910 22.594538
66.915 22.443018
66.920 21.646318
66.925 21.750822
66.930 22.994795
66.935 23.933058
66.940 23.002932
66.945 22.632246
66.950 22.886919
66.955 23.372046
66.960 23.465635
66.965 22.448183
66.970 22.370819
66.975 23.094954
66.980 23.068419
66.985 22.367599
66.990 21.864553
66.995 21.435305
67.000 21.452831
67.005 21.080389
67.010 21.143629
67.015 21.356678
67.020 21.660397
67.025 21.966812
67.030 22.055435
67.035 22.849268
67.040 23.487476
67.045 23.368601
67.050 23.303099
67.055 22.945255
67.060 22.602194
67.065 22.489899
67.070 22.231031
67.075 22.029257
67.080 22.2878
67.085 22.257072
67.090 22.178286
67.095 22.284382
67.100 22.520521
67.105 22.229015
67.110 22.329988
67.115 22.318596
67.120 21.852367
67.125 21.748959
67.130 21.475473
67.135 21.560579
67.140 21.110285
67.145 20.413776
67.150 19.864664
67.155 20.334845
67.160 20.590094
67.165 20.981403
67.170 20.61648
67.175 20.750772
67.180 21.389
67.185 21.885695
67.190 21.904081
67.195 22.085489
67.200 21.855867
67.205 21.807152
67.210 22.378805
67.215 22.138269
67.220 22.120399
67.225 21.906116
67.230 21.757002
67.235 21.645451
67.240 21.623169
67.245 21.228418
67.250 21.240194
67.255 21.256227
67.260 21.335798
67.265 21.136507
67.270 21.055103
67.275 21.004223
67.280 20.695557
67.285 20.660662
67.290 20.239836
67.295 20.312162
67.300 20.305336
67.305 20.443459
67.310 20.477377
67.315 20.476311
67.320 20.622034
67.325 20.844563
67.330 20.793816
67.335 21.035696
67.340 21.257395
67.345 21.829924
67.350 22.041277
67.355 21.738064
67.360 22.024837
67.365 21.7822
67.370 21.897991
67.375 21.60195
67.380 21.552532
67.385 21.305712
67.390 21.327532
67.395 21.176975
67.400 21.574406
67.405 21.108109
67.410 21.399666
67.415 21.406862
67.420 21.612425
67.425 21.641182
67.430 21.998425
67.435 21.834167
67.440 22.060736
67.445 21.762594
67.450 21.313965
67.455 21.202156
67.460 20.573549
67.465 19.790613
67.470 19.44936
67.475 19.466257
67.480 19.823185
67.485 20.243591
67.490 20.25543
67.495 20.713163
67.500 21.281794
67.505 21.566751
67.510 21.54006
67.515 21.171824
67.520 20.895182
67.525 21.069191
67.530 20.990932
67.535 20.932346
67.540 21.236734
67.545 21.436655
67.550 21.318029
67.555 20.895731
67.560 20.8118
67.565 21.105349
67.570 21.61005
67.575 21.491266
67.580 21.856522
67.585 22.167149
67.590 22.33164
67.595 22.39905
67.600 22.601902
67.605 22.07461
67.610 21.746292
67.615 21.6054
67.620 22.101526
67.625 22.032768
67.630 21.997456
67.635 21.760635
67.640 22.008799
67.645 21.624254
67.650 20.990332
67.655 21.092443
67.660 21.428007
67.665 21.036427
67.670 21.210506
67.675 21.145494
67.680 21.445072
67.685 21.420071
67.690 20.766775
67.695 21.158569
67.700 21.381981
67.705 20.760546
67.710 20.83482
67.715 20.949461
67.720 21.149866
67.725 20.991421
67.730 20.367636
67.735 20.423983
67.740 20.536566
67.745 20.758554
67.750 20.967278
67.755 20.43445
67.760 20.194227
67.765 19.75013
67.770 19.563736
67.775 19.350847
67.780 18.87578
67.785 18.663437
67.790 18.880924
67.795 19.183765
67.800 19.389446
67.805 19.279251
67.810 19.456169
67.815 19.356977
67.820 19.515097
67.825 19.431797
67.830 19.221273
67.835 20.012196
67.840 20.119387
67.845 19.969481
67.850 20.222208
67.855 20.089487
67.860 20.218544
67.865 20.23831
67.870 19.954912
67.875 20.353277
67.880 20.828159
67.885 20.936804
67.890 21.023308
67.895 20.531288
67.900 21.151932
67.905 21.043818
67.910 21.144133
67.915 20.65601
67.920 20.238281
67.925 20.33456
67.930 20.844246
67.935 21.068613
67.940 21.443079
67.945 20.955973
67.950 20.997442
67.955 20.729052
67.960 20.562946
67.965 20.963846
67.970 20.78533
67.975 20.683752
67.980 21.387457
67.985 21.241358
67.990 21.501247
67.995 21.484081
68.000 21.264795
68.005 20.894655
68.010 20.086721
68.015 19.85441
68.020 19.781675
68.025 20.144995
68.030 20.238159
68.035 20.509523
68.040 21.37413
68.045 21.673326
68.050 22.118105
68.055 22.58287
68.060 22.577927
68.065 22.591532
68.070 21.866381
68.075 21.694643
68.080 21.916729
68.085 21.501802
68.090 21.921911
68.095 21.803825
68.100 22.159243
68.105 22.358799
68.110 22.035265
68.115 22.178034
68.120 21.770491
68.125 21.2041
68.130 20.877041
68.135 20.586458
68.140 20.627872
68.145 20.338501
68.150 20.166897
68.155 20.764782
68.160 21.435871
68.165 21.598789
68.170 21.485643
68.175 21.492165
68.180 21.054127
68.185 20.928209
68.190 20.894133
68.195 20.760906
68.200 21.131245
68.205 21.380075
68.210 21.541189
68.215 22.156204
68.220 21.884129
68.225 21.423143
68.230 20.596363
68.235 20.266047
68.240 20.293222
68.245 20.019295
68.250 19.953775
68.255 20.245993
68.260 19.971256
68.265 20.261351
68.270 19.84218
68.275 19.73245
68.280 19.564043
68.285 19.461763
68.290 19.388985
68.295 19.690847
68.300 20.002699
68.305 19.94578
68.310 19.811932
68.315 19.881245
68.320 20.171799
68.325 19.835793
68.330 19.838045
68.335 19.681234
68.340 20.184237
68.345 20.378847
68.350 20.576101
68.355 20.658255
68.360 20.596766
68.365 20.430912
68.370 20.625591
68.375 20.640892
68.380 20.625242
68.385 20.838621
68.390 20.863668
68.395 20.816437
68.400 20.936855
68.405 20.168539
68.410 20.24794
68.415 20.511267
68.420 19.951513
68.425 20.191904
68.430 20.990114
68.435 21.438387
68.440 21.820673
68.445 21.375677
68.450 21.285938
68.455 21.221138
68.460 20.833826
68.465 20.625933
68.470 20.150814
68.475 19.701303
68.480 19.384697
68.485 19.016233
68.490 19.400171
68.495 19.798193
68.500 19.828297
68.505 19.646891
68.510 19.731184
68.515 19.840445
68.520 20.434267
68.525 20.05374
68.530 19.826622
68.535 20.075397
68.540 20.447462
68.545 20.673779
68.550 20.127089
68.555 19.807371
68.560 20.27614
68.565 19.864393
68.570 20.04826
68.575 20.080698
68.580 20.293997
68.585 21.102476
68.590 21.302542
68.595 21.339533
68.600 21.981001
68.605 21.787224
68.610 21.908669
68.615 21.835829
68.620 21.990547
68.625 21.934849
68.630 21.828302
68.635 21.372845
68.640 21.367907
68.645 21.754965
68.650 22.093668
68.655 21.955118
68.660 21.936316
68.665 21.845385
68.670 21.719648
68.675 22.071178
68.680 22.366411
68.685 22.036591
68.690 22.114853
68.695 22.383568
68.700 22.591402
68.705 22.59268
68.710 21.875357
68.715 21.125488
68.720 21.166042
68.725 20.924871
68.730 20.346655
68.735 20.841265
68.740 20.839567
68.745 20.842299
68.750 21.475868
68.755 21.825781
68.760 21.734627
68.765 22.056986
68.770 21.516897
68.775 21.630733
68.780 21.683861
68.785 21.438416
68.790 21.314877
68.795 21.055046
68.800 21.017845
68.805 21.043661
68.810 20.984341
68.815 20.731768
68.820 20.571716
68.825 20.727201
68.830 21.046364
68.835 21.383444
68.840 21.191151
68.845 21.463627
68.850 22.054768
68.855 22.326689
68.860 22.22571
68.865 22.392927
68.870 21.853647
68.875 22.42057
68.880 21.907244
68.885 21.508444
68.890 21.294861
68.895 21.18395
68.900 21.037273
68.905 21.260536
68.910 21.458992
68.915 21.782558
68.920 21.814396
68.925 21.760801
68.930 21.823368
68.935 21.800503
68.940 21.750381
68.945 21.737333
68.950 22.718214
68.955 23.272009
68.960 23.148638
68.965 23.213213
68.970 22.918873
68.975 22.811029
68.980 23.199402
68.985 22.971361
68.990 23.495573
68.995 23.922071
69.000 24.31929
69.005 25.432188
69.010 25.535263
69.015 25.194672
69.020 24.967953
69.025 24.222549
69.030 23.962397
69.035 23.80298
69.040 23.878489
69.045 23.818903
69.050 23.974009
69.055 23.624121
69.060 23.695326
69.065 24.378429
69.070 23.707781
69.075 23.799818
69.080 23.710384
69.085 23.976501
69.090 24.384827
69.095 24.863283
69.100 24.477448
69.105 24.593208
69.110 24.561331
69.115 24.798878
69.120 25.444197
69.125 26.053705
69.130 25.939018
69.135 26.243933
69.140 26.830164
69.145 26.565771
69.150 26.434513
69.155 25.652086
69.160 24.918118
69.165 24.819361
69.170 24.962029
69.175 25.447283
69.180 25.443125
69.185 25.392908
69.190 25.962154
69.195 26.390745
69.200 26.598305
69.205 26.941568
69.210 26.81077
69.215 27.056627
69.220 27.159281
69.225 26.718122
69.230 26.861116
69.235 26.430801
69.240 26.284813
69.245 26.926603
69.250 27.058569
69.255 26.793051
69.260 26.671207
69.265 26.326559
69.270 26.650749
69.275 26.388065
69.280 26.504179
69.285 26.452103
69.290 26.733202
69.295 26.952744
69.300 26.930475
69.305 27.202707
69.310 27.119287
69.315 26.970518
69.320 27.607109
69.325 27.228657
69.330 26.881559
69.335 27.01601
69.340 26.903572
69.345 26.928249
69.350 26.141891
69.355 25.154926
69.360 26.134245
69.365 27.514841
69.370 27.721367
69.375 27.570986
69.380 28.506048
69.385 29.872889
69.390 30.991705
69.395 30.504967
69.400 29.745592
69.405 29.709377
69.410 29.249954
69.415 28.461819
69.420 28.01552
69.425 27.510418
69.430 27.634367
69.435 28.451187
69.440 29.22584
69.445 29.91692
69.450 30.237383
69.455 29.559679
69.460 28.968752
69.465 28.532547
69.470 27.717207
69.475 27.057775
69.480 26.831148
69.485 26.673695
69.490 27.182138
69.495 27.921207
69.500 28.223154
69.505 28.327835
69.510 28.186434
69.515 28.470926
69.520 29.231352
69.525 29.661551
69.530 29.917843
69.535 29.93791
69.540 30.807459
69.545 31.725582
69.550 31.751213
69.555 30.727755
69.560 30.473955
69.565 29.81839
69.570 29.812756
69.575 29.751238
69.580 29.641594
69.585 29.941481
69.590 29.839487
69.595 30.241428
69.600 30.936258
69.605 30.821398
69.610 30.106543
69.615 29.217068
69.620 28.884239
69.625 29.183146
69.630 28.786215
69.635 28.580427
69.640 28.686161
69.645 29.188103
69.650 28.987085
69.655 30.157347
69.660 30.013668
69.665 29.448303
69.670 29.804501
69.675 29.551218
69.680 30.007263
69.685 30.579802
69.690 30.25808
69.695 30.609537
69.700 31.371857
69.705 30.839878
69.710 30.38257
69.715 30.021811
69.720 30.06497
69.725 29.785553
69.730 29.775915
69.735 29.804934
69.740 30.407768
69.745 30.941498
69.750 30.343731
69.755 29.304621
69.760 29.053617
69.765 28.206465
69.770 27.698229
69.775 27.3708
69.780 26.503086
69.785 26.871645
69.790 26.793232
69.795 27.247625
69.800 27.32831
69.805 26.522264
69.810 26.278416
69.815 26.565081
69.820 26.15197
69.825 26.165257
69.830 24.845457
69.835 24.940353
69.840 25.214153
69.845 24.912088
69.850 24.2873
69.855 24.06584
69.860 23.674644
69.865 23.886251
69.870 23.780663
69.875 23.30629
69.880 22.965567
69.885 23.031467
69.890 23.596502
69.895 23.383488
69.900 23.119995
69.905 23.290943
69.910 23.999475
69.915 24.248934
69.920 23.938833
69.925 23.454466
69.930 23.211924
69.935 23.396713
69.940 23.441994
69.945 23.391048
69.950 24.0238
69.955 24.742964
69.960 24.866917
69.965 25.210045
69.970 24.89093
69.975 23.885681
69.980 23.121187
69.985 22.500376
69.990 21.772457
69.995 22.122398
70.000 22.217333
70.005 21.781185
70.010 22.402344
70.015 22.712002
70.020 22.706646
70.025 22.335928
70.030 21.619247
70.035 21.285282
70.040 21.827932
70.045 21.161554
70.050 21.024689
70.055 20.821138
70.060 20.765459
70.065 20.771782
70.070 21.207117
70.075 21.292421
70.080 21.321547
70.085 21.139288
70.090 21.902433
70.095 21.910336
70.100 22.345079
70.105 21.622728
70.110 21.312412
70.115 21.583973
70.120 21.688028
70.125 21.123648
70.130 21.48546
70.135 21.717203
70.140 21.96912
70.145 21.649628
70.150 21.465364
70.155 21.145506
70.160 20.625525
70.165 20.155962
70.170 19.514042
70.175 19.170267
70.180 19.2582
70.185 19.695665
70.190 19.430965
70.195 19.360325
70.200 19.227129
70.205 18.896925
70.210 18.776247
70.215 19.475674
70.220 19.753695
70.225 19.647221
70.230 19.59742
70.235 19.313141
70.240 19.432264
70.245 19.840338
70.250 19.341009
70.255 19.240549
70.260 19.615286
70.265 19.807045
70.270 20.657309
70.275 21.415337
70.280 20.964691
70.285 20.866365
70.290 20.50946
70.295 20.807842
70.300 20.649467
70.305 19.983017
70.310 20.3901
70.315 20.647366
70.320 20.805973
70.325 20.640289
70.330 20.399956
70.335 21.020281
70.340 20.811424
70.345 20.609089
70.350 19.980017
70.355 19.5574
70.360 19.532236
70.365 19.471817
70.370 19.686277
70.375 19.788553
70.380 19.383095
70.385 19.705017
70.390 19.729151
70.395 19.766174
70.400 19.666758
70.405 19.629366
70.410 19.739492
70.415 20.048109
70.420 20.36939
70.425 20.47566
70.430 20.487947
70.435 20.269203
70.440 20.494473
70.445 20.731979
70.450 20.830431
70.455 20.615503
70.460 20.717833
70.465 20.941738
70.470 21.089317
70.475 20.560579
70.480 20.429392
70.485 20.619688
70.490 20.960426
70.495 20.648191
70.500 20.496347
70.505 19.775055
70.510 19.028399
70.515 18.413576
70.520 17.749155
70.525 17.216463
70.530 17.546993
70.535 18.138506
70.540 19.182108
70.545 19.727262
70.550 19.828671
70.555 20.082449
70.560 20.201946
70.565 20.105818
70.570 20.057447
70.575 19.34576
70.580 18.633183
70.585 18.09412
70.590 18.334726
70.595 18.68194
70.600 18.708494
70.605 18.64431
70.610 18.680408
70.615 18.671682
70.620 18.468529
70.625 18.049225
70.630 17.351501
70.635 17.173578
70.640 17.347939
70.645 17.702618
70.650 18.363352
70.655 18.843475
70.660 19.608526
70.665 19.589272
70.670 19.130274
70.675 18.632357
70.680 18.577667
70.685 18.508232
70.690 19.234892
70.695 19.336071
70.700 18.995857
70.705 19.167784
70.710 19.71438
70.715 19.87042
70.720 19.555492
70.725 18.895714
70.730 19.542786
70.735 20.018299
70.740 20.014822
70.745 19.511566
70.750 19.42502
70.755 19.671305
70.760 19.82798
70.765 19.137976
70.770 18.722542
70.775 18.680937
70.780 19.159042
70.785 19.701693
70.790 19.875931
70.795 19.614183
70.800 19.385201
70.805 19.41873
70.810 19.374756
70.815 18.762054
70.820 17.861546
70.825 16.767025
70.830 16.646822
70.835 16.699038
70.840 16.747337
70.845 16.987219
70.850 17.422974
70.855 17.152615
70.860 17.701172
70.865 17.805012
70.870 18.291082
70.875 18.033197
70.880 17.634089
70.885 18.146963
70.890 18.607647
70.895 18.945805
70.900 18.967588
70.905 18.92495
70.910 19.222437
70.915 19.430893
70.920 19.728298
70.925 20.108057
70.930 20.208817
70.935 20.759565
70.940 20.927519
70.945 20.824253
70.950 20.968584
70.955 20.587074
70.960 20.367617
70.965 19.545143
70.970 19.07299
70.975 18.864223
70.980 18.376566
70.985 18.235559
70.990 18.176399
70.995 18.017302
71.000 18.453869
71.005 18.424036
71.010 18.581446
71.015 18.296457
71.020 18.041655
71.025 18.116718
71.030 17.983494
71.035 17.513885
71.040 17.591549
71.045 17.651941
71.050 17.784399
71.055 18.08741
71.060 18.315371
71.065 18.514849
71.070 18.403326
71.075 17.803694
71.080 18.091208
71.085 18.102598
71.090 17.955143
71.095 17.826361
71.100 18.003052
71.105 18.365063
71.110 18.350269
71.115 17.992897
71.120 18.018963
71.125 18.191525
71.130 19.048122
71.135 19.484426
71.140 20.026447
71.145 20.11079
71.150 20.154289
71.155 19.755539
71.160 18.927723
71.165 18.041603
71.170 17.936157
71.175 17.891481
71.180 17.728689
71.185 18.07321
71.190 18.418472
71.195 18.067627
71.200 17.939098
71.205 18.163273
71.210 18.002565
71.215 18.169212
71.220 18.376312
71.225 18.368423
71.230 18.796015
71.235 18.320227
71.240 18.39818
71.245 18.111383
71.250 18.190649
71.255 18.172087
71.260 18.342564
71.265 19.119122
71.270 19.235565
71.275 19.388081
71.280 19.700651
71.285 19.421412
71.290 19.34236
71.295 18.6994
71.300 18.17989
71.305 17.794859
71.310 17.676119
71.315 17.811935
71.320 17.787636
71.325 17.459084
71.330 17.627911
71.335 18.410639
71.340 18.78964
71.345 18.857124
71.350 19.034447
71.355 19.332382
71.360 19.659714
71.365 19.75738
71.370 19.477528
71.375 19.373684
71.380 18.528185
71.385 18.140026
71.390 18.015295
71.395 18.118111
71.400 17.726225
71.405 17.679729
71.410 18.224691
71.415 18.442379
71.420 18.386728
71.425 18.692739
71.430 18.481237
71.435 18.455641
71.440 17.994493
71.445 18.337889
71.450 18.765514
71.455 19.271049
71.460 19.797291
71.465 20.104338
71.470 21.146505
71.475 21.128071
71.480 20.446152
71.485 19.990023
71.490 18.824736
71.495 18.755903
71.500 17.979057
71.505 16.687462
71.510 16.636419
71.515 16.926477
71.520 17.347639
71.525 18.074673
71.530 18.153965
71.535 19.09556
71.540 19.539598
71.545 19.428049
71.550 19.74386
71.555 19.960476
71.560 19.617031
71.565 19.187611
71.570 19.000639
71.575 19.201696
71.580 19.434608
71.585 19.047894
71.590 18.898979
71.595 18.802967
71.600 18.921986
71.605 18.827534
71.610 18.985661
71.615 19.186987
71.620 19.067656
71.625 18.727942
71.630 18.630936
71.635 18.549612
71.640 18.159924
71.645 17.737804
71.650 17.472715
71.655 17.444859
71.660 17.593227
71.665 18.143797
71.670 18.926226
71.675 18.727839
71.680 18.76865
71.685 18.982038
71.690 18.986511
71.695 18.846575
71.700 18.138489
71.705 17.406864
71.710 17.0931
71.715 16.96089
71.720 16.933788
71.725 16.862909
71.730 16.853735
71.735 17.436766
71.740 17.360779
71.745 17.620514
71.750 18.190031
71.755 18.498701
71.760 18.878584
71.765 18.948238
71.770 18.51963
71.775 19.488197
71.780 19.66242
71.785 19.005362
71.790 18.371477
71.795 17.725624
71.800 17.529003
71.805 17.666414
71.810 16.983467
71.815 16.951963
71.820 17.627626
71.825 17.962072
71.830 18.437799
71.835 18.563698
71.840 18.736801
71.845 19.118067
71.850 18.577906
71.855 18.588257
71.860 19.086262
71.865 18.957308
71.870 18.732082
71.875 18.672668
71.880 19.150467
71.885 19.246468
71.890 19.034838
71.895 18.814749
71.900 18.754179
71.905 18.609322
71.910 18.317862
71.915 17.532206
71.920 17.451721
71.925 16.944851
71.930 17.053877
71.935 17.478813
71.940 17.872602
71.945 17.576567
71.950 17.830034
71.955 18.178518
71.960 18.467558
71.965 18.002472
71.970 17.464737
71.975 17.58357
71.980 17.566803
71.985 18.034866
71.990 17.893599
71.995 18.310644
72.000 18.353376
72.005 18.066734
72.010 18.268881
72.015 18.847805
72.020 19.219219
72.025 19.379721
72.030 19.191666
72.035 19.146519
72.040 19.436386
72.045 19.101667
72.050 18.921379
72.055 18.313601
72.060 18.0138
72.065 18.047575
72.070 17.99835
72.075 18.234362
72.080 18.094027
72.085 17.401573
72.090 17.542784
72.095 17.819944
72.100 17.950642
72.105 17.97978
72.110 17.795311
72.115 17.935009
72.120 17.987759
72.125 17.832321
72.130 17.35269
72.135 17.3076
72.140 17.371416
72.145 17.284025
72.150 17.938261
72.155 17.801964
72.160 18.28372
72.165 18.536346
72.170 18.371948
72.175 18.079306
72.180 17.787603
72.185 17.382175
72.190 17.945473
72.195 18.012388
72.200 18.576689
72.205 19.209881
72.210 19.496765
72.215 19.279118
72.220 19.659492
72.225 19.163189
72.230 18.96949
72.235 18.767128
72.240 19.148014
72.245 20.343414
72.250 19.952827
72.255 19.924463
72.260 20.134203
72.265 20.10004
72.270 20.061363
72.275 19.61005
72.280 19.513559
72.285 20.154871
72.290 19.698503
72.295 19.621708
72.300 19.43807
72.305 19.236107
72.310 19.149336
72.315 18.732038
72.320 18.901304
72.325 19.144636
72.330 18.566048
72.335 18.832561
72.340 18.504051
72.345 17.743925
72.350 17.550964
72.355 16.726652
72.360 16.609938
72.365 16.737522
72.370 16.931511
72.375 17.486681
72.380 18.190979
72.385 17.86409
72.390 18.236776
72.395 19.165432
72.400 19.3489
72.405 18.966894
72.410 18.699276
72.415 18.472488
72.420 18.86965
72.425 18.505732
72.430 17.832375
72.435 17.790344
72.440 17.821363
72.445 17.933563
72.450 17.854347
72.455 17.642918
72.460 17.226603
72.465 17.291986
72.470 17.193607
72.475 17.665119
72.480 17.483095
72.485 17.664883
72.490 17.944929
72.495 18.125813
72.500 18.044832
72.505 18.126778
72.510 17.835022
72.515 18.171473
72.520 18.20517
72.525 18.440701
72.530 18.429823
72.535 18.537424
72.540 19.028702
72.545 19.547998
72.550 19.690693
72.555 20.028011
72.560 20.801374
72.565 21.122015
72.570 20.549566
72.575 19.672171
72.580 18.817305
72.585 18.793203
72.590 18.509829
72.595 17.871941
72.600 17.955723
72.605 18.346714
72.610 18.30414
72.615 18.556906
72.620 18.510611
72.625 18.912066
72.630 18.881435
72.635 18.729214
72.640 18.722382
72.645 18.605143
72.650 18.114956
72.655 16.990532
72.660 16.900213
72.665 16.674152
72.670 16.382862
72.675 16.725128
72.680 16.809988
72.685 16.744375
72.690 17.160097
72.695 16.875092
72.700 16.982393
72.705 17.316301
72.710 17.557631
72.715 17.886047
72.720 18.042131
72.725 18.466
72.730 18.525208
72.735 18.372681
72.740 17.391201
72.745 16.818518
72.750 16.746532
72.755 16.241987
72.760 16.097311
72.765 15.989768
72.770 16.303907
72.775 16.507013
72.780 16.123924
72.785 16.191055
72.790 15.903202
72.795 15.969823
72.800 16.288979
72.805 15.91162
72.810 16.166159
72.815 16.568277
72.820 16.635176
72.825 16.710876
72.830 16.553106
72.835 16.749826
72.840 17.294868
72.845 17.118124
72.850 17.179359
72.855 16.801348
72.860 16.868484
72.865 16.707926
72.870 17.254017
72.875 17.321459
72.880 17.194721
72.885 17.107492
72.890 17.553463
72.895 17.45191
72.900 17.157593
72.905 16.366558
72.910 16.166658
72.915 15.76316
72.920 15.969459
72.925 15.558224
72.930 15.57816
72.935 16.076363
72.940 16.230267
72.945 16.376667
72.950 16.667511
72.955 17.168377
72.960 17.810404
72.965 17.562292
72.970 17.048786
72.975 17.418085
72.980 17.5639
72.985 17.562817
72.990 17.414629
72.995 17.160946
73.000 17.823992
