!@!!GADDS PLOTSO FILE: Chi integration type
!@!!Title/SampleName: map-128
!@!!Comment: ?
!@!!User: Bruker Instrument Administrator
!@!!Site: University of Illinois Chicago
!@!!Frame: map-128_01_000.gfrm
!@!!Wavelengths    1.54184   1.54056   1.54439
!@!!Frame angles: 2Theta: 63.000 Omega: 50.000 Phi: 0.000 Chi: 90.000
!@!!Integration range: 2Theta: 53.000 to 73.000  Gamma: -105.000 to -75.000
!@!!Integration method: bin normalized
!@!N
!@!SS
!@!M
!@!L 0.0 0.0 0.0 0.0
!@!XDegrees
!@!YCounts
53.000 5.4201
53.005 5.77742
53.010 6.112528
53.015 6.642784
53.020 6.581044
53.025 6.282883
53.030 6.203805
53.035 6.136089
53.040 5.748723
53.045 5.324814
53.050 4.863024
53.055 4.856894
53.060 5.122742
53.065 5.324494
53.070 5.580819
53.075 5.763657
53.080 6.036603
53.085 6.26895
53.090 6.622039
53.095 6.654727
53.100 6.295665
53.105 6.131414
53.110 5.932856
53.115 5.618885
53.120 5.555146
53.125 5.117078
53.130 4.883198
53.135 4.717936
53.140 4.669259
53.145 4.805738
53.150 4.779435
53.155 5.058251
53.160 5.359861
53.165 5.62573
53.170 5.52947
53.175 5.358414
53.180 5.365871
53.185 5.145691
53.190 4.744675
53.195 4.498193
53.200 4.46584
53.205 4.81598
53.210 4.944324
53.215 4.641086
53.220 5.010346
53.225 5.512978
53.230 5.844712
53.235 5.617947
53.240 5.341423
53.245 5.401058
53.250 5.199155
53.255 4.754979
53.260 4.741739
53.265 4.519249
53.270 4.399486
53.275 4.484817
53.280 4.612114
53.285 5.049349
53.290 5.145271
53.295 5.009988
53.300 5.024601
53.305 5.261388
53.310 5.267488
53.315 4.970589
53.320 4.604123
53.325 4.367503
53.330 4.400723
53.335 4.604519
53.340 4.56197
53.345 4.217796
53.350 4.415453
53.355 4.410675
53.360 4.488946
53.365 4.421053
53.370 4.754835
53.375 5.000463
53.380 5.346228
53.385 5.619144
53.390 5.879155
53.395 6.322126
53.400 6.28721
53.405 5.954401
53.410 5.748211
53.415 5.702592
53.420 5.474312
53.425 5.353938
53.430 5.24177
53.435 5.329808
53.440 5.515916
53.445 5.586947
53.450 5.348258
53.455 5.460578
53.460 5.624846
53.465 5.561006
53.470 5.332399
53.475 5.276913
53.480 5.730069
53.485 6.349877
53.490 6.615555
53.495 6.288704
53.500 6.230608
53.505 6.110183
53.510 6.127849
53.515 6.268997
53.520 5.858689
53.525 5.667169
53.530 5.99802
53.535 6.081942
53.540 6.216315
53.545 6.060268
53.550 5.657543
53.555 6.00292
53.560 6.376417
53.565 5.85592
53.570 5.87308
53.575 5.976493
53.580 6.192397
53.585 6.16056
53.590 5.957158
53.595 5.991882
53.600 6.22186
53.605 6.155487
53.610 6.2365
53.615 6.057377
53.620 6.168649
53.625 6.092707
53.630 6.189438
53.635 6.429817
53.640 6.51343
53.645 6.381116
53.650 6.514541
53.655 6.522768
53.660 6.54985
53.665 6.268826
53.670 6.074892
53.675 5.680256
53.680 5.684612
53.685 5.678213
53.690 5.477116
53.695 5.517794
53.700 5.776117
53.705 5.823951
53.710 5.976122
53.715 5.672596
53.720 5.662882
53.725 5.959867
53.730 5.660671
53.735 5.769927
53.740 5.642151
53.745 5.658259
53.750 5.654565
53.755 5.586689
53.760 5.284967
53.765 5.289799
53.770 5.271524
53.775 5.46605
53.780 5.332233
53.785 5.327217
53.790 5.129555
53.795 5.288277
53.800 5.278813
53.805 5.473239
53.810 5.330964
53.815 5.440298
53.820 5.784284
53.825 6.180091
53.830 6.551478
53.835 6.585198
53.840 6.584521
53.845 6.733494
53.850 6.861561
53.855 6.617523
53.860 6.444176
53.865 6.069118
53.870 5.960759
53.875 5.59296
53.880 5.657921
53.885 5.647839
53.890 5.572099
53.895 5.618041
53.900 5.568014
53.905 5.813743
53.910 5.810024
53.915 5.59587
53.920 5.427387
53.925 5.723465
53.930 5.885626
53.935 5.993886
53.940 6.01688
53.945 6.016089
53.950 5.978167
53.955 5.867104
53.960 5.575891
53.965 5.260277
53.970 5.270998
53.975 5.528456
53.980 5.730827
53.985 6.024693
53.990 5.757827
53.995 5.541978
54.000 5.538196
54.005 5.324501
54.010 5.417988
54.015 5.450915
54.020 5.384275
54.025 5.850739
54.030 6.210453
54.035 6.143703
54.040 5.87038
54.045 5.674131
54.050 5.594642
54.055 5.800975
54.060 5.526453
54.065 5.390621
54.070 5.968182
54.075 6.213851
54.080 6.40134
54.085 6.350387
54.090 6.507847
54.095 6.375639
54.100 6.091045
54.105 5.777076
54.110 6.073371
54.115 6.27758
54.120 6.517903
54.125 6.255139
54.130 6.583815
54.135 6.713947
54.140 6.723399
54.145 6.494594
54.150 6.366066
54.155 6.407383
54.160 6.997171
54.165 7.352518
54.170 7.100747
54.175 6.819317
54.180 6.549356
54.185 6.650409
54.190 6.625551
54.195 6.089855
54.200 6.068372
54.205 6.194426
54.210 6.204108
54.215 6.027649
54.220 5.758955
54.225 5.780236
54.230 5.747521
54.235 5.525682
54.240 5.44054
54.245 5.918769
54.250 6.256663
54.255 6.120254
54.260 5.935939
54.265 5.992129
54.270 6.360653
54.275 6.782413
54.280 6.299375
54.285 6.26486
54.290 6.090045
54.295 5.993349
54.300 6.103142
54.305 6.291849
54.310 6.486149
54.315 6.699621
54.320 6.82743
54.325 7.151373
54.330 7.432889
54.335 7.264416
54.340 6.391747
54.345 6.087029
54.350 5.65288
54.355 5.242992
54.360 4.909203
54.365 4.653265
54.370 4.813138
54.375 4.909891
54.380 4.923386
54.385 5.299991
54.390 5.491785
54.395 5.389132
54.400 4.949932
54.405 5.019975
54.410 5.229962
54.415 5.482297
54.420 5.402512
54.425 5.535628
54.430 6.304648
54.435 6.823383
54.440 6.732232
54.445 6.510546
54.450 6.269878
54.455 6.482814
54.460 6.532554
54.465 6.010174
54.470 5.850637
54.475 5.700057
54.480 5.867968
54.485 5.839859
54.490 5.829936
54.495 5.740612
54.500 5.623454
54.505 5.448775
54.510 5.683195
54.515 5.789062
54.520 6.085844
54.525 6.052457
54.530 5.949485
54.535 6.106743
54.540 6.525132
54.545 6.735024
54.550 6.896013
54.555 6.334124
54.560 6.322449
54.565 6.527884
54.570 6.345551
54.575 5.686689
54.580 5.352709
54.585 5.481392
54.590 5.801298
54.595 5.81724
54.600 5.623729
54.605 6.000617
54.610 6.223274
54.615 6.291526
54.620 6.35334
54.625 6.123904
54.630 6.099995
54.635 6.302755
54.640 6.1953
54.645 6.376284
54.650 5.881001
54.655 5.863553
54.660 6.434598
54.665 6.706536
54.670 6.518513
54.675 6.756355
54.680 6.682514
54.685 7.097958
54.690 6.843018
54.695 6.601814
54.700 6.723184
54.705 7.109575
54.710 6.935337
54.715 6.875722
54.720 6.825006
54.725 6.848036
54.730 6.518383
54.735 6.235487
54.740 6.005043
54.745 6.260755
54.750 6.637661
54.755 6.504179
54.760 6.827177
54.765 6.939097
54.770 7.255259
54.775 6.954245
54.780 6.630557
54.785 6.634178
54.790 6.734893
54.795 6.536296
54.800 6.625583
54.805 6.552882
54.810 6.928897
54.815 7.186184
54.820 7.096033
54.825 7.334974
54.830 7.148974
54.835 6.99079
54.840 6.826918
54.845 6.851609
54.850 6.908173
54.855 6.976466
54.860 6.730014
54.865 6.710081
54.870 6.933707
54.875 6.900923
54.880 6.654665
54.885 6.496245
54.890 6.882657
54.895 6.948946
54.900 6.762218
54.905 6.357149
54.910 6.702397
54.915 6.541728
54.920 6.175191
54.925 5.584041
54.930 5.524333
54.935 5.749789
54.940 5.897673
54.945 5.864714
54.950 6.331992
54.955 6.291689
54.960 6.686574
54.965 6.612833
54.970 6.612599
54.975 6.544203
54.980 6.472425
54.985 6.503757
54.990 6.851587
54.995 6.766746
55.000 6.792791
55.005 6.771869
55.010 6.96695
55.015 7.13469
55.020 7.161349
55.025 7.216281
55.030 7.363888
55.035 7.636966
55.040 7.61682
55.045 7.245215
55.050 6.898664
55.055 6.623089
55.060 6.687129
55.065 6.945
55.070 6.749429
55.075 6.576267
55.080 6.652188
55.085 6.963347
55.090 6.930879
55.095 6.870702
55.100 6.550907
55.105 7.116261
55.110 7.431536
55.115 7.601704
55.120 7.471279
55.125 7.215563
55.130 7.163416
55.135 7.017316
55.140 6.586695
55.145 6.754554
55.150 6.957189
55.155 7.168851
55.160 7.143728
55.165 7.229208
55.170 7.307855
55.175 7.556175
55.180 7.558527
55.185 7.765591
55.190 8.024654
55.195 8.045605
55.200 7.754263
55.205 7.702348
55.210 7.634582
55.215 7.323867
55.220 6.369524
55.225 6.118749
55.230 6.007926
55.235 5.833163
55.240 5.661612
55.245 5.613817
55.250 5.565299
55.255 6.056583
55.260 6.37241
55.265 6.630091
55.270 6.905942
55.275 7.056532
55.280 6.917106
55.285 6.963866
55.290 6.65639
55.295 6.279404
55.300 5.882423
55.305 5.638428
55.310 5.474926
55.315 5.541187
55.320 5.792807
55.325 5.828619
55.330 5.726402
55.335 6.116742
55.340 6.287065
55.345 6.459685
55.350 6.192691
55.355 5.861324
55.360 6.261868
55.365 6.53372
55.370 6.518671
55.375 6.77625
55.380 7.131275
55.385 7.276178
55.390 7.389003
55.395 7.359649
55.400 7.1977
55.405 7.037207
55.410 6.72319
55.415 6.202886
55.420 6.185266
55.425 6.053448
55.430 6.03317
55.435 6.003105
55.440 5.845736
55.445 6.279912
55.450 6.434259
55.455 6.44375
55.460 6.212535
55.465 6.24232
55.470 6.415437
55.475 6.546769
55.480 6.131736
55.485 6.119128
55.490 6.254344
55.495 6.229053
55.500 6.37254
55.505 6.775887
55.510 7.053359
55.515 7.012587
55.520 6.88152
55.525 6.79542
55.530 7.029696
55.535 6.773896
55.540 6.263453
55.545 5.901001
55.550 6.232778
55.555 6.498975
55.560 6.327011
55.565 6.292178
55.570 6.529517
55.575 6.821721
55.580 6.96825
55.585 6.977859
55.590 6.914702
55.595 7.515953
55.600 7.732537
55.605 7.860525
55.610 7.999829
55.615 7.881025
55.620 7.854417
55.625 7.799183
55.630 7.236608
55.635 6.520764
55.640 6.2297
55.645 6.006934
55.650 5.853074
55.655 5.81905
55.660 5.585292
55.665 6.005599
55.670 6.515735
55.675 6.254862
55.680 6.462832
55.685 6.817358
55.690 6.726835
55.695 7.064137
55.700 6.668365
55.705 6.663619
55.710 7.318505
55.715 7.300723
55.720 7.203456
55.725 7.629566
55.730 7.715435
55.735 7.985697
55.740 7.331415
55.745 6.71821
55.750 6.522982
55.755 6.397363
55.760 6.003342
55.765 5.948213
55.770 6.210765
55.775 7.055611
55.780 7.015087
55.785 7.067475
55.790 7.108911
55.795 6.873114
55.800 6.787885
55.805 6.631162
55.810 6.032449
55.815 6.163538
55.820 6.424433
55.825 6.302842
55.830 6.409255
55.835 6.690982
55.840 6.899204
55.845 7.530187
55.850 8.013624
55.855 7.626094
55.860 7.799916
55.865 7.659473
55.870 7.122653
55.875 7.205755
55.880 6.745558
55.885 6.281133
55.890 6.65373
55.895 6.899355
55.900 7.264236
55.905 7.566545
55.910 7.664846
55.915 7.817185
55.920 7.583044
55.925 7.453779
55.930 7.539596
55.935 7.388725
55.940 6.883098
55.945 7.311824
55.950 7.88326
55.955 8.189384
55.960 7.97006
55.965 7.86158
55.970 7.727514
55.975 7.510482
55.980 6.655127
55.985 6.031275
55.990 5.881781
55.995 5.791088
56.000 5.324613
56.005 5.69392
56.010 6.136674
56.015 6.764112
56.020 6.982564
56.025 6.935063
56.030 7.41377
56.035 7.942878
56.040 7.540487
56.045 7.223268
56.050 6.719974
56.055 6.411442
56.060 6.489685
56.065 6.297678
56.070 6.200672
56.075 6.290797
56.080 6.520665
56.085 6.566831
56.090 6.837315
56.095 6.853826
56.100 7.296857
56.105 7.284796
56.110 7.698278
56.115 7.653428
56.120 7.762074
56.125 7.620445
56.130 7.40716
56.135 6.828529
56.140 6.676411
56.145 5.907427
56.150 5.467832
56.155 5.598251
56.160 5.875712
56.165 6.1801
56.170 6.377146
56.175 6.501166
56.180 6.417311
56.185 6.380797
56.190 6.325494
56.195 6.233219
56.200 6.136033
56.205 6.135309
56.210 6.21851
56.215 6.764282
56.220 7.243269
56.225 7.05105
56.230 6.887629
56.235 6.971903
56.240 7.061217
56.245 7.380772
56.250 7.242741
56.255 7.123507
56.260 7.647745
56.265 8.116824
56.270 7.786136
56.275 7.748087
56.280 7.666196
56.285 7.941419
56.290 7.952923
56.295 7.738631
56.300 7.608424
56.305 7.979884
56.310 7.77146
56.315 7.773566
56.320 7.528129
56.325 7.47389
56.330 7.457633
56.335 7.372875
56.340 7.174816
56.345 7.084781
56.350 6.992878
56.355 7.425755
56.360 7.405165
56.365 7.182556
56.370 7.564764
56.375 7.371531
56.380 7.550373
56.385 7.297267
56.390 6.769214
56.395 6.771558
56.400 6.662599
56.405 6.561528
56.410 6.907513
56.415 6.999579
56.420 7.027741
56.425 7.375985
56.430 7.527205
56.435 7.669806
56.440 7.51053
56.445 7.429603
56.450 7.463778
56.455 7.09404
56.460 6.791795
56.465 6.758432
56.470 6.684849
56.475 6.698537
56.480 6.624588
56.485 6.593847
56.490 7.31877
56.495 7.47092
56.500 7.471475
56.505 7.881577
56.510 7.876787
56.515 8.12934
56.520 8.062527
56.525 8.036923
56.530 8.072145
56.535 7.601374
56.540 7.406924
56.545 7.239569
56.550 7.051918
56.555 6.872683
56.560 6.845313
56.565 7.041337
56.570 7.237925
56.575 7.031294
56.580 7.42816
56.585 7.510194
56.590 7.519644
56.595 7.294526
56.600 7.144846
56.605 7.564698
56.610 8.009728
56.615 7.87424
56.620 8.11818
56.625 8.145416
56.630 8.245237
56.635 8.361217
56.640 7.781251
56.645 7.457788
56.650 7.241877
56.655 7.319444
56.660 7.542288
56.665 7.439364
56.670 7.745016
56.675 7.779864
56.680 7.590799
56.685 7.70794
56.690 7.610555
56.695 7.298346
56.700 7.462319
56.705 6.796428
56.710 6.973225
56.715 7.431411
56.720 7.463792
56.725 7.166059
56.730 7.223773
56.735 7.150765
56.740 7.452263
56.745 7.480042
56.750 7.206575
56.755 7.152124
56.760 7.443287
56.765 7.626842
56.770 7.786498
56.775 7.739988
56.780 8.190099
56.785 8.671755
56.790 8.881757
56.795 8.863772
56.800 8.864211
56.805 9.123178
56.810 9.019509
56.815 8.237666
56.820 7.874637
56.825 7.894239
56.830 7.783275
56.835 7.596387
56.840 7.157248
56.845 7.410584
56.850 7.943461
56.855 8.131943
56.860 7.863733
56.865 7.766986
56.870 8.069909
56.875 8.20155
56.880 7.921831
56.885 7.47194
56.890 7.207209
56.895 7.784521
56.900 8.180762
56.905 8.281695
56.910 8.209162
56.915 8.555535
56.920 9.1252
56.925 9.108702
56.930 8.5388
56.935 8.146434
56.940 8.030542
56.945 7.988595
56.950 7.409363
56.955 6.863523
56.960 6.897322
56.965 7.119131
56.970 7.250833
56.975 6.954514
56.980 7.275949
56.985 7.570238
56.990 7.702107
56.995 7.681678
57.000 7.551387
57.005 7.216158
57.010 7.594539
57.015 7.830798
57.020 8.069407
57.025 8.3606
57.030 8.425717
57.035 8.7279
57.040 8.717861
57.045 8.374567
57.050 8.088057
57.055 8.20268
57.060 7.964097
57.065 7.857988
57.070 8.098069
57.075 8.59437
57.080 8.532586
57.085 8.294852
57.090 7.725569
57.095 7.420648
57.100 7.55309
57.105 7.454587
57.110 7.414121
57.115 7.557714
57.120 7.450956
57.125 8.097012
57.130 8.554991
57.135 8.483759
57.140 8.237436
57.145 8.024263
57.150 8.479028
57.155 8.728878
57.160 8.430719
57.165 7.87771
57.170 7.809909
57.175 8.353226
57.180 8.067612
57.185 7.904671
57.190 8.404442
57.195 9.101979
57.200 9.855937
57.205 9.869432
57.210 9.498828
57.215 9.78754
57.220 9.656533
57.225 9.091382
57.230 8.529131
57.235 8.180388
57.240 7.9885
57.245 8.074759
57.250 7.948636
57.255 7.772249
57.260 7.625092
57.265 7.353495
57.270 7.428337
57.275 7.486835
57.280 7.757777
57.285 7.88781
57.290 8.139649
57.295 8.299657
57.300 8.986876
57.305 8.887733
57.310 8.870967
57.315 8.936793
57.320 8.89748
57.325 8.773759
57.330 8.842424
57.335 8.699399
57.340 9.164296
57.345 9.187047
57.350 8.761445
57.355 9.022979
57.360 9.150162
57.365 8.990425
57.370 8.649597
57.375 8.242691
57.380 8.394529
57.385 8.475546
57.390 8.468824
57.395 8.262449
57.400 8.294754
57.405 8.257316
57.410 8.34032
57.415 8.034191
57.420 8.152906
57.425 8.264952
57.430 8.111569
57.435 7.884035
57.440 8.132321
57.445 8.179457
57.450 8.025528
57.455 7.658978
57.460 7.167063
57.465 7.412168
57.470 8.00937
57.475 8.07192
57.480 8.303072
57.485 8.460402
57.490 8.710972
57.495 8.884086
57.500 9.00639
57.505 8.68928
57.510 8.577743
57.515 8.573893
57.520 8.829329
57.525 8.980692
57.530 9.185239
57.535 9.159235
57.540 8.792962
57.545 8.875587
57.550 8.590251
57.555 8.807679
57.560 8.467224
57.565 8.453333
57.570 8.529972
57.575 8.85323
57.580 8.829645
57.585 8.841154
57.590 8.391351
57.595 8.898726
57.600 8.898718
57.605 8.92519
57.610 8.955091
57.615 8.954124
57.620 9.243423
57.625 9.461012
57.630 9.058001
57.635 9.501884
57.640 9.770815
57.645 10.021823
57.650 9.95928
57.655 9.9433
57.660 9.530906
57.665 9.463977
57.670 8.981091
57.675 8.643411
57.680 8.603084
57.685 8.916181
57.690 8.857371
57.695 9.276148
57.700 9.029209
57.705 8.662346
57.710 8.294017
57.715 7.760697
57.720 7.516008
57.725 7.767018
57.730 7.563844
57.735 7.777705
57.740 8.289642
57.745 8.922643
57.750 9.458352
57.755 9.279978
57.760 9.225294
57.765 9.357573
57.770 9.163168
57.775 8.864867
57.780 8.684942
57.785 8.34207
57.790 8.545941
57.795 8.535721
57.800 8.255083
57.805 8.436831
57.810 8.729876
57.815 8.426827
57.820 7.995367
57.825 7.668365
57.830 7.501423
57.835 7.716187
57.840 7.677789
57.845 7.516868
57.850 7.785296
57.855 8.064031
57.860 8.425337
57.865 8.504237
57.870 8.320405
57.875 8.118142
57.880 8.148007
57.885 8.027424
57.890 8.0969
57.895 8.162761
57.900 8.749406
57.905 9.191417
57.910 9.674478
57.915 9.757849
57.920 10.369907
57.925 10.521218
57.930 10.348367
57.935 10.324339
57.940 9.93909
57.945 9.478621
57.950 9.061831
57.955 8.260746
57.960 8.044281
57.965 7.701268
57.970 7.437134
57.975 7.882272
57.980 8.536416
57.985 9.016185
57.990 9.771585
57.995 9.838342
58.000 9.88953
58.005 9.366918
58.010 8.800364
58.015 8.603124
58.020 8.605457
58.025 8.098009
58.030 8.118341
58.035 8.370599
58.040 8.660377
58.045 8.966342
58.050 8.961716
58.055 8.918522
58.060 9.039981
58.065 9.002371
58.070 9.172513
58.075 9.607601
58.080 9.523666
58.085 9.704925
58.090 9.836498
58.095 10.206036
58.100 10.55469
58.105 10.431265
58.110 10.286438
58.115 10.501668
58.120 10.167961
58.125 10.15155
58.130 9.907023
58.135 9.613837
58.140 9.860503
58.145 9.668823
58.150 9.273137
58.155 8.849178
58.160 8.48647
58.165 8.737592
58.170 8.795033
58.175 8.325735
58.180 8.664865
58.185 9.335546
58.190 9.859595
58.195 10.025312
58.200 10.033291
58.205 10.31869
58.210 10.907559
58.215 10.656515
58.220 10.136044
58.225 9.920634
58.230 9.646461
58.235 9.515416
58.240 8.862602
58.245 8.677717
58.250 8.943737
58.255 9.094579
58.260 9.205332
58.265 9.510995
58.270 10.017882
58.275 10.155927
58.280 10.042181
58.285 10.020814
58.290 9.958829
58.295 10.191617
58.300 10.377282
58.305 10.26666
58.310 10.080166
58.315 10.185888
58.320 9.795133
58.325 9.451908
58.330 9.331839
58.335 9.16752
58.340 8.752503
58.345 8.989962
58.350 9.267054
58.355 10.295407
58.360 10.912487
58.365 10.6892
58.370 10.696838
58.375 11.322049
58.380 11.61323
58.385 11.49264
58.390 11.330621
58.395 11.931611
58.400 13.00346
58.405 13.203597
58.410 13.529724
58.415 13.768519
58.420 13.751173
58.425 13.559936
58.430 13.363894
58.435 13.646727
58.440 13.673388
58.445 13.102486
58.450 12.895903
58.455 13.075978
58.460 13.278749
58.465 13.452855
58.470 13.438555
58.475 13.704637
58.480 13.914886
58.485 13.769546
58.490 13.954822
58.495 13.634635
58.500 13.260762
58.505 12.848839
58.510 12.56201
58.515 12.643826
58.520 13.011982
58.525 13.266679
58.530 13.31458
58.535 13.299564
58.540 13.616524
58.545 13.643813
58.550 13.898017
58.555 14.183882
58.560 14.619197
58.565 14.965681
58.570 14.896321
58.575 15.183427
58.580 15.092933
58.585 14.907289
58.590 14.82967
58.595 14.631009
58.600 14.839156
58.605 15.507102
58.610 15.844777
58.615 16.546925
58.620 16.627287
58.625 16.823063
58.630 17.202015
58.635 18.30374
58.640 18.308956
58.645 17.783695
58.650 17.98284
58.655 18.480814
58.660 18.322601
58.665 18.165344
58.670 17.660818
58.675 17.96586
58.680 18.480764
58.685 18.163183
58.690 18.018269
58.695 18.84481
58.700 18.713438
58.705 18.075485
58.710 17.793972
58.715 17.937786
58.720 17.961023
58.725 18.046015
58.730 17.215712
58.735 16.980003
58.740 16.862432
58.745 16.409456
58.750 16.608984
58.755 17.054939
58.760 16.896706
58.765 16.915583
58.770 17.435408
58.775 17.755053
58.780 17.894503
58.785 17.527168
58.790 17.591009
58.795 17.044928
58.800 16.921541
58.805 16.634705
58.810 16.540245
58.815 16.747637
58.820 16.241207
58.825 15.868859
58.830 16.297716
58.835 15.689694
58.840 15.290751
58.845 14.998742
58.850 14.45615
58.855 14.271917
58.860 14.363913
58.865 14.403027
58.870 14.826247
58.875 15.090737
58.880 14.628137
58.885 14.667592
58.890 14.674632
58.895 14.246554
58.900 13.271968
58.905 12.881408
58.910 12.828746
58.915 13.307576
58.920 12.966759
58.925 12.950667
58.930 13.572838
58.935 13.94899
58.940 13.39177
58.945 13.215967
58.950 12.537636
58.955 12.398561
58.960 12.201701
58.965 11.818509
58.970 12.165807
58.975 12.42068
58.980 12.535457
58.985 13.014331
58.990 13.079932
58.995 12.650666
59.000 12.139525
59.005 12.083953
59.010 11.744191
59.015 11.037098
59.020 10.756231
59.025 10.244994
59.030 10.030448
59.035 10.041089
59.040 10.023867
59.045 10.048479
59.050 9.99396
59.055 9.722013
59.060 9.681976
59.065 9.676799
59.070 9.869266
59.075 9.068083
59.080 8.335349
59.085 8.282711
59.090 8.461665
59.095 8.676213
59.100 9.042616
59.105 8.626421
59.110 8.863029
59.115 9.5393
59.120 9.715393
59.125 9.769506
59.130 10.162148
59.135 10.066856
59.140 10.480918
59.145 10.754483
59.150 10.562489
59.155 10.442636
59.160 10.758463
59.165 10.686643
59.170 10.611593
59.175 10.237052
59.180 10.213512
59.185 10.175812
59.190 10.275716
59.195 9.911009
59.200 9.552837
59.205 9.732381
59.210 9.922205
59.215 9.518581
59.220 9.384523
59.225 9.202557
59.230 9.152705
59.235 9.117407
59.240 8.87575
59.245 8.612712
59.250 8.852263
59.255 8.873464
59.260 9.117779
59.265 9.117338
59.270 9.041951
59.275 9.346572
59.280 9.474798
59.285 9.799103
59.290 9.853176
59.295 9.35564
59.300 9.454993
59.305 9.640938
59.310 9.390056
59.315 9.509232
59.320 9.574871
59.325 9.529338
59.330 9.639453
59.335 9.761372
59.340 9.598953
59.345 10.016987
59.350 9.738793
59.355 8.945911
59.360 9.227945
59.365 9.397243
59.370 9.290799
59.375 9.468404
59.380 9.077818
59.385 9.15469
59.390 9.043974
59.395 8.782977
59.400 8.543214
59.405 8.471951
59.410 8.316234
59.415 8.563498
59.420 8.871526
59.425 9.449003
59.430 9.53357
59.435 9.965238
59.440 10.085927
59.445 10.131464
59.450 10.24972
59.455 10.061646
59.460 10.445592
59.465 10.4308
59.470 10.486193
59.475 10.613183
59.480 10.639174
59.485 10.655949
59.490 10.910754
59.495 10.380214
59.500 10.101606
59.505 9.704623
59.510 9.582823
59.515 9.600218
59.520 9.237537
59.525 8.827825
59.530 8.7865
59.535 8.949579
59.540 8.959115
59.545 8.531302
59.550 8.189518
59.555 8.315999
59.560 8.735682
59.565 8.81523
59.570 8.735439
59.575 8.865608
59.580 9.128136
59.585 9.544659
59.590 9.354168
59.595 9.328438
59.600 9.516184
59.605 9.588324
59.610 9.790259
59.615 10.066095
59.620 9.791967
59.625 9.644246
59.630 9.751163
59.635 10.146018
59.640 10.073922
59.645 9.983745
59.650 9.722702
59.655 9.78296
59.660 9.833001
59.665 9.551033
59.670 9.101064
59.675 8.929166
59.680 8.723405
59.685 8.774792
59.690 8.558107
59.695 8.562862
59.700 8.529023
59.705 8.743905
59.710 8.88674
59.715 8.841215
59.720 8.924776
59.725 9.415785
59.730 9.505581
59.735 9.61124
59.740 9.231314
59.745 9.361186
59.750 9.300264
59.755 8.846935
59.760 8.858754
59.765 8.733401
59.770 8.452271
59.775 8.866965
59.780 8.514393
59.785 8.697474
59.790 9.239145
59.795 8.985671
59.800 9.245464
59.805 8.961164
59.810 8.708259
59.815 9.180928
59.820 9.168729
59.825 8.411493
59.830 8.065912
59.835 8.024069
59.840 8.331103
59.845 8.336828
59.850 7.874043
59.855 7.959256
59.860 8.650785
59.865 9.043759
59.870 9.165345
59.875 9.94014
59.880 9.949251
59.885 10.216803
59.890 10.481737
59.895 10.686214
59.900 10.873292
59.905 11.069667
59.910 10.722114
59.915 10.874265
59.920 10.974567
59.925 11.021303
59.930 10.984098
59.935 10.79371
59.940 10.367613
59.945 9.959494
59.950 9.495857
59.955 9.379515
59.960 9.00087
59.965 8.245818
59.970 8.372973
59.975 8.538264
59.980 8.668488
59.985 8.70533
59.990 8.743299
59.995 9.016837
60.000 9.446814
60.005 9.569991
60.010 9.545848
60.015 9.675899
60.020 9.949644
60.025 10.215981
60.030 10.324371
60.035 10.238582
60.040 10.2375
60.045 10.299751
60.050 11.089425
60.055 10.890822
60.060 10.462558
60.065 10.104791
60.070 10.188058
60.075 9.971929
60.080 9.739141
60.085 9.332605
60.090 9.447038
60.095 9.61333
60.100 9.535907
60.105 9.283996
60.110 8.824956
60.115 8.648561
60.120 8.840894
60.125 8.483532
60.130 8.273343
60.135 8.404502
60.140 8.803859
60.145 9.129019
60.150 9.176407
60.155 8.863535
60.160 8.947944
60.165 9.007426
60.170 8.862678
60.175 8.946564
60.180 8.964963
60.185 9.135334
60.190 9.626593
60.195 9.746133
60.200 9.49901
60.205 9.479669
60.210 9.155781
60.215 9.2206
60.220 8.899623
60.225 8.58405
60.230 8.952889
60.235 9.116677
60.240 8.892115
60.245 9.17084
60.250 8.929828
60.255 8.732575
60.260 8.470429
60.265 8.138709
60.270 8.508404
60.275 8.708367
60.280 8.747029
60.285 9.190082
60.290 9.514989
60.295 9.744853
60.300 9.62916
60.305 9.516192
60.310 9.526267
60.315 9.67951
60.320 9.29642
60.325 9.076048
60.330 9.136865
60.335 9.279793
60.340 9.222949
60.345 9.215743
60.350 9.459015
60.355 9.804152
60.360 9.797647
60.365 10.02984
60.370 10.155952
60.375 10.399356
60.380 10.370636
60.385 10.127341
60.390 10.094668
60.395 10.879086
60.400 10.618599
60.405 10.486512
60.410 10.038685
60.415 10.170506
60.420 10.095246
60.425 9.937869
60.430 9.214899
60.435 8.921251
60.440 8.539286
60.445 8.818899
60.450 8.880189
60.455 8.837601
60.460 8.702212
60.465 8.60123
60.470 8.727129
60.475 8.82085
60.480 8.730691
60.485 8.12547
60.490 8.076015
60.495 8.164815
60.500 8.142238
60.505 8.144436
60.510 8.331701
60.515 8.360152
60.520 8.379663
60.525 8.468087
60.530 8.524576
60.535 8.449558
60.540 8.832325
60.545 8.953106
60.550 8.840294
60.555 9.055966
60.560 8.661882
60.565 8.770215
60.570 9.126555
60.575 8.816592
60.580 8.460098
60.585 8.640553
60.590 8.846454
60.595 9.478212
60.600 9.433916
60.605 9.161042
60.610 9.633128
60.615 10.099699
60.620 10.054424
60.625 9.804601
60.630 9.651309
60.635 9.659537
60.640 9.956171
60.645 9.366864
60.650 8.808722
60.655 8.801588
60.660 9.173357
60.665 9.115969
60.670 9.358069
60.675 9.506283
60.680 9.694012
60.685 10.317165
60.690 10.402942
60.695 10.086013
60.700 9.855027
60.705 9.795399
60.710 9.865816
60.715 9.427096
60.720 9.098864
60.725 8.808194
60.730 8.892179
60.735 9.298859
60.740 9.301701
60.745 9.061283
60.750 9.858938
60.755 10.222577
60.760 10.422748
60.765 10.286334
60.770 9.928926
60.775 9.836332
60.780 9.422477
60.785 8.817525
60.790 8.588498
60.795 8.669997
60.800 9.221809
60.805 9.532385
60.810 9.976738
60.815 10.467731
60.820 11.045594
60.825 11.486307
60.830 11.655205
60.835 11.377287
60.840 11.010374
60.845 10.596377
60.850 10.432319
60.855 10.022959
60.860 9.588105
60.865 9.359646
60.870 9.449896
60.875 9.448782
60.880 8.943957
60.885 8.714518
60.890 8.518818
60.895 8.238376
60.900 7.930268
60.905 7.601542
60.910 8.268415
60.915 8.587311
60.920 8.95301
60.925 9.335979
60.930 9.684851
60.935 9.860056
60.940 9.904046
60.945 9.590243
60.950 9.84125
60.955 9.561268
60.960 9.33962
60.965 9.124364
60.970 8.892679
60.975 8.82276
60.980 8.839421
60.985 9.000507
60.990 9.393481
60.995 9.367014
61.000 10.164568
61.005 10.48234
61.010 10.736031
61.015 10.772589
61.020 10.881787
61.025 10.446574
61.030 10.412603
61.035 10.399083
61.040 10.658661
61.045 10.980321
61.050 11.381684
61.055 10.967554
61.060 11.481803
61.065 11.62148
61.070 11.523517
61.075 11.178591
61.080 10.349523
61.085 10.017794
61.090 10.615707
61.095 10.544453
61.100 10.68864
61.105 10.432017
61.110 10.071003
61.115 10.061774
61.120 9.797132
61.125 8.94652
61.130 8.653816
61.135 8.137369
61.140 7.588707
61.145 7.490623
61.150 7.253088
61.155 7.742586
61.160 8.966339
61.165 9.330232
61.170 9.673636
61.175 10.309433
61.180 10.467978
61.185 10.379156
61.190 9.636786
61.195 8.972779
61.200 9.308999
61.205 9.71264
61.210 9.954412
61.215 10.389484
61.220 10.894089
61.225 11.120587
61.230 11.094897
61.235 10.542931
61.240 10.113867
61.245 10.014327
61.250 10.085221
61.255 10.293231
61.260 10.33569
61.265 9.933882
61.270 9.56539
61.275 9.683434
61.280 9.505295
61.285 9.5096
61.290 9.450464
61.295 9.531359
61.300 9.686563
61.305 10.120299
61.310 9.937231
61.315 10.320657
61.320 10.479082
61.325 10.407948
61.330 10.362192
61.335 10.717675
61.340 11.107409
61.345 11.172361
61.350 10.576299
61.355 10.442673
61.360 10.547565
61.365 10.854367
61.370 10.568221
61.375 10.343668
61.380 10.466353
61.385 11.082293
61.390 11.068243
61.395 10.630181
61.400 10.450032
61.405 10.709476
61.410 10.434608
61.415 10.35625
61.420 9.748207
61.425 9.541508
61.430 9.792559
61.435 9.671935
61.440 9.179321
61.445 9.173223
61.450 9.292973
61.455 9.695566
61.460 9.650401
61.465 9.363344
61.470 9.188571
61.475 9.184983
61.480 8.993685
61.485 8.865982
61.490 8.667164
61.495 8.742467
61.500 9.197927
61.505 9.593953
61.510 10.137812
61.515 10.234859
61.520 9.628678
61.525 9.743761
61.530 10.122309
61.535 10.545781
61.540 10.776899
61.545 10.64725
61.550 10.922476
61.555 11.460785
61.560 11.84433
61.565 11.962938
61.570 11.848981
61.575 11.514654
61.580 11.461527
61.585 11.141213
61.590 11.042737
61.595 10.49795
61.600 9.800347
61.605 9.371092
61.610 9.305714
61.615 9.004723
61.620 9.07017
61.625 9.101441
61.630 9.415817
61.635 9.609302
61.640 9.923782
61.645 9.725772
61.650 9.777216
61.655 9.830786
61.660 9.715998
61.665 9.436131
61.670 9.139314
61.675 9.205327
61.680 9.581423
61.685 9.600413
61.690 9.539459
61.695 8.963223
61.700 9.380714
61.705 9.555966
61.710 9.130178
61.715 9.53318
61.720 9.904293
61.725 9.940628
61.730 10.064748
61.735 9.543865
61.740 9.46878
61.745 9.624419
61.750 9.44334
61.755 9.079589
61.760 9.216058
61.765 9.350978
61.770 9.629156
61.775 9.979776
61.780 9.86868
61.785 9.457178
61.790 9.556382
61.795 9.660473
61.800 9.386245
61.805 9.533142
61.810 9.415102
61.815 9.224766
61.820 9.704925
61.825 9.90676
61.830 9.840661
61.835 10.013934
61.840 9.946178
61.845 9.843471
61.850 10.045861
61.855 10.117471
61.860 9.820652
61.865 9.763455
61.870 9.791142
61.875 9.813326
61.880 9.97288
61.885 9.975622
61.890 9.523757
61.895 9.293299
61.900 9.240363
61.905 9.420804
61.910 9.455959
61.915 9.445039
61.920 9.739789
61.925 9.988142
61.930 10.175804
61.935 10.480732
61.940 10.623632
61.945 10.328783
61.950 10.313526
61.955 10.103886
61.960 10.157765
61.965 10.123046
61.970 9.837288
61.975 9.450177
61.980 9.480247
61.985 9.607091
61.990 9.886777
61.995 9.982604
62.000 10.294332
62.005 10.412465
62.010 10.286551
62.015 10.205606
62.020 9.764353
62.025 9.423439
62.030 9.297792
62.035 8.908368
62.040 8.825209
62.045 9.039823
62.050 9.296679
62.055 9.636804
62.060 9.60393
62.065 9.2426
62.070 9.306547
62.075 9.298822
62.080 9.299878
62.085 9.466284
62.090 9.563067
62.095 10.066195
62.100 10.238275
62.105 10.693524
62.110 10.633102
62.115 10.526286
62.120 10.098793
62.125 9.606113
62.130 9.537781
62.135 9.743264
62.140 9.705923
62.145 9.594806
62.150 9.448432
62.155 9.692037
62.160 9.821917
62.165 10.278186
62.170 10.445313
62.175 10.375896
62.180 10.738702
62.185 10.900126
62.190 10.874928
62.195 10.69323
62.200 10.19857
62.205 9.785313
62.210 9.701855
62.215 9.584513
62.220 9.812789
62.225 10.34315
62.230 10.556373
62.235 10.696152
62.240 11.001166
62.245 11.272066
62.250 11.520858
62.255 11.130016
62.260 10.421829
62.265 10.212654
62.270 10.112928
62.275 9.929652
62.280 9.669812
62.285 9.588611
62.290 9.501475
62.295 9.842799
62.300 10.172066
62.305 10.356915
62.310 10.307628
62.315 10.183459
62.320 9.999396
62.325 10.107682
62.330 10.247527
62.335 10.327789
62.340 10.237206
62.345 10.191792
62.350 10.2009
62.355 10.069761
62.360 10.229866
62.365 10.327849
62.370 9.654601
62.375 9.305469
62.380 9.286463
62.385 9.463847
62.390 9.779158
62.395 9.541562
62.400 9.021953
62.405 8.948115
62.410 9.01449
62.415 9.040019
62.420 9.059056
62.425 9.236581
62.430 9.510216
62.435 9.771924
62.440 10.608032
62.445 11.144728
62.450 11.343637
62.455 11.391152
62.460 11.044732
62.465 10.918115
62.470 10.934843
62.475 10.36029
62.480 10.09337
62.485 10.28723
62.490 10.487725
62.495 10.522731
62.500 10.67919
62.505 10.523998
62.510 10.559556
62.515 10.270852
62.520 9.80728
62.525 9.384652
62.530 9.226541
62.535 9.223668
62.540 9.512924
62.545 9.760796
62.550 9.845746
62.555 9.918212
62.560 9.803838
62.565 9.452956
62.570 9.198057
62.575 9.046535
62.580 9.24985
62.585 9.688748
62.590 10.095794
62.595 10.52142
62.600 11.165019
62.605 11.187561
62.610 11.208891
62.615 11.038283
62.620 10.475527
62.625 10.097872
62.630 9.935107
62.635 9.586194
62.640 9.616932
62.645 9.422669
62.650 9.417645
62.655 9.561218
62.660 9.793088
62.665 10.251112
62.670 10.389215
62.675 10.442799
62.680 10.443702
62.685 10.614743
62.690 10.976628
62.695 11.22314
62.700 11.164609
62.705 11.013133
62.710 10.854247
62.715 11.053288
62.720 10.844516
62.725 10.425017
62.730 10.082306
62.735 10.221379
62.740 10.143109
62.745 10.229732
62.750 10.003474
62.755 10.296371
62.760 10.931086
62.765 11.390546
62.770 11.231672
62.775 11.281126
62.780 11.542882
62.785 11.735811
62.790 11.751527
62.795 11.609365
62.800 11.720783
62.805 12.544282
62.810 12.811917
62.815 12.610689
62.820 12.824402
62.825 12.812449
62.830 12.674626
62.835 12.551361
62.840 11.967892
62.845 11.714322
62.850 11.675527
62.855 11.226273
62.860 10.701276
62.865 10.603525
62.870 10.137054
62.875 9.899652
62.880 9.715408
62.885 9.11828
62.890 8.700697
62.895 9.006845
62.900 9.182995
62.905 9.304526
62.910 9.276409
62.915 9.912015
62.920 10.461963
62.925 10.938877
62.930 10.479573
62.935 10.064202
62.940 10.080606
62.945 9.99227
62.950 10.00903
62.955 10.049473
62.960 10.309149
62.965 10.854288
62.970 10.940313
62.975 11.242349
62.980 11.62395
62.985 11.53545
62.990 11.695459
62.995 11.627246
63.000 11.741902
63.005 11.846314
63.010 11.843042
63.015 11.994466
63.020 11.60534
63.025 11.928291
63.030 11.978621
63.035 12.103537
63.040 12.093845
63.045 12.077676
63.050 11.674316
63.055 11.704542
63.060 10.978048
63.065 10.613247
63.070 10.257302
63.075 10.432898
63.080 10.597075
63.085 10.254668
63.090 10.112261
63.095 10.309884
63.100 10.457478
63.105 10.538013
63.110 10.632834
63.115 10.490205
63.120 10.821473
63.125 11.066524
63.130 11.220044
63.135 11.793747
63.140 11.944885
63.145 11.918335
63.150 11.92573
63.155 12.079989
63.160 12.539165
63.165 12.389727
63.170 11.704692
63.175 11.421849
63.180 11.103045
63.185 10.947122
63.190 10.545552
63.195 10.212191
63.200 10.132472
63.205 10.349333
63.210 10.684418
63.215 10.710499
63.220 10.774152
63.225 10.92715
63.230 10.699759
63.235 10.670527
63.240 10.560884
63.245 9.984672
63.250 10.106673
63.255 10.354123
63.260 10.254814
63.265 10.436416
63.270 10.136015
63.275 9.845371
63.280 10.366405
63.285 10.499104
63.290 10.416542
63.295 10.762581
63.300 10.851579
63.305 11.473686
63.310 11.934488
63.315 11.750219
63.320 11.353891
63.325 11.444194
63.330 11.397913
63.335 11.348207
63.340 10.836912
63.345 10.190478
63.350 10.172771
63.355 10.166987
63.360 10.227515
63.365 10.232959
63.370 10.310681
63.375 11.05581
63.380 11.517277
63.385 11.878389
63.390 12.228143
63.395 12.262285
63.400 12.236767
63.405 11.765186
63.410 11.799045
63.415 11.908568
63.420 11.951692
63.425 11.692275
63.430 11.438204
63.435 11.567406
63.440 11.977777
63.445 11.67104
63.450 11.796105
63.455 11.244894
63.460 11.196177
63.465 11.075066
63.470 11.377127
63.475 11.449347
63.480 11.241498
63.485 10.764829
63.490 11.346926
63.495 11.723959
63.500 11.950397
63.505 11.336682
63.510 11.197639
63.515 11.574442
63.520 11.83034
63.525 11.683646
63.530 11.638904
63.535 11.42908
63.540 11.977504
63.545 11.904773
63.550 11.536228
63.555 11.492079
63.560 11.221616
63.565 11.213347
63.570 11.181057
63.575 10.755054
63.580 10.506518
63.585 10.652561
63.590 10.551863
63.595 10.969938
63.600 10.879292
63.605 11.000645
63.610 11.118421
63.615 11.323575
63.620 11.420938
63.625 11.174312
63.630 10.833798
63.635 10.935579
63.640 10.784658
63.645 10.990953
63.650 11.225947
63.655 11.475988
63.660 11.960614
63.665 12.578684
63.670 12.683681
63.675 13.076497
63.680 12.942303
63.685 12.948371
63.690 12.75413
63.695 12.196515
63.700 11.569578
63.705 11.751224
63.710 11.516506
63.715 12.099438
63.720 12.472551
63.725 12.523459
63.730 12.785819
63.735 12.452613
63.740 12.145415
63.745 12.103872
63.750 11.480188
63.755 10.846491
63.760 10.594014
63.765 10.355857
63.770 10.62363
63.775 11.142897
63.780 11.210065
63.785 11.063519
63.790 11.411947
63.795 11.802
63.800 11.917243
63.805 11.822617
63.810 11.569959
63.815 11.835069
63.820 11.767668
63.825 11.229959
63.830 11.14461
63.835 11.537512
63.840 11.340844
63.845 11.213885
63.850 11.310139
63.855 11.596735
63.860 11.579917
63.865 11.444041
63.870 11.188509
63.875 11.644252
63.880 11.316807
63.885 11.245887
63.890 11.328116
63.895 11.536973
63.900 11.479013
63.905 11.172161
63.910 10.839185
63.915 10.877149
63.920 11.12377
63.925 11.388099
63.930 11.551515
63.935 11.952765
63.940 12.545167
63.945 12.898563
63.950 12.901503
63.955 12.773163
63.960 12.863091
63.965 13.146485
63.970 13.283587
63.975 12.731203
63.980 12.578234
63.985 13.287099
63.990 13.278988
63.995 13.540159
64.000 13.528478
64.005 13.74843
64.010 14.399632
64.015 15.343287
64.020 15.382253
64.025 15.162198
64.030 15.012678
64.035 15.121565
64.040 14.952856
64.045 15.056511
64.050 15.30065
64.055 15.15274
64.060 15.325445
64.065 15.070991
64.070 15.224712
64.075 15.290654
64.080 15.127337
64.085 14.855836
64.090 15.055335
64.095 14.926293
64.100 14.718108
64.105 14.66532
64.110 14.476846
64.115 14.543995
64.120 14.532652
64.125 14.742751
64.130 15.261759
64.135 15.993345
64.140 16.489017
64.145 17.076756
64.150 17.721071
64.155 17.813406
64.160 18.087723
64.165 18.247478
64.170 18.401781
64.175 18.3402
64.180 18.51635
64.185 18.410774
64.190 18.230038
64.195 18.022049
64.200 18.048498
64.205 17.922752
64.210 17.98794
64.215 17.750761
64.220 17.899347
64.225 18.287718
64.230 18.275284
64.235 18.415627
64.240 18.445072
64.245 18.53875
64.250 18.621536
64.255 18.556952
64.260 18.839563
64.265 19.489374
64.270 19.905432
64.275 20.244564
64.280 20.669235
64.285 21.267906
64.290 22.208887
64.295 22.406641
64.300 22.50716
64.305 23.029135
64.310 23.30411
64.315 23.314348
64.320 23.711243
64.325 24.344528
64.330 24.878418
64.335 24.961334
64.340 25.006071
64.345 25.330685
64.350 25.887886
64.355 25.700924
64.360 25.173552
64.365 24.513454
64.370 24.581173
64.375 24.614624
64.380 25.201002
64.385 25.571287
64.390 25.783333
64.395 26.848488
64.400 28.594784
64.405 29.558374
64.410 29.682117
64.415 28.963499
64.420 28.815853
64.425 28.997538
64.430 28.152136
64.435 27.333664
64.440 27.090355
64.445 27.566612
64.450 27.134754
64.455 27.156021
64.460 27.463827
64.465 28.693943
64.470 28.847851
64.475 28.716406
64.480 28.48222
64.485 28.992296
64.490 28.87715
64.495 29.118954
64.500 28.581312
64.505 28.689943
64.510 28.57901
64.515 27.996819
64.520 27.97751
64.525 27.533781
64.530 27.030695
64.535 26.899569
64.540 26.24283
64.545 26.264555
64.550 26.472628
64.555 26.239332
64.560 25.443787
64.565 24.43861
64.570 23.763887
64.575 24.136284
64.580 23.824951
64.585 23.27607
64.590 23.330244
64.595 23.680815
64.600 23.878735
64.605 23.099346
64.610 22.132925
64.615 21.783354
64.620 21.885862
64.625 21.680443
64.630 21.452023
64.635 20.866982
64.640 21.256685
64.645 21.548864
64.650 21.217833
64.655 20.974367
64.660 20.47056
64.665 20.040119
64.670 20.567646
64.675 19.989292
64.680 19.424517
64.685 19.274035
64.690 19.267601
64.695 19.16851
64.700 19.009825
64.705 18.730206
64.710 18.698093
64.715 18.614685
64.720 18.661285
64.725 17.702202
64.730 17.748556
64.735 17.672739
64.740 17.074486
64.745 16.682913
64.750 16.330257
64.755 15.303791
64.760 15.735545
64.765 15.452688
64.770 15.262217
64.775 15.269306
64.780 14.547274
64.785 14.135381
64.790 14.19437
64.795 13.851052
64.800 13.668645
64.805 13.395242
64.810 13.557092
64.815 14.073149
64.820 14.564006
64.825 15.33925
64.830 15.488483
64.835 15.745734
64.840 16.221357
64.845 15.975824
64.850 15.793754
64.855 15.787047
64.860 15.12776
64.865 14.636029
64.870 14.061543
64.875 13.675189
64.880 13.73738
64.885 13.465657
64.890 13.573697
64.895 14.151381
64.900 14.535825
64.905 15.024041
64.910 15.05988
64.915 14.902426
64.920 15.388443
64.925 15.088511
64.930 14.604106
64.935 14.695881
64.940 14.310315
64.945 14.538013
64.950 14.78738
64.955 14.828122
64.960 15.09529
64.965 15.354361
64.970 15.629292
64.975 15.936969
64.980 16.605524
64.985 16.639442
64.990 17.231632
64.995 17.176968
65.000 17.062298
65.005 16.779119
65.010 16.938963
65.015 16.567804
65.020 17.009392
65.025 17.03845
65.030 17.116224
65.035 17.585171
65.040 18.138193
65.045 18.894106
65.050 19.099989
65.055 19.402363
65.060 19.378775
65.065 19.696724
65.070 19.68788
65.075 19.784248
65.080 20.108295
65.085 20.477222
65.090 21.09169
65.095 21.377161
65.100 21.691744
65.105 22.388725
65.110 22.445078
65.115 21.940485
65.120 22.132231
65.125 22.668859
65.130 23.335249
65.135 23.187159
65.140 23.156189
65.145 23.62999
65.150 23.32884
65.155 22.773775
65.160 22.701839
65.165 22.889292
65.170 23.19796
65.175 23.497778
65.180 23.396265
65.185 24.269085
65.190 24.469425
65.195 23.773907
65.200 24.087162
65.205 24.506308
65.210 24.930653
65.215 25.152866
65.220 24.792923
65.225 24.797531
65.230 24.771126
65.235 24.574268
65.240 24.58168
65.245 23.737251
65.250 23.56493
65.255 23.813942
65.260 23.99033
65.265 23.760166
65.270 23.537258
65.275 23.007641
65.280 23.165936
65.285 23.158237
65.290 22.890949
65.295 22.909719
65.300 23.019592
65.305 22.695942
65.310 22.485109
65.315 21.985584
65.320 21.885601
65.325 22.590694
65.330 22.403011
65.335 22.387079
65.340 22.39028
65.345 22.778919
65.350 23.554298
65.355 23.944595
65.360 23.757727
65.365 23.627523
65.370 23.943754
65.375 23.894995
65.380 22.89152
65.385 22.026508
65.390 21.420803
65.395 21.133764
65.400 21.605143
65.405 21.633831
65.410 21.886959
65.415 22.277714
65.420 22.337103
65.425 21.841825
65.430 21.878223
65.435 21.923332
65.440 22.020153
65.445 22.110298
65.450 22.010025
65.455 22.035393
65.460 22.534861
65.465 21.868
65.470 21.033245
65.475 21.247501
65.480 21.174347
65.485 21.150389
65.490 21.085505
65.495 21.38949
65.500 22.198372
65.505 22.128201
65.510 21.304985
65.515 20.951712
65.520 20.296061
65.525 19.454756
65.530 19.202793
65.535 19.238489
65.540 19.586737
65.545 19.421862
65.550 19.645864
65.555 20.305792
65.560 21.254402
65.565 21.054003
65.570 21.022375
65.575 20.859825
65.580 20.798954
65.585 20.656668
65.590 20.73802
65.595 20.432497
65.600 20.224369
65.605 19.781372
65.610 19.358894
65.615 19.151815
65.620 19.196745
65.625 19.056988
65.630 18.922262
65.635 19.185308
65.640 19.466763
65.645 19.891682
65.650 20.365192
65.655 20.367449
65.660 20.784494
65.665 20.992001
65.670 20.673267
65.675 20.649315
65.680 20.522221
65.685 19.867615
65.690 20.49272
65.695 20.159962
65.700 20.045465
65.705 19.967453
65.710 19.382755
65.715 19.125881
65.720 19.255543
65.725 18.478519
65.730 18.343826
65.735 18.590513
65.740 19.114954
65.745 19.521343
65.750 19.158192
65.755 19.113632
65.760 19.015579
65.765 19.194534
65.770 19.393803
65.775 19.014368
65.780 18.992878
65.785 19.745533
65.790 20.316387
65.795 20.093767
65.800 19.577641
65.805 19.047096
65.810 19.01997
65.815 18.785856
65.820 18.619133
65.825 18.205503
65.830 18.506456
65.835 18.475943
65.840 18.201878
65.845 17.93409
65.850 17.923912
65.855 17.487106
65.860 17.101337
65.865 16.300232
65.870 16.532364
65.875 16.775574
65.880 17.38225
65.885 17.701305
65.890 17.019886
65.895 17.321104
65.900 17.702007
65.905 17.406206
65.910 17.556257
65.915 17.40204
65.920 17.403118
65.925 17.653349
65.930 17.1287
65.935 16.814322
65.940 16.586826
65.945 15.996211
65.950 15.48222
65.955 15.723536
65.960 16.87031
65.965 17.230915
65.970 17.910172
65.975 17.704098
65.980 17.799082
65.985 18.009514
65.990 17.553637
65.995 17.081032
66.000 17.07115
66.005 16.818514
66.010 17.023705
66.015 17.04147
66.020 16.844631
66.025 16.752251
66.030 16.658598
66.035 16.501068
66.040 16.278482
66.045 15.816697
66.050 15.177694
66.055 14.542749
66.060 14.385773
66.065 14.572882
66.070 14.75574
66.075 15.137217
66.080 15.420266
66.085 16.064632
66.090 16.265846
66.095 15.668198
66.100 14.933228
66.105 14.441851
66.110 14.105974
66.115 13.866061
66.120 13.535835
66.125 13.634733
66.130 13.890872
66.135 14.015886
66.140 14.227437
66.145 14.063798
66.150 14.131182
66.155 13.815615
66.160 13.659914
66.165 13.854039
66.170 13.896754
66.175 13.305728
66.180 13.003799
66.185 12.883519
66.190 13.488779
66.195 13.627513
66.200 13.195868
66.205 12.960618
66.210 13.363314
66.215 13.544644
66.220 13.813233
66.225 13.178675
66.230 12.800888
66.235 13.185573
66.240 13.552596
66.245 13.415063
66.250 13.237068
66.255 13.250474
66.260 13.66015
66.265 13.995504
66.270 13.454578
66.275 13.079475
66.280 13.139517
66.285 12.858267
66.290 12.717766
66.295 12.671395
66.300 12.425309
66.305 12.34374
66.310 12.172555
66.315 11.771512
66.320 11.887895
66.325 11.403489
66.330 11.487428
66.335 11.47555
66.340 11.517868
66.345 11.379558
66.350 11.803508
66.355 11.808822
66.360 11.953753
66.365 11.971966
66.370 12.144927
66.375 12.222836
66.380 11.973307
66.385 12.054382
66.390 12.832542
66.395 13.01981
66.400 12.607022
66.405 12.550881
66.410 12.737268
66.415 13.322586
66.420 13.229825
66.425 12.228493
66.430 11.858288
66.435 12.207226
66.440 12.429191
66.445 12.330352
66.450 12.128722
66.455 12.450667
66.460 13.031009
66.465 12.820969
66.470 12.589301
66.475 12.258028
66.480 12.4722
66.485 12.368116
66.490 11.865552
66.495 11.776968
66.500 12.615272
66.505 12.559755
66.510 12.845856
66.515 12.985031
66.520 13.404857
66.525 13.417466
66.530 13.043542
66.535 12.7519
66.540 12.824382
66.545 12.596851
66.550 12.768023
66.555 12.496947
66.560 12.762614
66.565 13.100995
66.570 13.205245
66.575 13.074328
66.580 13.166103
66.585 13.064197
66.590 13.489189
66.595 13.775529
66.600 14.209919
66.605 14.562055
66.610 14.938635
66.615 15.019853
66.620 14.675473
66.625 14.588656
66.630 13.961291
66.635 13.387211
66.640 13.091914
66.645 13.294181
66.650 13.262991
66.655 13.486898
66.660 13.003819
66.665 12.77758
66.670 12.755643
66.675 12.658907
66.680 12.251996
66.685 11.925005
66.690 11.724215
66.695 11.543897
66.700 11.910135
66.705 12.012685
66.710 11.700658
66.715 11.376031
66.720 11.404367
66.725 11.476137
66.730 12.111689
66.735 11.792996
66.740 11.959637
66.745 12.169312
66.750 12.136723
66.755 12.213403
66.760 12.132423
66.765 12.04375
66.770 12.310112
66.775 12.399988
66.780 12.634011
66.785 12.860551
66.790 12.534966
66.795 12.597287
66.800 12.303487
66.805 12.379473
66.810 11.776154
66.815 11.625764
66.820 12.015768
66.825 12.03401
66.830 11.837712
66.835 11.579509
66.840 10.909485
66.845 11.357541
66.850 11.770429
66.855 11.396559
66.860 11.523192
66.865 11.176115
66.870 11.35659
66.875 12.048841
66.880 11.877251
66.885 11.594006
66.890 11.576133
66.895 11.769639
66.900 11.895135
66.905 12.440009
66.910 12.054947
66.915 12.287562
66.920 12.311084
66.925 12.489328
66.930 11.901568
66.935 12.064385
66.940 11.597651
66.945 12.026679
66.950 11.748844
66.955 11.949955
66.960 11.967413
66.965 12.873806
66.970 12.943666
66.975 12.592155
66.980 12.223748
66.985 11.937199
66.990 11.755535
66.995 11.239292
67.000 11.176774
67.005 11.268235
67.010 11.349975
67.015 11.517316
67.020 11.341721
67.025 11.024975
67.030 11.148651
67.035 10.856486
67.040 10.97327
67.045 11.406778
67.050 11.59847
67.055 11.992444
67.060 12.262456
67.065 12.139884
67.070 11.858335
67.075 11.461308
67.080 11.370299
67.085 10.813631
67.090 10.929422
67.095 10.919316
67.100 11.613559
67.105 11.921221
67.110 11.954456
67.115 12.062427
67.120 12.263785
67.125 12.145063
67.130 12.930269
67.135 12.558597
67.140 12.010568
67.145 11.73993
67.150 11.867773
67.155 12.162121
67.160 12.085107
67.165 11.521195
67.170 11.719229
67.175 12.28601
67.180 12.341809
67.185 12.292155
67.190 12.840572
67.195 12.824965
67.200 12.370324
67.205 12.28215
67.210 12.284208
67.215 12.189865
67.220 12.079947
67.225 11.582859
67.230 11.83983
67.235 11.925148
67.240 11.619905
67.245 11.524153
67.250 12.072687
67.255 12.023141
67.260 11.978345
67.265 11.925337
67.270 12.253698
67.275 12.702765
67.280 12.996676
67.285 12.682623
67.290 12.428622
67.295 12.204954
67.300 12.278906
67.305 12.176007
67.310 12.269511
67.315 12.100601
67.320 12.356341
67.325 12.256106
67.330 12.495212
67.335 12.375502
67.340 11.695031
67.345 11.29215
67.350 11.062146
67.355 11.011277
67.360 11.125021
67.365 10.870726
67.370 11.027171
67.375 11.467612
67.380 11.750716
67.385 11.623653
67.390 11.239578
67.395 11.022644
67.400 11.094028
67.405 10.5449
67.410 10.396815
67.415 10.016218
67.420 10.177351
67.425 10.359146
67.430 10.391948
67.435 10.224718
67.440 10.526912
67.445 10.970067
67.450 11.221499
67.455 11.169905
67.460 11.435714
67.465 11.833875
67.470 11.993614
67.475 11.871037
67.480 11.69256
67.485 11.957244
67.490 12.441149
67.495 12.200553
67.500 12.101377
67.505 12.282758
67.510 12.364473
67.515 12.788116
67.520 13.199705
67.525 13.055202
67.530 12.904428
67.535 12.313235
67.540 12.550358
67.545 12.778316
67.550 12.008239
67.555 11.656028
67.560 11.913914
67.565 11.889637
67.570 12.471053
67.575 12.051993
67.580 11.84376
67.585 12.015597
67.590 12.304137
67.595 12.206436
67.600 12.122425
67.605 12.139117
67.610 12.827219
67.615 13.354195
67.620 13.615359
67.625 13.368368
67.630 13.576144
67.635 13.984776
67.640 13.957241
67.645 13.269475
67.650 12.843508
67.655 12.518044
67.660 12.218554
67.665 12.081268
67.670 12.314359
67.675 12.527675
67.680 12.891673
67.685 13.182434
67.690 13.096533
67.695 13.155816
67.700 12.822251
67.705 12.486628
67.710 12.51701
67.715 12.544411
67.720 12.577021
67.725 12.605858
67.730 12.433789
67.735 12.274866
67.740 11.889775
67.745 11.272736
67.750 10.992784
67.755 10.762389
67.760 11.07807
67.765 11.676464
67.770 12.267685
67.775 12.302484
67.780 12.769038
67.785 12.773703
67.790 12.655592
67.795 11.875183
67.800 12.180847
67.805 12.456806
67.810 12.389072
67.815 11.898387
67.820 12.122975
67.825 12.072683
67.830 12.164384
67.835 11.224487
67.840 10.612854
67.845 10.707222
67.850 10.903349
67.855 11.183897
67.860 11.620809
67.865 11.628472
67.870 12.062455
67.875 12.761754
67.880 13.314388
67.885 13.189529
67.890 12.875773
67.895 12.970766
67.900 13.179869
67.905 13.346069
67.910 13.098238
67.915 12.807821
67.920 12.608388
67.925 12.271774
67.930 12.312808
67.935 12.669246
67.940 12.287672
67.945 12.250105
67.950 12.440706
67.955 12.553981
67.960 13.041781
67.965 12.651736
67.970 12.150345
67.975 12.206941
67.980 11.978979
67.985 12.140869
67.990 12.290117
67.995 11.951777
68.000 11.721797
68.005 11.642861
68.010 12.068692
68.015 12.387208
68.020 12.037536
68.025 12.081015
68.030 12.567176
68.035 13.047297
68.040 13.497873
68.045 13.029349
68.050 12.683019
68.055 12.996454
68.060 12.894839
68.065 12.725191
68.070 12.089691
68.075 11.758344
68.080 11.839442
68.085 11.973595
68.090 11.965034
68.095 11.760228
68.100 12.014081
68.105 12.332653
68.110 12.354994
68.115 12.235213
68.120 12.051217
68.125 12.394993
68.130 12.838775
68.135 12.806513
68.140 12.850739
68.145 12.811571
68.150 12.672832
68.155 12.971525
68.160 12.550507
68.165 12.68042
68.170 12.877321
68.175 13.925786
68.180 14.390967
68.185 14.345709
68.190 14.348535
68.195 14.212494
68.200 13.589178
68.205 13.155947
68.210 12.398416
68.215 12.36201
68.220 12.66103
68.225 12.785109
68.230 12.923329
68.235 13.782701
68.240 14.39309
68.245 14.938741
68.250 15.299741
68.255 15.37109
68.260 15.874797
68.265 16.42515
68.270 16.1884
68.275 15.91426
68.280 15.438944
68.285 16.010857
68.290 16.359232
68.295 16.354053
68.300 15.869071
68.305 15.764182
68.310 16.537874
68.315 17.002842
68.320 16.744799
68.325 16.875519
68.330 16.963522
68.335 16.94294
68.340 16.886225
68.345 16.592041
68.350 16.458748
68.355 16.293928
68.360 16.183657
68.365 16.223749
68.370 16.991831
68.375 16.857121
68.380 17.225492
68.385 17.655407
68.390 17.850048
68.395 17.701044
68.400 17.695415
68.405 17.805689
68.410 17.682209
68.415 17.190758
68.420 17.667143
68.425 17.988417
68.430 17.886169
68.435 18.355917
68.440 18.700819
68.445 19.721687
68.450 20.366594
68.455 20.446171
68.460 20.516024
68.465 20.976355
68.470 21.21722
68.475 21.317453
68.480 21.646616
68.485 21.918005
68.490 21.848883
68.495 22.481039
68.500 22.574579
68.505 22.444292
68.510 22.096714
68.515 21.465725
68.520 20.873642
68.525 20.852539
68.530 20.773869
68.535 20.316175
68.540 20.10837
68.545 20.079353
68.550 20.265352
68.555 21.15913
68.560 21.539841
68.565 21.297108
68.570 21.20517
68.575 21.031036
68.580 21.059866
68.585 20.463169
68.590 19.204716
68.595 18.474848
68.600 18.517214
68.605 19.159779
68.610 19.806456
68.615 20.273136
68.620 20.803471
68.625 21.294121
68.630 21.204794
68.635 20.740995
68.640 20.643227
68.645 19.836502
68.650 19.102079
68.655 18.640141
68.660 18.177862
68.665 18.656395
68.670 19.213169
68.675 19.383804
68.680 19.471268
68.685 19.559179
68.690 20.086832
68.695 20.671261
68.700 20.817896
68.705 20.581209
68.710 20.596148
68.715 20.881048
68.720 21.252003
68.725 21.071417
68.730 20.112091
68.735 19.496342
68.740 19.001345
68.745 18.775835
68.750 18.839041
68.755 18.576982
68.760 18.585497
68.765 19.188749
68.770 19.438215
68.775 19.896105
68.780 20.046267
68.785 20.034815
68.790 20.23575
68.795 20.125853
68.800 20.362249
68.805 20.56546
68.810 20.622429
68.815 20.844915
68.820 20.598639
68.825 20.398111
68.830 19.915533
68.835 19.684929
68.840 19.523878
68.845 19.371527
68.850 18.940464
68.855 19.112579
68.860 19.343418
68.865 19.447809
68.870 18.844147
68.875 18.405441
68.880 18.229853
68.885 18.969061
68.890 18.81793
68.895 19.323702
68.900 19.461889
68.905 20.300579
68.910 20.075922
68.915 19.506037
68.920 19.264633
68.925 19.406231
68.930 18.855793
68.935 18.839125
68.940 18.848892
68.945 19.080332
68.950 18.751879
68.955 18.118353
68.960 17.859356
68.965 17.74338
68.970 17.239426
68.975 17.012184
68.980 17.535341
68.985 18.078661
68.990 17.859997
68.995 17.547522
69.000 17.87785
69.005 18.341549
69.010 18.309721
69.015 17.62248
69.020 17.194321
69.025 17.595161
69.030 17.096687
69.035 16.868849
69.040 16.079275
69.045 15.557541
69.050 15.891577
69.055 16.481533
69.060 16.659639
69.065 17.042402
69.070 16.972582
69.075 17.565691
69.080 17.784454
69.085 17.263739
69.090 16.294302
69.095 16.421162
69.100 16.953814
69.105 17.382948
69.110 17.212479
69.115 17.036705
69.120 17.39356
69.125 17.673683
69.130 17.226812
69.135 16.38229
69.140 16.228951
69.145 16.802788
69.150 16.987167
69.155 17.067879
69.160 17.114588
69.165 17.275341
69.170 17.058527
69.175 15.682208
69.180 15.289482
69.185 15.018264
69.190 14.763747
69.195 14.793658
69.200 14.919588
69.205 14.933414
69.210 15.680403
69.215 15.501273
69.220 15.393763
69.225 15.096937
69.230 14.800933
69.235 14.601081
69.240 14.907996
69.245 14.985642
69.250 14.876315
69.255 15.039577
69.260 15.068397
69.265 14.729016
69.270 14.703118
69.275 14.354126
69.280 13.790312
69.285 13.717038
69.290 13.80524
69.295 14.082949
69.300 14.598324
69.305 14.97304
69.310 14.76554
69.315 14.676776
69.320 14.039177
69.325 13.781962
69.330 13.500978
69.335 13.383715
69.340 12.94471
69.345 13.341012
69.350 13.405854
69.355 13.171124
69.360 13.274234
69.365 13.065726
69.370 12.930432
69.375 13.657838
69.380 13.732018
69.385 13.689291
69.390 13.741818
69.395 13.509304
69.400 13.038426
69.405 12.574467
69.410 11.891891
69.415 11.495083
69.420 11.750324
69.425 12.193886
69.430 12.859385
69.435 13.377728
69.440 13.579756
69.445 13.682158
69.450 14.401291
69.455 15.007372
69.460 14.665959
69.465 14.379415
69.470 14.318389
69.475 13.792379
69.480 13.612503
69.485 12.754328
69.490 11.834815
69.495 12.015683
69.500 12.041263
69.505 12.300735
69.510 12.713936
69.515 12.424708
69.520 12.289604
69.525 12.408881
69.530 12.389903
69.535 12.138486
69.540 11.597824
69.545 11.036494
69.550 10.920746
69.555 11.042158
69.560 11.206828
69.565 10.928875
69.570 11.482633
69.575 12.179802
69.580 12.614456
69.585 13.693854
69.590 13.799717
69.595 13.767321
69.600 13.895941
69.605 13.803645
69.610 13.809531
69.615 13.757738
69.620 13.174973
69.625 13.152909
69.630 12.867113
69.635 12.784008
69.640 12.45546
69.645 12.405276
69.650 12.757571
69.655 12.842792
69.660 12.956963
69.665 12.884101
69.670 13.203821
69.675 13.438612
69.680 13.777094
69.685 13.467357
69.690 13.137561
69.695 13.247199
69.700 13.043988
69.705 12.83564
69.710 12.693634
69.715 12.329526
69.720 12.248151
69.725 12.156435
69.730 12.231448
69.735 12.82968
69.740 12.930571
69.745 12.774244
69.750 12.734653
69.755 12.851335
69.760 13.057549
69.765 13.23636
69.770 13.275449
69.775 12.928246
69.780 13.033422
69.785 13.423351
69.790 13.185191
69.795 12.826148
69.800 12.460505
69.805 12.039655
69.810 11.893143
69.815 11.063127
69.820 10.777125
69.825 10.947903
69.830 11.051012
69.835 11.464012
69.840 11.59562
69.845 11.846244
69.850 12.401086
69.855 12.42788
69.860 12.564402
69.865 12.146442
69.870 11.789258
69.875 12.186067
69.880 11.947377
69.885 11.800724
69.890 11.848634
69.895 11.929104
69.900 12.442094
69.905 12.883183
69.910 12.870768
69.915 13.376578
69.920 13.240605
69.925 12.99619
69.930 13.385161
69.935 13.204425
69.940 13.02561
69.945 12.888034
69.950 12.452951
69.955 12.87659
69.960 13.051561
69.965 13.082339
69.970 12.811729
69.975 12.527403
69.980 12.48762
69.985 12.522738
69.990 12.520942
69.995 12.146036
70.000 11.822483
70.005 11.583535
70.010 11.59735
70.015 11.899245
70.020 11.878077
70.025 11.296822
70.030 10.973011
70.035 11.450084
70.040 11.933775
70.045 11.526034
70.050 11.076685
70.055 10.980748
70.060 11.539421
70.065 12.449363
70.070 12.676479
70.075 12.582438
70.080 13.004118
70.085 13.429657
70.090 13.963803
70.095 13.978905
70.100 13.088772
70.105 12.233631
70.110 12.778328
70.115 13.042186
70.120 12.406245
70.125 12.438822
70.130 12.074016
70.135 12.538997
70.140 13.393708
70.145 12.928309
70.150 12.648676
70.155 12.721267
70.160 12.426602
70.165 12.7609
70.170 12.574802
70.175 11.796537
70.180 11.347919
70.185 11.208237
70.190 11.226339
70.195 11.193499
70.200 10.84025
70.205 10.556441
70.210 10.375237
70.215 10.967226
70.220 11.164005
70.225 11.218637
70.230 11.244639
70.235 11.166966
70.240 11.180683
70.245 11.574084
70.250 11.76398
70.255 12.163636
70.260 12.399064
70.265 12.291498
70.270 13.010077
70.275 13.341856
70.280 13.080087
70.285 12.901984
70.290 12.698873
70.295 12.566231
70.300 12.482734
70.305 11.964826
70.310 11.402155
70.315 11.77552
70.320 11.586275
70.325 11.364537
70.330 11.524721
70.335 11.952103
70.340 11.867504
70.345 12.523989
70.350 12.481565
70.355 12.698896
70.360 12.801161
70.365 12.935957
70.370 13.247314
70.375 13.723604
70.380 13.291964
70.385 13.120082
70.390 13.546996
70.395 13.440337
70.400 13.193906
70.405 13.068115
70.410 13.113358
70.415 13.013963
70.420 12.901369
70.425 12.239863
70.430 12.691378
70.435 12.638816
70.440 13.008538
70.445 12.870361
70.450 12.84016
70.455 12.988204
70.460 13.178708
70.465 12.661752
70.470 12.184205
70.475 11.39024
70.480 11.470084
70.485 11.113059
70.490 11.008373
70.495 10.940485
70.500 11.187532
70.505 11.355616
70.510 11.561359
70.515 11.406435
70.520 12.227997
70.525 12.236924
70.530 12.32021
70.535 12.197308
70.540 12.134468
70.545 12.231915
70.550 12.091155
70.555 11.487693
70.560 11.421497
70.565 11.595451
70.570 12.242261
70.575 12.65978
70.580 12.552088
70.585 13.074175
70.590 12.941613
70.595 13.19005
70.600 12.959329
70.605 12.403891
70.610 12.278528
70.615 12.188499
70.620 12.370123
70.625 12.601644
70.630 12.34132
70.635 11.854063
70.640 11.812967
70.645 11.902162
70.650 11.773825
70.655 11.507842
70.660 11.467369
70.665 11.453924
70.670 11.581924
70.675 11.518783
70.680 11.541941
70.685 11.611278
70.690 12.039402
70.695 12.20196
70.700 12.543406
70.705 12.956079
70.710 12.982511
70.715 12.845808
70.720 12.772345
70.725 12.408497
70.730 12.269225
70.735 11.860253
70.740 11.749075
70.745 11.857749
70.750 12.494389
70.755 12.538497
70.760 12.776043
70.765 12.862576
70.770 13.093114
70.775 12.905025
70.780 12.486402
70.785 12.447016
70.790 12.431928
70.795 11.771034
70.800 11.44576
70.805 11.414553
70.810 11.436217
70.815 11.648943
70.820 11.401304
70.825 11.262221
70.830 11.523669
70.835 11.474206
70.840 11.200347
70.845 11.303568
70.850 11.068114
70.855 10.494105
70.860 10.220379
70.865 10.099832
70.870 10.236513
70.875 10.721422
70.880 10.937539
70.885 11.084541
70.890 11.087641
70.895 11.419697
70.900 11.804964
70.905 12.192961
70.910 12.282245
70.915 12.054564
70.920 12.172025
70.925 12.324672
70.930 12.2391
70.935 12.040386
70.940 11.772352
70.945 11.74439
70.950 11.801562
70.955 11.903172
70.960 12.30689
70.965 12.253057
70.970 12.192674
70.975 11.611116
70.980 11.384219
70.985 11.121207
70.990 11.391678
70.995 11.491621
71.000 11.508693
71.005 11.790367
71.010 12.284941
71.015 12.484236
71.020 12.801591
71.025 12.695843
71.030 12.491791
71.035 12.733818
71.040 12.775236
71.045 12.908685
71.050 12.257468
71.055 11.751813
71.060 11.632226
71.065 11.600796
71.070 11.55659
71.075 11.513443
71.080 11.112538
71.085 11.718722
71.090 12.504013
71.095 12.770405
71.100 12.651381
71.105 12.218459
71.110 11.782577
71.115 11.974119
71.120 11.803315
71.125 11.678284
71.130 11.700115
71.135 11.787138
71.140 12.218457
71.145 12.37065
71.150 12.391922
71.155 11.846122
71.160 11.726702
71.165 11.911523
71.170 12.296124
71.175 12.16943
71.180 11.744344
71.185 11.769135
71.190 12.185414
71.195 11.864976
71.200 11.56386
71.205 11.21203
71.210 11.79746
71.215 12.313152
71.220 12.242858
71.225 12.356303
71.230 11.717542
71.235 11.92193
71.240 11.885628
71.245 11.536804
71.250 11.441256
71.255 11.981112
71.260 12.229311
71.265 12.661685
71.270 12.886318
71.275 12.736181
71.280 12.813498
71.285 13.02193
71.290 12.773585
71.295 12.516062
71.300 12.240409
71.305 12.25942
71.310 12.634665
71.315 12.815583
71.320 12.660365
71.325 12.206454
71.330 12.246792
71.335 12.247204
71.340 11.693639
71.345 11.235464
71.350 10.687937
71.355 10.637579
71.360 10.860522
71.365 10.561291
71.370 10.761644
71.375 11.013543
71.380 10.948142
71.385 10.935202
71.390 10.609004
71.395 10.679805
71.400 11.63565
71.405 11.425869
71.410 11.489439
71.415 11.930234
71.420 12.137683
71.425 12.701603
71.430 12.384049
71.435 11.804893
71.440 11.522275
71.445 11.375103
71.450 11.182654
71.455 11.373901
71.460 10.870692
71.465 10.679281
71.470 11.180354
71.475 11.820878
71.480 11.67578
71.485 11.613957
71.490 11.367916
71.495 11.871136
71.500 12.57055
71.505 12.863496
71.510 12.903828
71.515 13.321918
71.520 13.011609
71.525 12.962119
71.530 12.759563
71.535 12.032228
71.540 11.301541
71.545 11.023055
71.550 10.791921
71.555 11.072822
71.560 10.872124
71.565 10.538502
71.570 10.303315
71.575 10.716558
71.580 10.933059
71.585 11.272594
71.590 11.636528
71.595 11.914387
71.600 11.851023
71.605 11.931884
71.610 11.207792
71.615 10.602674
71.620 10.354289
71.625 9.99643
71.630 10.316114
71.635 11.138304
71.640 11.332398
71.645 12.129947
71.650 12.31076
71.655 12.219826
71.660 12.430815
71.665 12.206258
71.670 11.559042
71.675 12.034423
71.680 11.977818
71.685 12.133923
71.690 12.146564
71.695 11.994585
71.700 12.071853
71.705 12.387863
71.710 11.922274
71.715 11.714585
71.720 11.867638
71.725 11.960175
71.730 11.814387
71.735 12.123765
71.740 12.258288
71.745 12.870512
71.750 13.634281
71.755 13.2801
71.760 12.950665
71.765 13.136957
71.770 12.858173
71.775 12.152494
71.780 12.09334
71.785 12.247279
71.790 12.588275
71.795 12.359068
71.800 11.911911
71.805 12.379227
71.810 12.621441
71.815 12.456896
71.820 12.438946
71.825 12.575457
71.830 12.823105
71.835 12.493004
71.840 12.337803
71.845 12.653633
71.850 12.323445
71.855 11.850408
71.860 12.104306
71.865 12.368416
71.870 12.431664
71.875 12.609778
71.880 12.488997
71.885 12.630072
71.890 12.468089
71.895 12.961089
71.900 12.854686
71.905 12.643147
71.910 12.092403
71.915 11.620737
71.920 11.808846
71.925 11.585463
71.930 10.711701
71.935 10.884071
71.940 11.262939
71.945 11.882741
71.950 11.891531
71.955 11.936275
71.960 12.080099
71.965 12.454418
71.970 12.776337
71.975 12.840844
71.980 12.958859
71.985 13.085836
71.990 12.570415
71.995 12.243266
72.000 11.894876
72.005 11.7178
72.010 11.284805
72.015 11.159672
72.020 11.072651
72.025 11.442121
72.030 11.832129
72.035 12.229588
72.040 12.330626
72.045 12.080995
72.050 12.314055
72.055 12.660631
72.060 12.379808
72.065 12.205494
72.070 12.036265
72.075 12.209841
72.080 12.199275
72.085 12.017609
72.090 12.361909
72.095 13.057995
72.100 13.060774
72.105 12.729837
72.110 12.681104
72.115 13.124459
72.120 12.843354
72.125 12.046499
72.130 11.923223
72.135 12.066607
72.140 12.096831
72.145 11.892793
72.150 11.403925
72.155 11.274903
72.160 11.337056
72.165 11.296462
72.170 11.260843
72.175 11.577043
72.180 11.73007
72.185 11.899482
72.190 12.499773
72.195 12.771785
72.200 12.473095
72.205 12.408157
72.210 12.375049
72.215 12.402557
72.220 12.484192
72.225 12.847425
72.230 13.343359
72.235 13.924303
72.240 13.790973
72.245 13.837932
72.250 13.746605
72.255 12.993282
72.260 12.618773
72.265 12.085227
72.270 11.788772
72.275 12.119658
72.280 11.672493
72.285 11.456354
72.290 11.720974
72.295 12.159564
72.300 12.055112
72.305 11.843359
72.310 11.73254
72.315 12.343914
72.320 13.109377
72.325 12.989247
72.330 12.464074
72.335 12.46414
72.340 12.556324
72.345 12.655766
72.350 12.47935
72.355 12.477315
72.360 12.698534
72.365 12.937229
72.370 13.204564
72.375 12.95744
72.380 13.28961
72.385 12.722032
72.390 12.498594
72.395 12.138103
72.400 12.091766
72.405 12.33989
72.410 12.414255
72.415 12.228239
72.420 12.547359
72.425 12.536336
72.430 12.633377
72.435 12.293495
72.440 11.580297
72.445 11.483615
72.450 11.668921
72.455 11.486741
72.460 11.250237
72.465 11.84687
72.470 12.048994
72.475 12.125967
72.480 12.523854
72.485 12.60012
72.490 12.85417
72.495 12.603123
72.500 11.96625
72.505 11.662852
72.510 11.539306
72.515 11.417344
72.520 11.287763
72.525 11.372419
72.530 11.282743
72.535 11.398665
72.540 11.935847
72.545 12.483382
72.550 12.602475
72.555 13.222809
72.560 13.086566
72.565 13.354172
72.570 13.455407
72.575 13.265988
72.580 12.862097
72.585 12.829101
72.590 12.785265
72.595 12.845699
72.600 13.050586
72.605 12.981898
72.610 13.027025
72.615 13.263281
72.620 12.754717
72.625 12.512959
72.630 12.621772
72.635 12.353597
72.640 11.891351
72.645 11.427071
72.650 11.195197
72.655 11.309793
72.660 10.940104
72.665 11.137593
72.670 10.98288
72.675 11.051531
72.680 11.091096
72.685 10.88575
72.690 10.769432
72.695 10.985119
72.700 10.986354
72.705 11.04052
72.710 11.345387
72.715 11.702112
72.720 11.889116
72.725 12.004182
72.730 12.104093
72.735 12.20239
72.740 12.115432
72.745 11.784736
72.750 11.509378
72.755 11.113495
72.760 10.254662
72.765 9.941928
72.770 9.846363
72.775 9.982303
72.780 10.541231
72.785 10.394008
72.790 11.191566
72.795 11.136786
72.800 10.808082
72.805 10.769056
72.810 10.760757
72.815 10.569555
72.820 10.709866
72.825 10.941747
72.830 11.787228
72.835 12.361031
72.840 12.46365
72.845 11.990535
72.850 11.974248
72.855 11.683466
72.860 11.051755
72.865 10.427512
72.870 10.536016
72.875 10.980325
72.880 11.269802
72.885 11.231761
72.890 11.315255
72.895 11.483665
72.900 11.949197
72.905 11.697687
72.910 11.794162
72.915 11.734981
72.920 11.790554
72.925 11.921385
72.930 11.641128
72.935 11.758151
72.940 11.669003
72.945 11.510139
72.950 11.513169
72.955 11.517538
72.960 11.748901
72.965 12.011619
72.970 11.628706
72.975 11.523585
72.980 11.403027
72.985 11.085284
72.990 11.035021
72.995 10.888073
73.000 10.642189
