!@!!GADDS PLOTSO FILE: Chi integration type
!@!!Title/SampleName: map-ee
!@!!Comment: ?
!@!!User: Bruker Instrument Administrator
!@!!Site: University of Illinois Chicago
!@!!Frame: map-ee_01_000.gfrm
!@!!Wavelengths    1.54184   1.54056   1.54439
!@!!Frame angles: 2Theta: 63.000 Omega: 50.000 Phi: 0.000 Chi: 90.000
!@!!Integration range: 2Theta: 53.000 to 73.000  Gamma: -105.000 to -75.000
!@!!Integration method: bin normalized
!@!N
!@!SS
!@!M
!@!L 0.0 0.0 0.0 0.0
!@!XDegrees
!@!YCounts
53.000 6.660182
53.005 6.876969
53.010 6.527281
53.015 6.331362
53.020 6.417059
53.025 6.290448
53.030 5.993545
53.035 5.69327
53.040 5.168283
53.045 5.372389
53.050 5.757374
53.055 5.815257
53.060 6.247554
53.065 6.522491
53.070 6.684754
53.075 6.901998
53.080 6.667841
53.085 6.158015
53.090 6.226797
53.095 6.425776
53.100 6.691778
53.105 6.627766
53.110 6.523949
53.115 6.751044
53.120 6.898783
53.125 6.744185
53.130 6.360741
53.135 6.532294
53.140 7.046987
53.145 7.357934
53.150 7.436986
53.155 7.078389
53.160 6.867695
53.165 6.897738
53.170 6.297067
53.175 5.611522
53.180 5.354412
53.185 5.806707
53.190 6.466082
53.195 6.460263
53.200 6.630567
53.205 6.998533
53.210 7.302078
53.215 6.953807
53.220 6.822548
53.225 6.756384
53.230 6.967192
53.235 6.940109
53.240 7.019331
53.245 7.121787
53.250 7.171277
53.255 6.934368
53.260 6.731059
53.265 6.405729
53.270 6.663176
53.275 6.871451
53.280 6.670782
53.285 6.323197
53.290 6.295355
53.295 6.479494
53.300 6.792635
53.305 6.77021
53.310 6.985956
53.315 7.329218
53.320 7.835315
53.325 8.165819
53.330 8.195015
53.335 7.88767
53.340 7.397222
53.345 6.723513
53.350 6.767509
53.355 6.451498
53.360 6.771923
53.365 6.568908
53.370 6.492612
53.375 6.499629
53.380 6.865976
53.385 6.895443
53.390 7.180587
53.395 7.095339
53.400 7.538808
53.405 7.79524
53.410 8.008594
53.415 8.080847
53.420 7.979959
53.425 7.869192
53.430 7.554173
53.435 7.636518
53.440 7.598935
53.445 7.593643
53.450 7.719564
53.455 7.910939
53.460 7.97317
53.465 7.533288
53.470 7.185762
53.475 7.264451
53.480 7.107397
53.485 7.18692
53.490 7.213734
53.495 7.385671
53.500 7.6327
53.505 7.375319
53.510 7.465584
53.515 7.298092
53.520 6.985685
53.525 6.855854
53.530 7.182455
53.535 7.306973
53.540 7.700428
53.545 7.683444
53.550 7.806921
53.555 7.44603
53.560 6.890635
53.565 6.565397
53.570 6.291763
53.575 6.109672
53.580 6.16594
53.585 6.224108
53.590 6.644657
53.595 6.708307
53.600 6.624524
53.605 7.005583
53.610 6.993119
53.615 7.344617
53.620 7.585094
53.625 7.584189
53.630 7.847202
53.635 8.038736
53.640 8.031127
53.645 8.077892
53.650 8.029003
53.655 8.041632
53.660 8.244151
53.665 7.789381
53.670 7.2184
53.675 7.156489
53.680 7.023723
53.685 6.846072
53.690 6.472836
53.695 6.162956
53.700 6.434816
53.705 6.921742
53.710 6.803264
53.715 6.494947
53.720 6.633249
53.725 6.778389
53.730 6.690584
53.735 6.696046
53.740 6.426816
53.745 6.546042
53.750 6.762617
53.755 6.64657
53.760 6.724753
53.765 7.063138
53.770 7.10315
53.775 7.468998
53.780 7.622124
53.785 7.250703
53.790 7.321448
53.795 7.705111
53.800 7.663525
53.805 8.043627
53.810 7.796464
53.815 7.557236
53.820 7.691979
53.825 7.965065
53.830 8.270973
53.835 8.517493
53.840 8.052413
53.845 8.101946
53.850 8.304619
53.855 8.292069
53.860 7.718181
53.865 7.441681
53.870 7.452486
53.875 7.654529
53.880 7.607764
53.885 7.581327
53.890 7.190489
53.895 7.10822
53.900 6.743591
53.905 6.520046
53.910 6.702185
53.915 6.608456
53.920 6.670559
53.925 6.594398
53.930 6.497149
53.935 6.36338
53.940 6.558568
53.945 6.254288
53.950 6.311723
53.955 6.325049
53.960 6.357223
53.965 6.287806
53.970 6.643887
53.975 6.820676
53.980 6.982743
53.985 6.728008
53.990 7.123817
53.995 7.419921
54.000 7.614038
54.005 7.625408
54.010 7.462006
54.015 7.929097
54.020 8.176691
54.025 8.522109
54.030 9.108393
54.035 8.898296
54.040 8.555614
54.045 8.600043
54.050 8.636523
54.055 8.426825
54.060 7.6394
54.065 7.232986
54.070 7.786563
54.075 7.763461
54.080 7.581468
54.085 7.287898
54.090 7.453149
54.095 7.849802
54.100 7.997703
54.105 7.836191
54.110 7.638494
54.115 7.626918
54.120 7.667493
54.125 7.682383
54.130 7.731571
54.135 7.725621
54.140 7.830389
54.145 7.86191
54.150 7.864281
54.155 8.067462
54.160 8.342384
54.165 8.391025
54.170 8.305648
54.175 8.156054
54.180 8.149667
54.185 8.124475
54.190 8.106704
54.195 7.792582
54.200 7.631553
54.205 7.641871
54.210 7.867102
54.215 8.4925
54.220 8.674683
54.225 8.464999
54.230 8.086007
54.235 8.36711
54.240 8.354581
54.245 8.291399
54.250 7.640672
54.255 7.509847
54.260 7.956503
54.265 8.575935
54.270 8.46218
54.275 8.673874
54.280 8.651862
54.285 9.116741
54.290 9.319044
54.295 9.153713
54.300 8.628692
54.305 8.48455
54.310 8.44835
54.315 8.523043
54.320 8.239017
54.325 7.835127
54.330 8.16891
54.335 8.49879
54.340 8.486249
54.345 8.724176
54.350 8.903317
54.355 8.987179
54.360 8.832842
54.365 8.461028
54.370 8.407651
54.375 7.942269
54.380 7.361724
54.385 7.1759
54.390 7.402117
54.395 7.778655
54.400 7.767443
54.405 7.646069
54.410 8.195708
54.415 8.366652
54.420 8.177524
54.425 8.014009
54.430 8.146528
54.435 8.264533
54.440 8.40947
54.445 8.236609
54.450 7.735465
54.455 7.4547
54.460 7.522877
54.465 7.235921
54.470 7.304921
54.475 7.21738
54.480 7.55442
54.485 8.033894
54.490 8.27214
54.495 8.589911
54.500 9.237821
54.505 9.818678
54.510 10.369549
54.515 10.391832
54.520 10.423444
54.525 10.282124
54.530 10.051628
54.535 9.615487
54.540 9.054388
54.545 8.659082
54.550 8.441915
54.555 8.553154
54.560 8.543689
54.565 8.291796
54.570 8.339185
54.575 8.357798
54.580 8.026606
54.585 8.018712
54.590 7.903157
54.595 7.905528
54.600 8.235153
54.605 8.099591
54.610 8.388062
54.615 8.334155
54.620 8.284243
54.625 8.427576
54.630 8.322784
54.635 8.180661
54.640 8.276748
54.645 8.175582
54.650 8.210568
54.655 8.054894
54.660 8.459268
54.665 8.872672
54.670 8.95
54.675 8.695668
54.680 8.776175
54.685 9.012331
54.690 9.411508
54.695 8.890447
54.700 8.280969
54.705 8.208711
54.710 8.106544
54.715 7.986412
54.720 7.743723
54.725 7.381051
54.730 7.586514
54.735 7.514375
54.740 7.73711
54.745 7.733776
54.750 7.701921
54.755 7.613501
54.760 7.523018
54.765 7.441107
54.770 7.693882
54.775 7.905374
54.780 8.418149
54.785 8.519079
54.790 8.492748
54.795 8.731749
54.800 8.508278
54.805 8.328787
54.810 8.332452
54.815 8.190511
54.820 8.653833
54.825 9.125022
54.830 9.301618
54.835 9.394134
54.840 9.156794
54.845 8.464504
54.850 8.056487
54.855 7.639312
54.860 7.146834
54.865 6.864661
54.870 7.220823
54.875 7.548874
54.880 7.789967
54.885 8.023015
54.890 7.896807
54.895 8.023563
54.900 7.927616
54.905 7.740915
54.910 7.849814
54.915 7.812952
54.920 8.434803
54.925 8.914301
54.930 9.115899
54.935 9.056073
54.940 9.247547
54.945 9.760366
54.950 10.469254
54.955 9.883157
54.960 9.699394
54.965 9.953843
54.970 9.680346
54.975 9.391327
54.980 8.775827
54.985 8.277893
54.990 8.401784
54.995 8.402882
55.000 8.257415
55.005 8.636312
55.010 8.402671
55.015 8.854873
55.020 9.003438
55.025 9.131779
55.030 8.740831
55.035 8.922709
55.040 9.058514
55.045 9.228503
55.050 8.566298
55.055 7.958563
55.060 7.88972
55.065 8.124778
55.070 8.230317
55.075 7.962211
55.080 7.970357
55.085 8.47147
55.090 9.301279
55.095 9.390862
55.100 9.778818
55.105 9.802212
55.110 10.101497
55.115 10.255368
55.120 9.865811
55.125 9.423981
55.130 9.120941
55.135 8.30137
55.140 8.001204
55.145 7.724913
55.150 7.968747
55.155 8.140399
55.160 8.974277
55.165 9.378987
55.170 9.675595
55.175 9.567923
55.180 10.006848
55.185 9.806643
55.190 9.478445
55.195 8.772243
55.200 8.828178
55.205 8.986446
55.210 9.512538
55.215 9.089491
55.220 9.144835
55.225 9.623855
55.230 9.136553
55.235 8.777357
55.240 8.69357
55.245 8.625546
55.250 8.692807
55.255 8.373451
55.260 8.504637
55.265 8.800095
55.270 8.800254
55.275 8.623337
55.280 8.895699
55.285 8.938532
55.290 8.668532
55.295 8.666006
55.300 9.414404
55.305 9.769906
55.310 9.911757
55.315 9.578449
55.320 9.322048
55.325 9.20895
55.330 8.520653
55.335 7.931151
55.340 7.391393
55.345 6.94419
55.350 6.67802
55.355 7.00654
55.360 7.304571
55.365 7.224967
55.370 6.912681
55.375 6.72741
55.380 7.094325
55.385 7.388127
55.390 7.20681
55.395 7.397993
55.400 7.583158
55.405 8.415699
55.410 8.966946
55.415 8.643917
55.420 8.498409
55.425 8.839578
55.430 8.83237
55.435 8.926375
55.440 8.72752
55.445 8.655458
55.450 8.936159
55.455 9.17948
55.460 8.82472
55.465 8.883654
55.470 9.212734
55.475 9.457704
55.480 9.546227
55.485 9.191485
55.490 8.741539
55.495 8.73431
55.500 8.121518
55.505 8.036628
55.510 7.636209
55.515 7.624835
55.520 8.01943
55.525 8.373241
55.530 8.509728
55.535 9.145972
55.540 8.857539
55.545 9.040064
55.550 9.485286
55.555 9.55565
55.560 9.895524
55.565 9.926927
55.570 10.19863
55.575 10.664861
55.580 10.809667
55.585 10.272093
55.590 10.323724
55.595 10.632477
55.600 10.400802
55.605 9.721754
55.610 9.994107
55.615 10.131257
55.620 10.315845
55.625 10.06165
55.630 9.896873
55.635 10.345672
55.640 10.259204
55.645 10.18344
55.650 9.859751
55.655 9.662519
55.660 9.810802
55.665 9.349814
55.670 9.383504
55.675 9.598921
55.680 9.179597
55.685 9.440659
55.690 9.819116
55.695 9.92612
55.700 9.818077
55.705 9.108413
55.710 9.047415
55.715 8.994351
55.720 9.059979
55.725 9.091384
55.730 9.350551
55.735 9.477918
55.740 9.54535
55.745 9.403796
55.750 9.720895
55.755 9.496191
55.760 9.102774
55.765 8.964973
55.770 9.624218
55.775 9.797642
55.780 10.20606
55.785 10.44847
55.790 10.371666
55.795 10.640655
55.800 10.808025
55.805 10.908808
55.810 11.131963
55.815 11.149691
55.820 11.155803
55.825 11.611903
55.830 11.635119
55.835 11.590518
55.840 11.427061
55.845 11.22821
55.850 10.937526
55.855 10.582478
55.860 10.346953
55.865 10.155771
55.870 9.723322
55.875 9.924605
55.880 9.903055
55.885 9.755926
55.890 9.427742
55.895 9.743917
55.900 9.77552
55.905 9.907801
55.910 9.254688
55.915 9.188411
55.920 9.743002
55.925 10.19621
55.930 10.059243
55.935 9.969474
55.940 10.047857
55.945 10.949033
55.950 11.367002
55.955 11.25871
55.960 11.026577
55.965 10.837509
55.970 11.069539
55.975 11.457228
55.980 10.764672
55.985 10.082355
55.990 10.039663
55.995 9.777175
56.000 10.315702
56.005 10.29013
56.010 10.060016
56.015 10.606292
56.020 10.876378
56.025 11.130921
56.030 11.503699
56.035 10.953575
56.040 10.913716
56.045 10.836937
56.050 10.519432
56.055 10.431177
56.060 10.379254
56.065 10.493411
56.070 10.540493
56.075 10.222642
56.080 10.026783
56.085 10.016149
56.090 9.70793
56.095 9.361428
56.100 8.933535
56.105 9.249655
56.110 9.13249
56.115 9.420505
56.120 9.727545
56.125 10.118204
56.130 10.293906
56.135 10.358597
56.140 10.17243
56.145 10.460949
56.150 10.327171
56.155 9.979611
56.160 9.75508
56.165 9.471023
56.170 9.398939
56.175 9.213504
56.180 8.882719
56.185 8.81535
56.190 8.989008
56.195 8.710835
56.200 9.144023
56.205 9.222248
56.210 9.191532
56.215 9.006763
56.220 9.014802
56.225 9.261992
56.230 10.005358
56.235 10.152769
56.240 10.766775
56.245 11.237752
56.250 11.571779
56.255 11.569407
56.260 11.501852
56.265 11.370117
56.270 11.431099
56.275 11.28715
56.280 11.233208
56.285 11.194283
56.290 11.288254
56.295 10.964009
56.300 10.387707
56.305 9.860715
56.310 9.491825
56.315 9.343571
56.320 9.207986
56.325 9.356872
56.330 9.710189
56.335 10.083815
56.340 10.210787
56.345 10.160775
56.350 10.410115
56.355 10.799218
56.360 10.534997
56.365 10.418609
56.370 10.399712
56.375 10.351665
56.380 10.269638
56.385 9.923479
56.390 9.559739
56.395 9.322258
56.400 9.123972
56.405 9.380939
56.410 9.447192
56.415 9.434865
56.420 9.544689
56.425 9.555363
56.430 9.545306
56.435 9.162943
56.440 8.83432
56.445 8.655994
56.450 8.947737
56.455 8.585838
56.460 8.666662
56.465 8.845095
56.470 8.96852
56.475 9.594336
56.480 10.453488
56.485 10.617773
56.490 10.87179
56.495 10.987473
56.500 11.221802
56.505 11.288748
56.510 10.556968
56.515 9.651273
56.520 9.680931
56.525 9.856023
56.530 9.729966
56.535 9.879693
56.540 9.993242
56.545 10.377487
56.550 10.526633
56.555 10.425861
56.560 10.312623
56.565 10.207551
56.570 10.035072
56.575 10.335287
56.580 10.627747
56.585 11.008303
56.590 11.087334
56.595 11.037185
56.600 11.091986
56.605 10.899709
56.610 10.81073
56.615 10.396049
56.620 10.471277
56.625 10.279202
56.630 10.740385
56.635 11.357934
56.640 11.151058
56.645 11.163201
56.650 11.722887
56.655 11.904056
56.660 12.127275
56.665 11.618482
56.670 10.945046
56.675 10.94689
56.680 11.009861
56.685 10.555958
56.690 10.663231
56.695 11.024253
56.700 11.512178
56.705 12.194233
56.710 12.136093
56.715 11.843263
56.720 12.145741
56.725 12.036119
56.730 11.995746
56.735 11.858269
56.740 11.934465
56.745 12.027645
56.750 11.849196
56.755 11.461921
56.760 11.395208
56.765 11.162868
56.770 11.077946
56.775 11.309825
56.780 11.719969
56.785 12.058224
56.790 12.143681
56.795 11.734596
56.800 11.959742
56.805 11.912596
56.810 11.322556
56.815 11.123871
56.820 11.120443
56.825 11.479574
56.830 11.458655
56.835 11.215386
56.840 11.264883
56.845 11.350013
56.850 11.211244
56.855 10.732522
56.860 10.794252
56.865 11.104271
56.870 11.222306
56.875 10.645913
56.880 10.577918
56.885 10.368471
56.890 10.285582
56.895 9.865921
56.900 9.504977
56.905 9.658627
56.910 10.304435
56.915 10.356041
56.920 10.369665
56.925 10.829395
56.930 11.215516
56.935 11.778485
56.940 11.499791
56.945 11.406474
56.950 11.543728
56.955 11.456913
56.960 11.024491
56.965 10.575376
56.970 10.394376
56.975 10.819639
56.980 11.07797
56.985 11.142789
56.990 11.75438
56.995 12.421268
57.000 12.814837
57.005 13.012599
57.010 12.417423
57.015 11.713745
57.020 11.736441
57.025 11.500847
57.030 10.900027
57.035 11.01369
57.040 10.643257
57.045 10.789019
57.050 11.315199
57.055 11.344893
57.060 11.526137
57.065 11.921586
57.070 11.933047
57.075 12.171494
57.080 12.526842
57.085 12.17774
57.090 11.834185
57.095 11.521043
57.100 11.553605
57.105 11.022777
57.110 10.654373
57.115 10.626151
57.120 10.815682
57.125 11.216902
57.130 11.078327
57.135 10.872955
57.140 11.206812
57.145 11.702584
57.150 11.789003
57.155 11.43643
57.160 10.887767
57.165 10.734169
57.170 10.947555
57.175 10.753811
57.180 10.464011
57.185 10.062004
57.190 10.046913
57.195 10.365526
57.200 10.37138
57.205 10.179497
57.210 10.382015
57.215 10.321369
57.220 10.827099
57.225 11.238953
57.230 11.427382
57.235 11.515372
57.240 11.371833
57.245 11.447328
57.250 11.517426
57.255 11.651903
57.260 11.700376
57.265 11.646425
57.270 11.791642
57.275 11.818242
57.280 11.955014
57.285 12.003518
57.290 11.414524
57.295 11.140591
57.300 11.336258
57.305 11.4157
57.310 11.462023
57.315 10.959085
57.320 10.937687
57.325 11.290157
57.330 11.727564
57.335 11.535685
57.340 11.273916
57.345 11.220053
57.350 11.529672
57.355 11.72976
57.360 12.042539
57.365 11.716797
57.370 11.70679
57.375 11.934922
57.380 12.149854
57.385 12.002452
57.390 11.649759
57.395 11.404166
57.400 11.385669
57.405 11.453342
57.410 11.167436
57.415 11.627043
57.420 12.198207
57.425 12.532739
57.430 12.767283
57.435 13.217809
57.440 13.628463
57.445 13.8673
57.450 13.319221
57.455 12.792847
57.460 12.750143
57.465 12.613853
57.470 12.384832
57.475 11.96807
57.480 12.090488
57.485 12.474062
57.490 12.558311
57.495 12.421815
57.500 12.422738
57.505 12.369212
57.510 12.357725
57.515 12.072894
57.520 11.590696
57.525 11.159949
57.530 10.963459
57.535 11.026162
57.540 11.335299
57.545 11.411341
57.550 11.58231
57.555 12.342835
57.560 13.294953
57.565 13.366142
57.570 13.141033
57.575 12.950606
57.580 12.419049
57.585 11.985062
57.590 11.741544
57.595 11.547619
57.600 11.732186
57.605 11.95561
57.610 11.95472
57.615 12.236222
57.620 12.397642
57.625 12.684507
57.630 12.438152
57.635 12.407119
57.640 12.34264
57.645 12.245338
57.650 12.660387
57.655 12.689873
57.660 12.166348
57.665 12.184361
57.670 12.615658
57.675 12.727497
57.680 12.574482
57.685 12.412181
57.690 12.244361
57.695 12.622147
57.700 12.291115
57.705 11.83085
57.710 12.156028
57.715 12.232206
57.720 12.293983
57.725 12.641533
57.730 12.714319
57.735 12.940489
57.740 12.902594
57.745 12.569482
57.750 13.168413
57.755 13.544098
57.760 13.298017
57.765 13.450573
57.770 13.615272
57.775 13.438086
57.780 13.52637
57.785 13.302816
57.790 13.175973
57.795 13.335153
57.800 12.63647
57.805 12.503524
57.810 12.667593
57.815 12.276384
57.820 12.004452
57.825 11.952607
57.830 11.933776
57.835 12.511058
57.840 13.171769
57.845 13.707582
57.850 14.217985
57.855 14.099521
57.860 14.363473
57.865 14.451938
57.870 13.895777
57.875 13.312295
57.880 13.134334
57.885 12.998979
57.890 13.077851
57.895 13.177447
57.900 13.255761
57.905 13.33027
57.910 13.601087
57.915 13.693385
57.920 13.938128
57.925 14.268722
57.930 14.345043
57.935 14.2006
57.940 14.21536
57.945 13.979989
57.950 13.628344
57.955 13.125039
57.960 12.90383
57.965 12.472413
57.970 12.274189
57.975 12.630747
57.980 12.524932
57.985 12.523134
57.990 12.723181
57.995 12.530732
58.000 12.749138
58.005 12.731854
58.010 12.482821
58.015 12.496981
58.020 12.527746
58.025 12.990401
58.030 13.063386
58.035 13.133286
58.040 13.412473
58.045 13.387475
58.050 13.574172
58.055 13.657211
58.060 13.568295
58.065 13.288516
58.070 13.258154
58.075 13.403402
58.080 13.604329
58.085 13.685818
58.090 13.527668
58.095 13.565735
58.100 13.705554
58.105 13.713426
58.110 13.478479
58.115 13.249737
58.120 12.848012
58.125 12.509528
58.130 12.031332
58.135 11.981938
58.140 11.88797
58.145 12.178912
58.150 12.801832
58.155 13.738083
58.160 14.178052
58.165 14.54871
58.170 14.898546
58.175 15.397283
58.180 15.516194
58.185 15.32846
58.190 14.76353
58.195 14.892006
58.200 15.16034
58.205 15.314838
58.210 15.287378
58.215 15.453051
58.220 15.48478
58.225 15.647222
58.230 15.385623
58.235 15.273476
58.240 15.544436
58.245 15.172808
58.250 14.554857
58.255 14.396458
58.260 14.34375
58.265 14.462568
58.270 14.420307
58.275 13.91205
58.280 14.346566
58.285 14.145331
58.290 13.920573
58.295 14.277031
58.300 14.509686
58.305 14.836606
58.310 15.362632
58.315 15.961543
58.320 16.494795
58.325 17.070545
58.330 17.341055
58.335 17.708681
58.340 17.691809
58.345 16.965616
58.350 16.899906
58.355 17.10848
58.360 17.558329
58.365 17.213236
58.370 17.178242
58.375 17.297653
58.380 17.555946
58.385 17.763763
58.390 18.068907
58.395 17.805639
58.400 17.35434
58.405 17.228472
58.410 17.488735
58.415 17.569458
58.420 17.787546
58.425 18.297787
58.430 18.621452
58.435 19.698511
58.440 20.260862
58.445 20.51149
58.450 20.943703
58.455 21.137087
58.460 21.490835
58.465 21.947037
58.470 21.572104
58.475 21.669104
58.480 21.891096
58.485 22.408237
58.490 23.558783
58.495 23.910004
58.500 24.389849
58.505 24.891691
58.510 25.405125
58.515 25.671862
58.520 24.835009
58.525 24.144577
58.530 23.923262
58.535 23.767204
58.540 24.078032
58.545 24.301844
58.550 24.25481
58.555 25.479067
58.560 26.642756
58.565 27.251793
58.570 27.68445
58.575 27.805685
58.580 27.731668
58.585 28.181334
58.590 27.98176
58.595 27.827709
58.600 28.397387
58.605 28.87837
58.610 29.058493
58.615 29.421888
58.620 29.941345
58.625 30.0581
58.630 30.158751
58.635 30.474243
58.640 30.619087
58.645 31.013609
58.650 31.168003
58.655 31.141127
58.660 32.053101
58.665 31.690319
58.670 30.7719
58.675 30.600954
58.680 30.669333
58.685 30.11315
58.690 29.587391
58.695 29.817591
58.700 30.043087
58.705 30.463039
58.710 29.821772
58.715 29.830696
58.720 30.075302
58.725 29.653381
58.730 28.102356
58.735 26.970999
58.740 26.555019
58.745 26.802822
58.750 26.483418
58.755 26.274614
58.760 27.061203
58.765 27.141153
58.770 27.254316
58.775 27.327326
58.780 26.965969
58.785 26.717087
58.790 26.291618
58.795 25.95483
58.800 25.818502
58.805 25.387403
58.810 24.967806
58.815 24.475954
58.820 23.555452
58.825 23.981468
58.830 23.576321
58.835 22.917068
58.840 23.209402
58.845 22.832781
58.850 22.85243
58.855 23.044893
58.860 22.088404
58.865 21.699938
58.870 21.906364
58.875 21.093021
58.880 20.684805
58.885 20.658213
58.890 20.68009
58.895 20.892643
58.900 20.985807
58.905 20.346445
58.910 20.06292
58.915 19.889103
58.920 19.516848
58.925 19.481192
58.930 19.264338
58.935 18.862017
58.940 18.651251
58.945 18.535864
58.950 18.356838
58.955 18.015795
58.960 17.576225
58.965 17.759815
58.970 17.477654
58.975 17.550812
58.980 17.607479
58.985 16.965019
58.990 16.548752
58.995 16.073513
59.000 14.919662
59.005 14.373332
59.010 14.31328
59.015 14.254672
59.020 14.57177
59.025 14.628356
59.030 14.656704
59.035 15.284121
59.040 15.648183
59.045 14.772558
59.050 14.226774
59.055 14.458346
59.060 14.817878
59.065 14.686202
59.070 14.576445
59.075 14.557278
59.080 15.159492
59.085 14.882116
59.090 14.045705
59.095 13.687658
59.100 13.703119
59.105 13.217854
59.110 13.269864
59.115 13.5078
59.120 13.454836
59.125 14.267091
59.130 14.436042
59.135 14.743132
59.140 15.211918
59.145 14.334265
59.150 14.019409
59.155 14.32394
59.160 13.604291
59.165 13.428598
59.170 13.035488
59.175 12.979823
59.180 13.620605
59.185 13.315943
59.190 12.760604
59.195 12.820526
59.200 12.305786
59.205 11.989511
59.210 12.244089
59.215 12.474311
59.220 12.78862
59.225 13.132547
59.230 13.468872
59.235 14.285153
59.240 14.592134
59.245 14.332886
59.250 14.112948
59.255 13.568959
59.260 13.775496
59.265 13.462062
59.270 12.881335
59.275 12.614705
59.280 12.00078
59.285 11.414659
59.290 12.138611
59.295 12.069791
59.300 12.565718
59.305 12.81706
59.310 13.046107
59.315 13.27257
59.320 13.422891
59.325 13.241041
59.330 12.513309
59.335 12.470641
59.340 12.501189
59.345 12.105833
59.350 12.6384
59.355 12.970275
59.360 13.219205
59.365 13.646994
59.370 13.438647
59.375 13.236029
59.380 13.299242
59.385 13.122705
59.390 12.917554
59.395 12.742217
59.400 12.74705
59.405 12.648128
59.410 12.750775
59.415 12.531189
59.420 12.170938
59.425 12.195805
59.430 12.488503
59.435 12.580218
59.440 13.236739
59.445 13.919518
59.450 14.424006
59.455 14.906162
59.460 15.212457
59.465 15.113639
59.470 14.765838
59.475 14.70096
59.480 14.462429
59.485 14.330237
59.490 14.096824
59.495 14.008666
59.500 13.918302
59.505 14.319633
59.510 13.751302
59.515 13.232488
59.520 12.751373
59.525 12.332858
59.530 12.079271
59.535 11.705726
59.540 11.541245
59.545 11.460748
59.550 11.780607
59.555 12.1696
59.560 12.364376
59.565 12.088133
59.570 12.537513
59.575 12.279058
59.580 12.751277
59.585 12.991678
59.590 12.67507
59.595 12.855103
59.600 13.304763
59.605 13.144824
59.610 13.156649
59.615 12.954749
59.620 13.623695
59.625 14.229611
59.630 14.127846
59.635 13.675425
59.640 13.813214
59.645 14.070201
59.650 14.073413
59.655 13.24324
59.660 13.114662
59.665 12.957584
59.670 12.847922
59.675 12.891611
59.680 12.942194
59.685 12.646575
59.690 12.674981
59.695 12.76242
59.700 13.45303
59.705 13.578255
59.710 13.508561
59.715 14.214275
59.720 14.821298
59.725 14.597495
59.730 14.56039
59.735 14.488717
59.740 14.975363
59.745 14.624146
59.750 14.152459
59.755 13.857493
59.760 14.474019
59.765 14.342467
59.770 13.893209
59.775 13.812887
59.780 14.360029
59.785 14.397176
59.790 13.992777
59.795 13.744505
59.800 13.765168
59.805 13.349261
59.810 13.489714
59.815 13.380341
59.820 13.073684
59.825 13.295771
59.830 13.011929
59.835 13.082694
59.840 12.931482
59.845 12.806698
59.850 12.750285
59.855 12.884501
59.860 13.020148
59.865 12.910632
59.870 13.275536
59.875 13.789792
59.880 13.436883
59.885 12.937544
59.890 13.084083
59.895 13.148059
59.900 13.761487
59.905 13.837173
59.910 13.665512
59.915 13.695817
59.920 14.309497
59.925 14.439104
59.930 14.458111
59.935 13.717478
59.940 13.317719
59.945 13.567186
59.950 13.46942
59.955 13.422352
59.960 13.643312
59.965 13.630195
59.970 14.124249
59.975 14.066052
59.980 14.068963
59.985 14.312202
59.990 14.363862
59.995 14.587824
60.000 14.990565
60.005 15.013816
60.010 15.009679
60.015 15.220936
60.020 14.684419
60.025 14.076961
60.030 13.152388
60.035 12.886213
60.040 13.064502
60.045 13.578304
60.050 13.326354
60.055 13.560766
60.060 13.914237
60.065 14.347787
60.070 14.056197
60.075 13.639275
60.080 13.682878
60.085 14.14268
60.090 14.616229
60.095 14.572047
60.100 14.201417
60.105 14.764221
60.110 15.068743
60.115 14.826776
60.120 14.537252
60.125 14.285506
60.130 14.409062
60.135 14.178726
60.140 13.844312
60.145 13.738258
60.150 13.937935
60.155 14.323184
60.160 14.156446
60.165 14.159427
60.170 14.480266
60.175 14.566348
60.180 14.382446
60.185 14.455607
60.190 14.882778
60.195 15.000921
60.200 14.758992
60.205 14.79348
60.210 14.867589
60.215 14.943835
60.220 13.980083
60.225 13.104833
60.230 13.28094
60.235 13.753588
60.240 13.703562
60.245 13.726853
60.250 13.289305
60.255 13.468925
60.260 13.433533
60.265 13.116677
60.270 12.753577
60.275 12.782324
60.280 12.41291
60.285 12.603445
60.290 13.212687
60.295 13.910288
60.300 14.577535
60.305 14.811176
60.310 14.923535
60.315 14.855181
60.320 14.729611
60.325 14.255005
60.330 14.135345
60.335 13.851241
60.340 13.846701
60.345 13.986806
60.350 13.916282
60.355 14.076822
60.360 13.805234
60.365 13.424637
60.370 13.258545
60.375 13.14815
60.380 13.035488
60.385 13.144312
60.390 13.446313
60.395 13.246321
60.400 13.206582
60.405 13.373251
60.410 13.27253
60.415 13.523944
60.420 13.6102
60.425 13.638752
60.430 14.045205
60.435 13.894482
60.440 13.524454
60.445 13.463769
60.450 13.193846
60.455 13.280253
60.460 13.218006
60.465 13.71145
60.470 13.972388
60.475 13.723557
60.480 13.799023
60.485 14.09302
60.490 14.076941
60.495 14.059131
60.500 13.756044
60.505 13.560939
60.510 14.142994
60.515 14.564796
60.520 14.399178
60.525 14.414658
60.530 14.495988
60.535 14.50905
60.540 15.053375
60.545 14.780245
60.550 14.579563
60.555 14.300979
60.560 14.055261
60.565 14.103154
60.570 14.103445
60.575 14.158831
60.580 14.327469
60.585 14.432694
60.590 14.803533
60.595 15.084018
60.600 15.04425
60.605 15.458081
60.610 15.400702
60.615 15.241501
60.620 15.173291
60.625 15.120395
60.630 14.734798
60.635 14.493159
60.640 14.1361
60.645 14.086265
60.650 13.950492
60.655 13.717494
60.660 13.952942
60.665 14.318693
60.670 14.180879
60.675 13.967241
60.680 13.748035
60.685 13.632494
60.690 13.453176
60.695 13.287334
60.700 13.108718
60.705 13.18559
60.710 13.250299
60.715 13.543655
60.720 13.328828
60.725 13.107519
60.730 13.160481
60.735 12.707094
60.740 12.441322
60.745 12.296778
60.750 12.028737
60.755 12.53133
60.760 12.534407
60.765 12.689994
60.770 13.489489
60.775 13.943582
60.780 14.204231
60.785 14.522585
60.790 14.4106
60.795 14.403383
60.800 13.805444
60.805 13.119312
60.810 12.937287
60.815 12.413777
60.820 11.604048
60.825 11.555513
60.830 11.98015
60.835 12.315495
60.840 12.690143
60.845 13.30587
60.850 13.761248
60.855 14.347145
60.860 14.451258
60.865 14.443472
60.870 14.616126
60.875 14.508821
60.880 14.510847
60.885 14.807341
60.890 14.961111
60.895 14.880458
60.900 15.008885
60.905 14.698886
60.910 14.701082
60.915 14.540721
60.920 14.844728
60.925 15.181283
60.930 15.482261
60.935 15.681416
60.940 16.521761
60.945 16.559034
60.950 16.4186
60.955 15.752705
60.960 15.432252
60.965 15.458899
60.970 15.39421
60.975 14.434917
60.980 14.104309
60.985 13.802908
60.990 14.552253
60.995 14.188326
61.000 13.741535
61.005 13.641063
61.010 14.051503
61.015 14.401989
61.020 14.564752
61.025 14.56607
61.030 14.386558
61.035 14.197248
61.040 13.824383
61.045 13.711094
61.050 13.320174
61.055 12.962205
61.060 12.441338
61.065 13.213347
61.070 13.898824
61.075 13.955396
61.080 13.869367
61.085 13.963801
61.090 14.206688
61.095 14.661313
61.100 14.424305
61.105 13.979559
61.110 14.153407
61.115 14.235664
61.120 14.621361
61.125 14.656059
61.130 14.410782
61.135 14.495814
61.140 14.772906
61.145 14.918433
61.150 14.759467
61.155 14.879861
61.160 15.130471
61.165 15.886249
61.170 15.873634
61.175 15.8736
61.180 15.984764
61.185 16.097191
61.190 15.816158
61.195 15.426795
61.200 15.297816
61.205 15.780999
61.210 15.863739
61.215 16.053497
61.220 16.172474
61.225 16.540558
61.230 16.641256
61.235 15.976913
61.240 15.344156
61.245 15.523938
61.250 15.120311
61.255 15.508104
61.260 15.17349
61.265 14.687543
61.270 14.418216
61.275 14.64115
61.280 14.421999
61.285 14.901981
61.290 14.760746
61.295 14.695488
61.300 14.818334
61.305 14.812702
61.310 14.772436
61.315 14.732216
61.320 14.343489
61.325 14.347562
61.330 14.342376
61.335 14.75516
61.340 15.047596
61.345 14.755266
61.350 14.858063
61.355 14.832636
61.360 14.928802
61.365 15.112229
61.370 15.161692
61.375 14.834907
61.380 15.154845
61.385 15.07571
61.390 15.219786
61.395 15.033626
61.400 14.627819
61.405 14.080281
61.410 14.238293
61.415 14.305012
61.420 14.066893
61.425 13.50563
61.430 13.472447
61.435 13.672123
61.440 13.904318
61.445 14.084828
61.450 14.170243
61.455 14.643324
61.460 14.905837
61.465 14.55725
61.470 14.800473
61.475 15.452182
61.480 15.653617
61.485 15.770125
61.490 15.745902
61.495 15.610675
61.500 16.007847
61.505 15.854925
61.510 15.442914
61.515 15.575501
61.520 15.114817
61.525 15.133487
61.530 15.464819
61.535 15.317381
61.540 15.104048
61.545 15.060811
61.550 14.661329
61.555 14.919713
61.560 14.745288
61.565 14.658137
61.570 14.8661
61.575 14.885568
61.580 14.551025
61.585 14.376141
61.590 14.000878
61.595 13.805853
61.600 13.546034
61.605 13.541691
61.610 13.714684
61.615 14.45718
61.620 15.153114
61.625 15.238984
61.630 15.243005
61.635 15.336078
61.640 15.088609
61.645 15.153145
61.650 14.99052
61.655 15.218222
61.660 15.283904
61.665 15.284532
61.670 15.187743
61.675 15.617834
61.680 15.538596
61.685 15.482193
61.690 15.835171
61.695 16.314926
61.700 16.795464
61.705 16.675337
61.710 16.18222
61.715 15.964308
61.720 15.793305
61.725 14.691727
61.730 14.482929
61.735 15.122544
61.740 15.499109
61.745 15.683211
61.750 15.705618
61.755 15.271955
61.760 15.544673
61.765 15.478108
61.770 14.913607
61.775 14.667624
61.780 14.363194
61.785 14.036842
61.790 14.252983
61.795 14.000799
61.800 13.733502
61.805 13.302982
61.810 13.38451
61.815 13.870667
61.820 13.826019
61.825 13.844724
61.830 13.823626
61.835 14.057064
61.840 14.281326
61.845 13.771526
61.850 13.335901
61.855 13.558828
61.860 13.643204
61.865 14.421888
61.870 14.607461
61.875 14.902942
61.880 15.362996
61.885 15.92405
61.890 16.54755
61.895 16.533226
61.900 15.851335
61.905 15.184992
61.910 15.173088
61.915 15.413193
61.920 14.763267
61.925 14.086053
61.930 14.154892
61.935 14.068095
61.940 14.069672
61.945 13.934875
61.950 14.150793
61.955 14.24834
61.960 14.241709
61.965 14.565701
61.970 15.040799
61.975 15.255811
61.980 15.367656
61.985 15.325027
61.990 15.562087
61.995 15.440774
62.000 15.213607
62.005 14.810438
62.010 14.785726
62.015 14.510804
62.020 14.169849
62.025 14.101969
62.030 14.219403
62.035 13.995296
62.040 14.619558
62.045 14.954906
62.050 15.045645
62.055 15.254394
62.060 15.408848
62.065 15.435277
62.070 15.372638
62.075 14.743459
62.080 14.5128
62.085 15.085092
62.090 15.281959
62.095 15.591466
62.100 15.099871
62.105 14.461286
62.110 14.285738
62.115 14.079521
62.120 13.755941
62.125 13.509488
62.130 13.001171
62.135 13.294471
62.140 14.039272
62.145 14.602702
62.150 14.786341
62.155 14.379858
62.160 14.521467
62.165 15.506512
62.170 16.169287
62.175 16.527868
62.180 16.377777
62.185 16.283985
62.190 16.623135
62.195 16.499506
62.200 15.84959
62.205 15.403065
62.210 15.16429
62.215 14.999407
62.220 15.07865
62.225 15.323055
62.230 14.912494
62.235 14.424498
62.240 14.524323
62.245 14.914628
62.250 15.61019
62.255 15.610313
62.260 15.572365
62.265 16.134071
62.270 16.496708
62.275 16.806864
62.280 16.482714
62.285 16.168667
62.290 16.23233
62.295 15.551107
62.300 15.647048
62.305 15.870116
62.310 15.631142
62.315 15.682578
62.320 15.874904
62.325 15.711043
62.330 15.839929
62.335 15.408959
62.340 15.641552
62.345 15.903271
62.350 15.785434
62.355 15.592398
62.360 15.759578
62.365 16.065693
62.370 15.894639
62.375 15.398067
62.380 15.410955
62.385 15.585902
62.390 15.621636
62.395 15.41433
62.400 15.272612
62.405 15.496438
62.410 15.356128
62.415 15.620591
62.420 15.074422
62.425 14.887774
62.430 15.389737
62.435 15.594105
62.440 16.003685
62.445 16.430836
62.450 16.444494
62.455 16.856018
62.460 17.226196
62.465 17.236729
62.470 17.473459
62.475 17.376596
62.480 17.484339
62.485 16.864309
62.490 16.758156
62.495 16.689905
62.500 16.643089
62.505 16.478029
62.510 16.576494
62.515 16.310036
62.520 15.949295
62.525 15.95547
62.530 16.06031
62.535 16.136168
62.540 15.711523
62.545 15.537403
62.550 15.111978
62.555 14.988464
62.560 14.800744
62.565 14.38035
62.570 14.151
62.575 14.511085
62.580 14.495306
62.585 14.5066
62.590 14.609423
62.595 14.299862
62.600 14.294493
62.605 14.202312
62.610 13.912293
62.615 13.862944
62.620 14.209149
62.625 14.912928
62.630 15.386588
62.635 15.488497
62.640 15.62401
62.645 15.651641
62.650 15.474784
62.655 15.250433
62.660 15.032949
62.665 14.975239
62.670 15.524579
62.675 15.432674
62.680 15.509731
62.685 15.772162
62.690 16.338335
62.695 16.381714
62.700 16.159761
62.705 15.300187
62.710 15.099654
62.715 14.91726
62.720 15.015171
62.725 15.084472
62.730 15.635988
62.735 16.244947
62.740 16.638632
62.745 17.063755
62.750 16.874125
62.755 16.52561
62.760 15.77717
62.765 15.176227
62.770 14.719936
62.775 14.972883
62.780 15.057
62.785 15.028781
62.790 15.11318
62.795 15.654153
62.800 15.625054
62.805 16.026264
62.810 15.444628
62.815 14.816998
62.820 14.550641
62.825 14.151623
62.830 14.230208
62.835 14.034757
62.840 13.503042
62.845 13.585854
62.850 14.369813
62.855 15.269551
62.860 16.154047
62.865 15.865399
62.870 15.942152
62.875 16.2852
62.880 16.14679
62.885 15.667068
62.890 15.703338
62.895 15.458551
62.900 15.135583
62.905 15.614302
62.910 16.237213
62.915 16.440891
62.920 16.356373
62.925 15.961036
62.930 15.608729
62.935 15.713345
62.940 15.218773
62.945 14.903193
62.950 15.118476
62.955 15.713345
62.960 15.861171
62.965 16.34038
62.970 16.905602
62.975 16.924738
62.980 16.831644
62.985 17.216217
62.990 17.107599
62.995 16.905539
63.000 17.043774
63.005 16.241322
63.010 16.488073
63.015 16.368855
63.020 15.93445
63.025 15.473404
63.030 15.336972
63.035 15.144606
63.040 15.813498
63.045 15.219738
63.050 14.679372
63.055 14.438903
63.060 14.706893
63.065 15.198791
63.070 14.932679
63.075 14.665946
63.080 15.170073
63.085 15.132813
63.090 14.693105
63.095 14.716272
63.100 14.954301
63.105 15.158215
63.110 15.303642
63.115 15.348505
63.120 15.405357
63.125 16.02809
63.130 16.209034
63.135 15.949119
63.140 16.47171
63.145 16.141129
63.150 15.917469
63.155 16.491684
63.160 16.394655
63.165 16.78446
63.170 16.665115
63.175 16.188732
63.180 16.518911
63.185 17.093229
63.190 16.9107
63.195 16.48053
63.200 16.063978
63.205 15.969314
63.210 16.162477
63.215 15.891753
63.220 15.043726
63.225 15.489271
63.230 15.66392
63.235 15.401196
63.240 15.252411
63.245 14.835491
63.250 14.985056
63.255 15.469416
63.260 15.145268
63.265 15.232642
63.270 15.660327
63.275 16.183596
63.280 16.414331
63.285 16.278719
63.290 16.340944
63.295 16.560875
63.300 16.668444
63.305 16.189394
63.310 15.822593
63.315 16.093246
63.320 16.744734
63.325 16.738377
63.330 16.772058
63.335 16.457701
63.340 16.472189
63.345 15.908915
63.350 16.019449
63.355 15.515351
63.360 15.270818
63.365 14.94387
63.370 15.056858
63.375 15.82819
63.380 16.051945
63.385 16.003452
63.390 16.237457
63.395 16.360807
63.400 16.326323
63.405 16.043663
63.410 15.33652
63.415 15.371474
63.420 14.976252
63.425 14.837186
63.430 15.064278
63.435 15.721187
63.440 15.730147
63.445 15.496639
63.450 15.890385
63.455 15.909306
63.460 15.869811
63.465 15.833889
63.470 15.633232
63.475 15.852503
63.480 16.219294
63.485 15.927003
63.490 15.823502
63.495 15.566467
63.500 15.303484
63.505 15.184332
63.510 15.253092
63.515 14.937765
63.520 15.102371
63.525 15.304584
63.530 15.874085
63.535 15.39883
63.540 15.40461
63.545 15.076113
63.550 15.357726
63.555 15.567822
63.560 15.587056
63.565 15.280852
63.570 15.497753
63.575 15.599236
63.580 15.861089
63.585 15.917764
63.590 15.965755
63.595 15.968077
63.600 16.326826
63.605 16.706938
63.610 16.772043
63.615 17.037214
63.620 16.669022
63.625 16.269476
63.630 16.719578
63.635 16.952972
63.640 16.868183
63.645 16.349731
63.650 16.229193
63.655 16.527565
63.660 16.3477
63.665 15.931595
63.670 15.68314
63.675 15.569494
63.680 15.772135
63.685 15.470151
63.690 15.404676
63.695 15.613275
63.700 15.304831
63.705 15.345173
63.710 15.5488
63.715 15.730336
63.720 16.333609
63.725 16.405807
63.730 16.424557
63.735 16.647017
63.740 16.537066
63.745 16.175428
63.750 15.696359
63.755 15.998042
63.760 16.336592
63.765 16.344337
63.770 16.701113
63.775 17.145422
63.780 17.694439
63.785 17.883034
63.790 17.762993
63.795 17.878641
63.800 17.760023
63.805 17.551052
63.810 16.993017
63.815 17.439276
63.820 17.522406
63.825 17.120581
63.830 17.075205
63.835 16.921133
63.840 17.677094
63.845 18.02018
63.850 17.416067
63.855 17.163958
63.860 17.475388
63.865 17.379469
63.870 17.33997
63.875 16.186131
63.880 16.338274
63.885 16.677456
63.890 17.170364
63.895 16.964451
63.900 17.196173
63.905 18.380198
63.910 18.907965
63.915 19.198717
63.920 19.482477
63.925 19.305361
63.930 19.419182
63.935 19.555904
63.940 18.83934
63.945 19.376776
63.950 18.944704
63.955 19.393911
63.960 20.483776
63.965 20.831827
63.970 20.812317
63.975 20.433186
63.980 20.255665
63.985 20.692629
63.990 20.614159
63.995 20.461626
64.000 20.234934
64.005 20.951405
64.010 21.262882
64.015 21.459627
64.020 21.404545
64.025 21.022455
64.030 20.84403
64.035 20.817528
64.040 19.837015
64.045 20.038044
64.050 20.154663
64.055 20.266178
64.060 20.513945
64.065 19.942553
64.070 20.356422
64.075 21.849207
64.080 22.45956
64.085 23.461641
64.090 23.912827
64.095 24.289518
64.100 25.277863
64.105 24.900721
64.110 24.170784
64.115 23.832956
64.120 23.699547
64.125 23.65304
64.130 23.921576
64.135 24.145651
64.140 24.588795
64.145 25.433645
64.150 25.903469
64.155 26.562737
64.160 27.074982
64.165 26.787569
64.170 26.664106
64.175 26.562136
64.180 26.847029
64.185 27.433167
64.190 27.508673
64.195 28.081453
64.200 28.352772
64.205 29.00095
64.210 29.926836
64.215 30.009245
64.220 30.167202
64.225 30.307634
64.230 31.073719
64.235 31.301266
64.240 31.790998
64.245 32.392525
64.250 33.426613
64.255 34.105999
64.260 34.410286
64.265 34.931778
64.270 36.439781
64.275 36.909264
64.280 36.863842
64.285 37.449863
64.290 37.951515
64.295 38.818882
64.300 39.195721
64.305 39.669357
64.310 39.8787
64.315 39.849102
64.320 38.820976
64.325 38.483227
64.330 38.531441
64.335 38.158333
64.340 37.284286
64.345 37.836956
64.350 38.508213
64.355 39.7999
64.360 40.819672
64.365 41.209393
64.370 42.264545
64.375 43.097115
64.380 43.298889
64.385 43.309948
64.390 42.8806
64.395 43.156906
64.400 43.094185
64.405 43.065445
64.410 44.222885
64.415 44.972401
64.420 44.721954
64.425 44.862503
64.430 45.082535
64.435 45.645573
64.440 45.769939
64.445 44.62978
64.450 44.24229
64.455 44.542896
64.460 45.210743
64.465 44.833557
64.470 43.591408
64.475 42.57975
64.480 42.451691
64.485 43.202549
64.490 43.682369
64.495 43.552902
64.500 43.663532
64.505 43.598442
64.510 43.78651
64.515 43.129421
64.520 41.70282
64.525 40.799706
64.530 40.133301
64.535 40.724091
64.540 41.15221
64.545 40.965374
64.550 41.346931
64.555 41.24387
64.560 40.453178
64.565 39.779358
64.570 38.397675
64.575 36.743195
64.580 36.091248
64.585 35.235607
64.590 35.076759
64.595 34.783634
64.600 33.926357
64.605 33.001034
64.610 33.483311
64.615 33.40897
64.620 33.039219
64.625 31.917208
64.630 31.204952
64.635 31.292278
64.640 31.5334
64.645 31.044123
64.650 30.145714
64.655 29.049473
64.660 29.362051
64.665 29.745792
64.670 29.288073
64.675 27.719309
64.680 27.024225
64.685 26.967899
64.690 27.548536
64.695 27.342922
64.700 26.305357
64.705 25.753803
64.710 25.984268
64.715 25.978071
64.720 26.018826
64.725 25.255754
64.730 25.191584
64.735 25.554817
64.740 25.262033
64.745 24.440525
64.750 24.041832
64.755 22.89081
64.760 22.830973
64.765 22.412203
64.770 22.42074
64.775 22.557125
64.780 22.694624
64.785 22.27079
64.790 22.270535
64.795 22.051781
64.800 22.163738
64.805 22.278637
64.810 22.043144
64.815 22.418745
64.820 23.144066
64.825 23.465202
64.830 23.506418
64.835 23.542999
64.840 23.189211
64.845 23.343056
64.850 22.946276
64.855 22.589977
64.860 22.548479
64.865 22.459478
64.870 22.298632
64.875 22.636328
64.880 22.736307
64.885 22.453341
64.890 22.073904
64.895 22.25005
64.900 22.113827
64.905 21.433311
64.910 21.135523
64.915 21.057707
64.920 21.533144
64.925 22.003117
64.930 22.025755
64.935 22.2742
64.940 22.387362
64.945 21.79726
64.950 21.812851
64.955 21.391434
64.960 21.885517
64.965 22.309763
64.970 22.437609
64.975 23.07184
64.980 24.209084
64.985 24.362999
64.990 25.027533
64.995 25.161495
65.000 25.173004
65.005 25.662285
65.010 25.892477
65.015 25.616158
65.020 26.333656
65.025 26.867805
65.030 27.029581
65.035 27.238146
65.040 27.552515
65.045 28.147987
65.050 28.560444
65.055 29.564163
65.060 30.078573
65.065 30.482655
65.070 30.811504
65.075 30.719431
65.080 30.05949
65.085 29.924828
65.090 29.304987
65.095 29.52894
65.100 29.247419
65.105 29.576963
65.110 29.884747
65.115 30.637236
65.120 31.122347
65.125 31.256189
65.130 31.051785
65.135 31.247332
65.140 31.36128
65.145 31.361879
65.150 30.844011
65.155 31.303379
65.160 31.814548
65.165 32.325512
65.170 32.841633
65.175 32.423756
65.180 31.753616
65.185 31.249578
65.190 30.692713
65.195 30.336451
65.200 30.542522
65.205 30.658459
65.210 31.410236
65.215 32.408409
65.220 33.313713
65.225 33.906242
65.230 34.095291
65.235 33.616318
65.240 32.701019
65.245 32.990261
65.250 32.832417
65.255 32.546589
65.260 32.236202
65.265 32.442928
65.270 32.473495
65.275 32.822063
65.280 32.141262
65.285 32.495152
65.290 32.358524
65.295 31.864334
65.300 31.440582
65.305 31.796789
65.310 31.988146
65.315 32.046005
65.320 31.618935
65.325 31.736198
65.330 31.93462
65.335 31.556431
65.340 31.377218
65.345 31.675714
65.350 32.232727
65.355 32.89769
65.360 32.868092
65.365 32.843914
65.370 33.895676
65.375 34.109749
65.380 33.842484
65.385 33.957932
65.390 34.542164
65.395 35.348583
65.400 35.39333
65.405 34.831173
65.410 34.789642
65.415 34.930405
65.420 34.771107
65.425 34.215405
65.430 33.442245
65.435 33.917442
65.440 34.732796
65.445 35.250271
65.450 35.453938
65.455 34.477013
65.460 34.344994
65.465 35.153275
65.470 34.800629
65.475 34.336781
65.480 33.998749
65.485 33.34853
65.490 34.305573
65.495 34.584934
65.500 34.887573
65.505 34.966091
65.510 35.237411
65.515 34.486889
65.520 34.88768
65.525 34.820744
65.530 34.144821
65.535 33.588837
65.540 33.895538
65.545 34.921864
65.550 35.687531
65.555 35.262394
65.560 35.241676
65.565 35.391621
65.570 35.075024
65.575 34.571793
65.580 33.783249
65.585 33.860771
65.590 34.051857
65.595 34.033112
65.600 34.082954
65.605 33.955555
65.610 33.493111
65.615 32.921768
65.620 32.89333
65.625 32.801594
65.630 32.761623
65.635 33.159351
65.640 33.810799
65.645 34.679367
65.650 34.159046
65.655 33.815098
65.660 33.436642
65.665 33.028534
65.670 32.8069
65.675 32.116943
65.680 32.068447
65.685 33.153694
65.690 33.903824
65.695 34.761932
65.700 34.320282
65.705 34.278542
65.710 34.174763
65.715 33.224915
65.720 32.404774
65.725 31.864862
65.730 31.233557
65.735 31.889242
65.740 31.771461
65.745 31.562645
65.750 32.151924
65.755 32.307129
65.760 32.452877
65.765 32.522694
65.770 32.152767
65.775 31.924519
65.780 31.900326
65.785 31.525139
65.790 31.125332
65.795 30.204065
65.800 29.683611
65.805 29.640385
65.810 29.674685
65.815 29.600904
65.820 29.376162
65.825 29.152861
65.830 29.631062
65.835 29.751472
65.840 29.95401
65.845 29.72747
65.850 29.912636
65.855 29.558331
65.860 28.811445
65.865 28.310526
65.870 28.046444
65.875 27.636776
65.880 27.343817
65.885 26.599434
65.890 26.910967
65.895 26.768724
65.900 25.834433
65.905 25.330891
65.910 25.289974
65.915 25.356915
65.920 25.250944
65.925 24.391115
65.930 24.471489
65.935 25.31012
65.940 25.497501
65.945 25.440027
65.950 25.32579
65.955 25.02145
65.960 24.810467
65.965 24.545639
65.970 24.171341
65.975 23.846825
65.980 23.372393
65.985 23.167585
65.990 23.086489
65.995 23.175926
66.000 23.012842
66.005 22.351376
66.010 22.033411
66.015 21.663568
66.020 21.516121
66.025 21.026114
66.030 20.732634
66.035 21.099165
66.040 21.324247
66.045 21.458618
66.050 21.543383
66.055 21.236128
66.060 21.254894
66.065 20.391331
66.070 19.905067
66.075 19.979187
66.080 20.04254
66.085 20.302383
66.090 20.477562
66.095 20.214575
66.100 20.517912
66.105 19.74099
66.110 19.798691
66.115 19.408875
66.120 19.070232
66.125 19.576155
66.130 19.935497
66.135 19.937721
66.140 20.437464
66.145 20.130024
66.150 20.14835
66.155 19.677469
66.160 19.539265
66.165 19.438843
66.170 19.558594
66.175 19.281998
66.180 18.628901
66.185 18.016068
66.190 17.933029
66.195 17.737638
66.200 18.149704
66.205 18.143112
66.210 18.502499
66.215 18.743261
66.220 18.855341
66.225 18.858814
66.230 18.274313
66.235 18.628334
66.240 18.847591
66.245 18.902416
66.250 18.746576
66.255 18.82616
66.260 19.109636
66.265 19.197939
66.270 18.353588
66.275 18.084682
66.280 18.069748
66.285 18.073854
66.290 17.529205
66.295 17.133875
66.300 17.42853
66.305 17.29818
66.310 16.569551
66.315 15.80482
66.320 16.431177
66.325 16.704361
66.330 16.481468
66.335 16.78628
66.340 16.816254
66.345 17.39687
66.350 17.608028
66.355 17.186115
66.360 17.940075
66.365 18.231951
66.370 17.91766
66.375 17.714878
66.380 17.34095
66.385 17.556286
66.390 17.686174
66.395 17.465908
66.400 17.122131
66.405 17.27718
66.410 18.022087
66.415 18.431225
66.420 18.624258
66.425 18.587107
66.430 18.666447
66.435 19.116188
66.440 19.017899
66.445 18.430008
66.450 18.682934
66.455 18.837622
66.460 18.265211
66.465 18.395008
66.470 18.170845
66.475 18.371994
66.480 18.885138
66.485 18.411343
66.490 18.549719
66.495 18.558052
66.500 18.531351
66.505 18.382683
66.510 18.102396
66.515 17.730648
66.520 17.845667
66.525 17.444534
66.530 17.634022
66.535 17.325216
66.540 17.230667
66.545 17.254208
66.550 17.393824
66.555 17.271101
66.560 17.349144
66.565 17.570026
66.570 17.633987
66.575 18.073027
66.580 18.0984
66.585 17.952166
66.590 17.626478
66.595 17.949251
66.600 17.930767
66.605 17.972643
66.610 17.694597
66.615 17.23414
66.620 16.679977
66.625 16.672867
66.630 16.625137
66.635 16.21612
66.640 16.635046
66.645 16.554228
66.650 17.137697
66.655 17.643993
66.660 17.161976
66.665 16.433037
66.670 16.41744
66.675 15.915168
66.680 16.425133
66.685 16.061693
66.690 16.139717
66.695 16.559334
66.700 16.815748
66.705 17.062338
66.710 17.048203
66.715 16.813093
66.720 17.155634
66.725 17.515362
66.730 17.685371
66.735 17.916109
66.740 18.261587
66.745 18.190758
66.750 18.00197
66.755 18.121447
66.760 18.173292
66.765 17.790712
66.770 17.616863
66.775 17.16593
66.780 17.411751
66.785 17.073038
66.790 16.479864
66.795 16.471498
66.800 16.632492
66.805 16.901773
66.810 17.00024
66.815 16.816153
66.820 17.005398
66.825 16.827291
66.830 16.009817
66.835 16.151548
66.840 15.876926
66.845 15.228647
66.850 15.272901
66.855 15.574694
66.860 16.62504
66.865 17.303911
66.870 17.454939
66.875 18.189325
66.880 18.944853
66.885 18.910995
66.890 18.613546
66.895 18.015116
66.900 18.041225
66.905 17.800987
66.910 17.193848
66.915 16.85099
66.920 16.715818
66.925 16.715626
66.930 16.511171
66.935 16.512606
66.940 16.535557
66.945 16.50948
66.950 16.628262
66.955 16.115467
66.960 16.152414
66.965 16.010832
66.970 15.675514
66.975 15.615052
66.980 15.80048
66.985 15.882164
66.990 16.607084
66.995 17.231058
67.000 18.099466
67.005 18.551691
67.010 18.708836
67.015 18.380102
67.020 17.849716
67.025 17.632488
67.030 16.846287
67.035 15.718155
67.040 15.509752
67.045 15.544376
67.050 15.404491
67.055 15.947138
67.060 15.949759
67.065 15.659263
67.070 16.095865
67.075 16.249542
67.080 16.616184
67.085 17.04122
67.090 17.040401
67.095 17.180159
67.100 17.365828
67.105 17.348763
67.110 17.83016
67.115 17.598206
67.120 17.540691
67.125 17.29178
67.130 17.487257
67.135 17.656342
67.140 17.349463
67.145 16.857119
67.150 16.74964
67.155 16.934376
67.160 17.001379
67.165 17.001432
67.170 17.044886
67.175 17.396921
67.180 17.208302
67.185 17.434376
67.190 16.956354
67.195 17.033827
67.200 17.148705
67.205 17.152559
67.210 16.628202
67.215 16.518156
67.220 16.768755
67.225 16.959763
67.230 17.160948
67.235 16.990366
67.240 17.226194
67.245 17.515612
67.250 17.905653
67.255 18.143759
67.260 18.356237
67.265 18.302261
67.270 18.160275
67.275 17.98361
67.280 18.130983
67.285 17.781933
67.290 17.343493
67.295 16.856876
67.300 16.742161
67.305 17.184252
67.310 16.849236
67.315 16.561148
67.320 16.188484
67.325 16.141039
67.330 15.791513
67.335 15.815368
67.340 15.920837
67.345 16.565861
67.350 16.313498
67.355 16.670439
67.360 16.755276
67.365 16.866705
67.370 16.226603
67.375 15.570132
67.380 15.894136
67.385 16.834307
67.390 17.028809
67.395 17.128864
67.400 17.389479
67.405 17.612326
67.410 18.096193
67.415 17.620573
67.420 17.158731
67.425 16.833361
67.430 16.828693
67.435 16.889376
67.440 16.540756
67.445 16.214088
67.450 16.362217
67.455 15.967422
67.460 15.707775
67.465 15.806872
67.470 15.963947
67.475 15.925297
67.480 16.400045
67.485 16.620823
67.490 17.080067
67.495 17.206633
67.500 17.379581
67.505 17.300743
67.510 17.627924
67.515 16.903423
67.520 16.367506
67.525 16.359661
67.530 16.933126
67.535 17.113993
67.540 16.789106
67.545 16.768503
67.550 16.897341
67.555 17.220026
67.560 17.166523
67.565 17.052191
67.570 16.826729
67.575 17.399635
67.580 17.681503
67.585 17.877954
67.590 18.02335
67.595 17.82398
67.600 17.422955
67.605 17.711651
67.610 17.813719
67.615 18.183477
67.620 18.990259
67.625 18.809912
67.630 19.545761
67.635 19.789871
67.640 19.184069
67.645 18.652052
67.650 18.136648
67.655 17.676401
67.660 17.751802
67.665 17.410965
67.670 18.218447
67.675 18.840849
67.680 19.168703
67.685 19.10446
67.690 18.707808
67.695 18.668875
67.700 18.855322
67.705 18.47193
67.710 18.017714
67.715 17.889788
67.720 17.696562
67.725 17.355978
67.730 17.24696
67.735 16.868576
67.740 16.796101
67.745 17.296621
67.750 17.24151
67.755 17.581566
67.760 17.926071
67.765 17.764687
67.770 17.712181
67.775 17.361715
67.780 17.061949
67.785 17.276648
67.790 16.929495
67.795 17.055792
67.800 17.403446
67.805 17.399088
67.810 17.357584
67.815 17.422966
67.820 17.34499
67.825 17.452646
67.830 17.535305
67.835 17.609221
67.840 16.852028
67.845 16.937433
67.850 17.395245
67.855 17.960157
67.860 18.229422
67.865 18.008522
67.870 17.961725
67.875 18.756077
67.880 18.803272
67.885 18.574192
67.890 18.300606
67.895 18.214025
67.900 18.682976
67.905 18.41054
67.910 18.960394
67.915 19.035261
67.920 18.726036
67.925 18.46254
67.930 17.839428
67.935 17.694532
67.940 17.933092
67.945 17.152617
67.950 16.883322
67.955 16.641937
67.960 16.852356
67.965 16.928797
67.970 16.970455
67.975 17.010811
67.980 17.584261
67.985 18.299479
67.990 18.651953
67.995 18.013428
68.000 17.847912
68.005 17.778912
68.010 17.848234
68.015 17.213942
68.020 16.449011
68.025 16.635563
68.030 17.248346
68.035 17.807865
68.040 18.264168
68.045 18.038912
68.050 17.892385
68.055 18.26162
68.060 18.119444
68.065 18.310453
68.070 17.89983
68.075 17.257202
68.080 17.484415
68.085 18.034195
68.090 18.457363
68.095 18.568516
68.100 18.774384
68.105 19.320164
68.110 19.886183
68.115 20.00165
68.120 19.529816
68.125 19.324137
68.130 19.496313
68.135 19.447252
68.140 19.552135
68.145 19.421679
68.150 19.460346
68.155 20.179926
68.160 20.310913
68.165 19.556276
68.170 19.4853
68.175 19.243797
68.180 18.973042
68.185 19.409803
68.190 19.408171
68.195 19.332544
68.200 19.37702
68.205 19.90107
68.210 20.885221
68.215 21.510256
68.220 21.334913
68.225 21.371141
68.230 21.807266
68.235 21.90362
68.240 21.34971
68.245 21.390007
68.250 20.837284
68.255 20.81386
68.260 21.486702
68.265 22.051796
68.270 22.71517
68.275 22.654932
68.280 22.516956
68.285 22.866505
68.290 23.130648
68.295 22.738022
68.300 22.717918
68.305 22.920383
68.310 23.524103
68.315 24.286062
68.320 24.494379
68.325 24.123383
68.330 23.62977
68.335 23.928123
68.340 24.030422
68.345 24.156958
68.350 24.197752
68.355 24.877537
68.360 25.747723
68.365 26.420786
68.370 26.450087
68.375 26.629847
68.380 26.926558
68.385 27.783609
68.390 27.67108
68.395 27.356415
68.400 27.16337
68.405 27.302126
68.410 27.798744
68.415 27.71743
68.420 27.675079
68.425 28.224871
68.430 28.113441
68.435 28.503115
68.440 28.968235
68.445 28.889202
68.450 28.988991
68.455 29.113125
68.460 29.069246
68.465 30.011616
68.470 30.369175
68.475 30.194269
68.480 30.530375
68.485 30.874325
68.490 30.999144
68.495 30.550755
68.500 30.000864
68.505 30.41181
68.510 30.474056
68.515 30.434069
68.520 31.293495
68.525 31.368071
68.530 31.824757
68.535 31.807106
68.540 30.849323
68.545 30.590313
68.550 30.201674
68.555 29.619171
68.560 29.709288
68.565 29.907618
68.570 30.44306
68.575 30.728285
68.580 31.050327
68.585 31.050343
68.590 30.373693
68.595 29.986286
68.600 29.473421
68.605 29.476944
68.610 29.938446
68.615 29.282295
68.620 28.984468
68.625 29.819752
68.630 30.037584
68.635 30.371645
68.640 30.310457
68.645 31.064493
68.650 32.407719
68.655 32.842869
68.660 32.666649
68.665 32.41291
68.670 32.558617
68.675 32.133881
68.680 31.329351
68.685 30.945541
68.690 30.400709
68.695 30.325317
68.700 30.922802
68.705 30.353132
68.710 30.163128
68.715 30.340879
68.720 30.352308
68.725 29.783005
68.730 29.949972
68.735 29.870798
68.740 30.700304
68.745 31.30361
68.750 30.974009
68.755 31.279074
68.760 31.710688
68.765 31.026011
68.770 30.62956
68.775 30.134583
68.780 29.905764
68.785 29.277712
68.790 29.505167
68.795 30.118519
68.800 31.178257
68.805 31.614923
68.810 31.727139
68.815 31.548098
68.820 32.080765
68.825 32.379883
68.830 31.645885
68.835 31.422087
68.840 31.032904
68.845 30.51343
68.850 30.893972
68.855 31.50968
68.860 31.129036
68.865 30.877411
68.870 30.842241
68.875 30.897943
68.880 31.475481
68.885 30.708477
68.890 30.189699
68.895 30.591394
68.900 30.868498
68.905 31.087481
68.910 31.261194
68.915 30.71192
68.920 31.210403
68.925 30.820539
68.930 30.603222
68.935 29.96768
68.940 30.138233
68.945 29.805098
68.950 29.469547
68.955 29.280268
68.960 29.042734
68.965 28.775917
68.970 29.055058
68.975 28.607101
68.980 28.733309
68.985 29.087572
68.990 28.967901
68.995 28.332361
69.000 28.054852
69.005 27.875443
69.010 27.780504
69.015 27.909164
69.020 27.39452
69.025 27.034008
69.030 27.282673
69.035 27.502394
69.040 27.455437
69.045 27.671484
69.050 27.562256
69.055 28.392977
69.060 28.907249
69.065 28.851875
69.070 28.133692
69.075 27.716
69.080 27.766718
69.085 27.292713
69.090 26.579321
69.095 26.059845
69.100 25.595062
69.105 25.854092
69.110 25.86133
69.115 25.117451
69.120 25.374861
69.125 25.141851
69.130 26.086493
69.135 26.268677
69.140 26.267073
69.145 25.377769
69.150 25.100172
69.155 24.786583
69.160 23.957037
69.165 23.464188
69.170 23.464767
69.175 23.190626
69.180 23.511503
69.185 23.783182
69.190 23.830736
69.195 23.678337
69.200 22.787613
69.205 22.518209
69.210 22.549154
69.215 22.466875
69.220 21.888704
69.225 21.817011
69.230 22.007565
69.235 22.402681
69.240 22.581976
69.245 22.621819
69.250 22.474026
69.255 22.020491
69.260 22.053165
69.265 22.128496
69.270 22.139015
69.275 21.182693
69.280 20.618816
69.285 20.377834
69.290 20.219742
69.295 20.154079
69.300 20.307707
69.305 20.073343
69.310 20.294533
69.315 20.217405
69.320 20.372353
69.325 20.485338
69.330 20.326216
69.335 19.817696
69.340 19.429838
69.345 19.21125
69.350 19.133818
69.355 19.061907
69.360 18.620285
69.365 18.979107
69.370 19.078918
69.375 19.149015
69.380 19.283342
69.385 19.206308
69.390 19.161301
69.395 19.391602
69.400 19.052671
69.405 19.012793
69.410 19.007538
69.415 18.922441
69.420 18.870459
69.425 19.268938
69.430 19.625586
69.435 19.80031
69.440 20.170879
69.445 20.047035
69.450 19.986134
69.455 20.218115
69.460 19.853466
69.465 19.39986
69.470 19.55747
69.475 19.398487
69.480 19.613173
69.485 19.859371
69.490 20.240536
69.495 20.437162
69.500 20.48394
69.505 20.229036
69.510 20.038691
69.515 19.811579
69.520 18.987017
69.525 18.467175
69.530 17.700991
69.535 16.971235
69.540 16.447744
69.545 16.722322
69.550 17.439291
69.555 17.576138
69.560 18.232176
69.565 18.334293
69.570 18.391565
69.575 18.355001
69.580 17.870121
69.585 17.315842
69.590 16.814926
69.595 16.621561
69.600 16.975445
69.605 17.607576
69.610 17.753292
69.615 17.340614
69.620 17.643641
69.625 17.822887
69.630 17.50528
69.635 17.774998
69.640 17.496479
69.645 17.543259
69.650 17.721888
69.655 17.8885
69.660 18.283005
69.665 18.454008
69.670 18.431662
69.675 18.528864
69.680 18.632248
69.685 18.476437
69.690 18.178486
69.695 17.246283
69.700 17.092709
69.705 16.958479
69.710 16.885046
69.715 17.092978
69.720 17.349865
69.725 17.669046
69.730 17.568237
69.735 17.581266
69.740 17.878462
69.745 18.165522
69.750 18.338699
69.755 18.011837
69.760 17.796783
69.765 18.007448
69.770 18.407316
69.775 18.420824
69.780 18.407612
69.785 17.97666
69.790 18.447847
69.795 18.986458
69.800 18.451752
69.805 17.670328
69.810 17.634464
69.815 17.768675
69.820 18.285418
69.825 18.35577
69.830 18.543407
69.835 19.254557
69.840 19.599247
69.845 19.311136
69.850 19.00292
69.855 18.757524
69.860 18.037661
69.865 17.369747
69.870 17.394684
69.875 17.27564
69.880 17.093893
69.885 17.282415
69.890 17.323385
69.895 17.67819
69.900 17.998011
69.905 17.688988
69.910 18.129318
69.915 17.979347
69.920 18.17131
69.925 17.707699
69.930 17.9459
69.935 17.973478
69.940 17.661619
69.945 16.908039
69.950 16.463703
69.955 16.342499
69.960 15.797375
69.965 15.762269
69.970 15.960923
69.975 16.472202
69.980 16.752337
69.985 16.671499
69.990 16.305439
69.995 16.917997
70.000 16.669136
70.005 16.384886
70.010 16.477205
70.015 16.606812
70.020 16.955231
70.025 17.590059
70.030 17.814926
70.035 17.834332
70.040 17.099327
70.045 16.48135
70.050 16.608109
70.055 16.353979
70.060 16.212799
70.065 15.66233
70.070 16.428787
70.075 16.94688
70.080 17.681664
70.085 17.709476
70.090 17.874559
70.095 17.631626
70.100 17.824268
70.105 17.661299
70.110 18.028528
70.115 17.92252
70.120 18.248194
70.125 18.417822
70.130 18.610928
70.135 18.309429
70.140 17.770178
70.145 18.020348
70.150 17.777185
70.155 17.568245
70.160 17.7418
70.165 17.976608
70.170 18.283577
70.175 17.662111
70.180 17.275625
70.185 17.614456
70.190 17.889839
70.195 18.014502
70.200 17.561983
70.205 17.422832
70.210 17.451145
70.215 17.150272
70.220 16.762962
70.225 16.017174
70.230 15.464191
70.235 15.695954
70.240 15.747818
70.245 16.137974
70.250 16.252825
70.255 16.685587
70.260 16.938004
70.265 17.075563
70.270 16.982162
70.275 17.122906
70.280 16.735716
70.285 16.579063
70.290 16.632307
70.295 16.583469
70.300 17.074392
70.305 16.888075
70.310 16.981792
70.315 16.947378
70.320 16.449652
70.325 16.033009
70.330 15.943454
70.335 15.917496
70.340 15.920002
70.345 16.495066
70.350 17.251869
70.355 17.389763
70.360 17.512831
70.365 17.460716
70.370 18.116652
70.375 19.144455
70.380 19.06176
70.385 18.706024
70.390 19.272846
70.395 19.125948
70.400 18.845842
70.405 17.983265
70.410 17.035715
70.415 16.476294
70.420 16.279762
70.425 15.983193
70.430 16.061537
70.435 16.253752
70.440 16.190094
70.445 16.244123
70.450 16.373539
70.455 17.168232
70.460 17.238867
70.465 17.151751
70.470 17.11318
70.475 17.199545
70.480 16.968697
70.485 17.5261
70.490 17.44076
70.495 17.343349
70.500 17.850777
70.505 17.848461
70.510 18.041155
70.515 17.861767
70.520 17.225142
70.525 16.709377
70.530 16.395653
70.535 16.204014
70.540 16.117674
70.545 15.471625
70.550 15.555828
70.555 15.68758
70.560 15.916243
70.565 15.885948
70.570 16.15542
70.575 17.032784
70.580 18.317976
70.585 18.706459
70.590 18.978754
70.595 19.20866
70.600 18.966311
70.605 18.587183
70.610 18.337706
70.615 17.747322
70.620 17.62257
70.625 17.466913
70.630 17.54044
70.635 17.445221
70.640 17.347967
70.645 17.202089
70.650 17.681479
70.655 17.745811
70.660 17.485062
70.665 17.565662
70.670 18.133503
70.675 17.787987
70.680 17.400888
70.685 16.969563
70.690 16.689081
70.695 16.842787
70.700 16.844313
70.705 16.718462
70.710 16.791222
70.715 17.375597
70.720 18.096497
70.725 18.646261
70.730 18.642557
70.735 18.122158
70.740 17.8216
70.745 18.117493
70.750 16.865023
70.755 16.548153
70.760 16.610657
70.765 16.93421
70.770 16.791479
70.775 17.286215
70.780 17.073685
70.785 17.623583
70.790 17.478844
70.795 16.911301
70.800 16.841572
70.805 17.302477
70.810 16.927458
70.815 16.774008
70.820 16.409512
70.825 16.107698
70.830 16.13229
70.835 16.287022
70.840 16.019802
70.845 16.171642
70.850 16.858917
70.855 16.819279
70.860 16.919582
70.865 16.522455
70.870 16.078983
70.875 16.322876
70.880 16.510157
70.885 16.625834
70.890 16.800922
70.895 17.256208
70.900 17.856785
70.905 17.796375
70.910 17.849693
70.915 17.123383
70.920 17.038366
70.925 16.89382
70.930 16.81982
70.935 16.918297
70.940 17.102953
70.945 17.30751
70.950 17.675011
70.955 17.333374
70.960 17.254009
70.965 16.723412
70.970 16.438446
70.975 16.554703
70.980 16.507813
70.985 16.819908
70.990 16.970968
70.995 16.868862
71.000 16.552382
71.005 17.237616
71.010 17.084244
71.015 16.966181
71.020 17.231186
71.025 17.533018
71.030 18.130009
71.035 18.048925
71.040 17.528938
71.045 17.338301
71.050 16.999226
71.055 16.385191
71.060 16.266993
71.065 16.318588
71.070 16.19899
71.075 16.1646
71.080 16.120153
71.085 16.126408
71.090 16.239634
71.095 16.194479
71.100 16.290564
71.105 16.453575
71.110 16.503798
71.115 16.96979
71.120 16.934502
71.125 16.857897
71.130 17.128876
71.135 17.706877
71.140 17.714264
71.145 17.675552
71.150 17.212385
71.155 17.212898
71.160 16.665003
71.165 16.218798
71.170 15.884636
71.175 15.802213
71.180 16.186615
71.185 16.118015
71.190 16.262911
71.195 16.744514
71.200 16.807087
71.205 16.729986
71.210 16.920504
71.215 17.125338
71.220 17.548851
71.225 17.481134
71.230 16.92079
71.235 17.164623
71.240 17.129644
71.245 16.737423
71.250 16.296833
71.255 16.443729
71.260 16.939365
71.265 17.089489
71.270 16.756344
71.275 16.638746
71.280 16.931704
71.285 17.543537
71.290 17.3034
71.295 16.799047
71.300 17.175795
71.305 17.492208
71.310 17.523302
71.315 17.306561
71.320 16.857798
71.325 16.88332
71.330 17.714178
71.335 18.16535
71.340 18.488447
71.345 18.497171
71.350 18.689241
71.355 19.078184
71.360 19.355104
71.365 18.612734
71.370 18.223333
71.375 18.445446
71.380 18.544062
71.385 18.085878
71.390 17.542082
71.395 16.805374
71.400 16.58049
71.405 15.907153
71.410 15.80295
71.415 16.193111
71.420 16.332573
71.425 16.684958
71.430 16.649185
71.435 17.058449
71.440 17.425827
71.445 16.722786
71.450 16.466074
71.455 16.207481
71.460 16.673094
71.465 16.944773
71.470 17.028603
71.475 17.415895
71.480 17.660856
71.485 17.764416
71.490 17.658598
71.495 17.03883
71.500 17.567652
71.505 17.571356
71.510 17.322702
71.515 17.105453
71.520 16.890619
71.525 17.117128
71.530 17.168587
71.535 16.653826
71.540 16.480606
71.545 16.591084
71.550 16.848505
71.555 17.082787
71.560 17.239714
71.565 17.491417
71.570 17.283335
71.575 17.345352
71.580 17.442217
71.585 17.375809
71.590 17.482378
71.595 17.264091
71.600 17.184467
71.605 17.59791
71.610 17.475725
71.615 17.30928
71.620 17.052599
71.625 16.514004
71.630 15.758032
71.635 15.42796
71.640 14.545603
71.645 14.447824
71.650 14.934085
71.655 15.436675
71.660 15.989798
71.665 16.629591
71.670 16.868692
71.675 17.278381
71.680 17.274565
71.685 17.273115
71.690 17.309393
71.695 17.37011
71.700 17.228682
71.705 16.941122
71.710 17.227024
71.715 17.357895
71.720 16.907799
71.725 16.501156
71.730 16.388115
71.735 16.78933
71.740 17.616318
71.745 17.239059
71.750 17.17337
71.755 17.419666
71.760 17.819057
71.765 17.551344
71.770 16.833014
71.775 16.722696
71.780 16.78672
71.785 16.423887
71.790 16.382364
71.795 16.350405
71.800 16.756937
71.805 16.838161
71.810 16.293211
71.815 16.177845
71.820 16.49612
71.825 16.43503
71.830 16.068905
71.835 16.132784
71.840 16.126219
71.845 16.484156
71.850 16.010479
71.855 15.609757
71.860 15.809671
71.865 15.849346
71.870 15.367172
71.875 15.694472
71.880 16.07254
71.885 16.821175
71.890 16.668095
71.895 16.449661
71.900 16.829676
71.905 17.513285
71.910 17.121561
71.915 17.114622
71.920 17.279451
71.925 17.353655
71.930 17.050957
71.935 16.820463
71.940 16.709507
71.945 17.071928
71.950 17.644489
71.955 17.774458
71.960 18.121864
71.965 18.565924
71.970 18.665092
71.975 18.370432
71.980 18.299345
71.985 18.143032
71.990 17.99407
71.995 17.890844
72.000 17.63014
72.005 17.574558
72.010 17.506712
72.015 17.511625
72.020 17.362057
72.025 16.991301
72.030 16.946899
72.035 16.942993
72.040 16.712154
72.045 17.154095
72.050 16.831825
72.055 16.546501
72.060 16.947353
72.065 16.900763
72.070 16.963896
72.075 17.172543
72.080 16.700907
72.085 16.641283
72.090 16.608973
72.095 16.377403
72.100 16.656898
72.105 16.238745
72.110 15.875173
72.115 15.741771
72.120 15.820924
72.125 15.951717
72.130 15.448858
72.135 15.45179
72.140 15.969749
72.145 15.83987
72.150 15.778975
72.155 15.452622
72.160 15.957773
72.165 16.336344
72.170 16.530775
72.175 16.796951
72.180 17.103374
72.185 17.513855
72.190 17.693499
72.195 17.506998
72.200 17.072311
72.205 16.655943
72.210 16.120298
72.215 16.364214
72.220 15.694081
72.225 15.321315
72.230 14.870838
72.235 14.97456
72.240 15.105433
72.245 14.797053
72.250 14.620195
72.255 14.963301
72.260 15.01047
72.265 15.334083
72.270 15.375676
72.275 15.39237
72.280 15.791106
72.285 15.827437
72.290 16.034243
72.295 16.560806
72.300 16.410866
72.305 16.890671
72.310 17.107786
72.315 17.142473
72.320 17.106901
72.325 16.532209
72.330 16.569241
72.335 16.798008
72.340 16.101715
72.345 16.224594
72.350 16.458866
72.355 16.589874
72.360 16.446417
72.365 16.229345
72.370 16.358681
72.375 16.360968
72.380 16.275719
72.385 16.350071
72.390 16.059179
72.395 16.315748
72.400 16.448971
72.405 16.338617
72.410 16.583057
72.415 15.901768
72.420 15.812906
72.425 16.540665
72.430 16.53776
72.435 16.344027
72.440 16.24402
72.445 16.244503
72.450 16.621389
72.455 16.883854
72.460 16.410509
72.465 16.275799
72.470 16.185022
72.475 15.944126
72.480 15.947645
72.485 15.58544
72.490 14.933444
72.495 15.175071
72.500 15.24783
72.505 15.319157
72.510 15.880316
72.515 16.148439
72.520 16.13534
72.525 16.310482
72.530 15.941598
72.535 16.428286
72.540 16.068485
72.545 15.638368
72.550 15.568664
72.555 16.186249
72.560 16.074417
72.565 15.959088
72.570 16.079784
72.575 16.335306
72.580 16.526281
72.585 16.587267
72.590 16.895191
72.595 17.064337
72.600 17.300484
72.605 17.280024
72.610 17.776897
72.615 17.609184
72.620 17.55669
72.625 17.478848
72.630 17.485296
72.635 17.389269
72.640 17.331594
72.645 16.864136
72.650 16.477179
72.655 16.061321
72.660 16.166653
72.665 15.849413
72.670 15.699018
72.675 15.735095
72.680 15.509368
72.685 15.79285
72.690 16.395504
72.695 16.306026
72.700 16.263977
72.705 16.454105
72.710 16.42013
72.715 16.849874
72.720 16.839893
72.725 15.527582
72.730 15.677217
72.735 15.362096
72.740 14.735814
72.745 15.076735
72.750 15.347621
72.755 15.735132
72.760 16.1029
72.765 16.766872
72.770 16.989485
72.775 17.207439
72.780 16.733633
72.785 16.292234
72.790 15.553966
72.795 15.677814
72.800 15.406445
72.805 15.359801
72.810 15.089684
72.815 15.02178
72.820 15.015574
72.825 15.921177
72.830 15.933732
72.835 16.187181
72.840 16.799917
72.845 16.9293
72.850 16.952497
72.855 16.927702
72.860 16.860424
72.865 17.322355
72.870 17.097752
72.875 16.928047
72.880 16.855028
72.885 16.83465
72.890 16.645199
72.895 16.750301
72.900 16.2549
72.905 16.086851
72.910 16.31041
72.915 16.339226
72.920 16.260603
72.925 15.779006
72.930 15.237956
72.935 15.596812
72.940 15.889674
72.945 15.735425
72.950 15.812126
72.955 15.963718
72.960 16.300146
72.965 16.096272
72.970 15.960382
72.975 15.348692
72.980 15.396061
72.985 15.327906
72.990 15.784394
72.995 15.991917
73.000 15.665864
