!@!!GADDS PLOTSO FILE: Chi integration type
!@!!Title/SampleName: map-151
!@!!Comment: ?
!@!!User: Bruker Instrument Administrator
!@!!Site: University of Illinois Chicago
!@!!Frame: map-151_01_000.gfrm
!@!!Wavelengths    1.54184   1.54056   1.54439
!@!!Frame angles: 2Theta: 63.000 Omega: 50.000 Phi: 0.000 Chi: 90.000
!@!!Integration range: 2Theta: 53.000 to 73.000  Gamma: -105.000 to -75.000
!@!!Integration method: bin normalized
!@!N
!@!SS
!@!M
!@!L 0.0 0.0 0.0 0.0
!@!XDegrees
!@!YCounts
53.000 9.819839
53.005 9.22805
53.010 9.052929
53.015 8.433747
53.020 7.82695
53.025 7.46802
53.030 7.297448
53.035 7.612382
53.040 7.879104
53.045 7.579195
53.050 7.747593
53.055 7.691863
53.060 7.966794
53.065 8.035289
53.070 8.45122
53.075 8.76721
53.080 8.84386
53.085 8.831713
53.090 9.160787
53.095 9.34705
53.100 9.351356
53.105 8.82513
53.110 8.447401
53.115 8.945489
53.120 9.080227
53.125 9.125315
53.130 9.059483
53.135 8.809049
53.140 8.833303
53.145 8.82401
53.150 8.427711
53.155 8.242615
53.160 8.287135
53.165 8.309068
53.170 8.660329
53.175 8.657743
53.180 8.811304
53.185 9.102741
53.190 9.735725
53.195 9.813759
53.200 9.960291
53.205 10.138935
53.210 10.619975
53.215 10.634468
53.220 10.616464
53.225 10.646964
53.230 10.902554
53.235 11.267941
53.240 11.113054
53.245 10.965738
53.250 10.550015
53.255 10.355004
53.260 10.076788
53.265 9.433404
53.270 8.809193
53.275 8.505023
53.280 8.484316
53.285 8.809486
53.290 8.882378
53.295 8.485909
53.300 8.540697
53.305 8.623007
53.310 8.630187
53.315 8.760433
53.320 8.613443
53.325 9.165639
53.330 9.567502
53.335 9.857624
53.340 10.567206
53.345 10.595472
53.350 10.523986
53.355 10.179081
53.360 9.980089
53.365 10.262856
53.370 9.883924
53.375 9.672479
53.380 9.967528
53.385 10.092589
53.390 10.379514
53.395 9.912672
53.400 9.611229
53.405 9.669677
53.410 9.584232
53.415 9.189978
53.420 9.1636
53.425 9.124015
53.430 9.447711
53.435 9.61839
53.440 9.405406
53.445 9.400325
53.450 9.675707
53.455 9.888807
53.460 9.623999
53.465 9.735563
53.470 9.971254
53.475 10.146663
53.480 10.205358
53.485 9.787259
53.490 9.797982
53.495 9.91083
53.500 9.827587
53.505 9.216458
53.510 9.058372
53.515 8.834675
53.520 9.03725
53.525 9.013858
53.530 8.699109
53.535 8.85794
53.540 9.260547
53.545 9.553378
53.550 9.562783
53.555 9.188833
53.560 9.067477
53.565 9.102714
53.570 8.811193
53.575 8.658465
53.580 8.603838
53.585 8.723372
53.590 9.112796
53.595 8.913265
53.600 8.705549
53.605 8.35893
53.610 8.170515
53.615 7.886493
53.620 8.459034
53.625 8.800655
53.630 9.117139
53.635 9.629819
53.640 10.336763
53.645 10.650803
53.650 10.857741
53.655 10.443872
53.660 10.479339
53.665 10.694001
53.670 10.378386
53.675 9.981867
53.680 9.483163
53.685 9.515507
53.690 9.045541
53.695 8.239202
53.700 7.744987
53.705 7.501214
53.710 7.763299
53.715 8.325941
53.720 8.613699
53.725 9.250953
53.730 9.773493
53.735 9.956978
53.740 10.278129
53.745 9.981732
53.750 9.354983
53.755 8.965792
53.760 8.481404
53.765 8.752098
53.770 9.361959
53.775 9.411872
53.780 9.71767
53.785 10.296737
53.790 10.542752
53.795 10.525418
53.800 9.89525
53.805 9.297015
53.810 9.456758
53.815 9.37431
53.820 9.275207
53.825 9.783798
53.830 9.922859
53.835 10.0181
53.840 9.97992
53.845 9.91757
53.850 9.761832
53.855 9.634331
53.860 9.304667
53.865 9.418652
53.870 9.632284
53.875 9.659905
53.880 9.847826
53.885 9.984843
53.890 9.98386
53.895 10.321733
53.900 10.127957
53.905 10.08254
53.910 10.397552
53.915 10.420445
53.920 10.508106
53.925 9.995492
53.930 9.808131
53.935 9.966737
53.940 9.826664
53.945 9.741613
53.950 9.439502
53.955 9.326211
53.960 9.359123
53.965 9.517485
53.970 9.82373
53.975 9.907389
53.980 9.725418
53.985 9.26731
53.990 9.08985
53.995 9.136671
54.000 8.7837
54.005 8.65217
54.010 8.495703
54.015 8.659883
54.020 9.16622
54.025 9.55301
54.030 10.092151
54.035 10.436891
54.040 10.511522
54.045 10.831107
54.050 10.731397
54.055 10.649322
54.060 10.232344
54.065 9.483252
54.070 9.138471
54.075 8.941571
54.080 8.953361
54.085 8.891609
54.090 8.45632
54.095 8.220608
54.100 8.67148
54.105 9.031992
54.110 9.275333
54.115 9.218996
54.120 9.193654
54.125 9.242903
54.130 9.463456
54.135 9.024362
54.140 9.039028
54.145 8.87999
54.150 8.766618
54.155 8.881233
54.160 9.357244
54.165 9.803576
54.170 10.111328
54.175 10.055516
54.180 10.017858
54.185 10.233654
54.190 10.218335
54.195 10.224742
54.200 10.428129
54.205 10.583901
54.210 10.635598
54.215 10.452179
54.220 10.358303
54.225 10.611875
54.230 10.202914
54.235 9.884714
54.240 9.763252
54.245 9.764119
54.250 9.917639
54.255 10.33079
54.260 10.920596
54.265 11.496346
54.270 11.253416
54.275 11.14626
54.280 11.04087
54.285 11.131111
54.290 10.745909
54.295 9.793921
54.300 9.363878
54.305 9.570479
54.310 9.288841
54.315 9.34686
54.320 9.544177
54.325 9.916098
54.330 10.186631
54.335 10.415947
54.340 10.464963
54.345 10.250816
54.350 10.037154
54.355 10.041856
54.360 9.817579
54.365 9.68779
54.370 9.41065
54.375 9.580292
54.380 9.91036
54.385 9.677569
54.390 9.404144
54.395 9.2907
54.400 9.134828
54.405 9.246299
54.410 9.152841
54.415 9.1227
54.420 9.136851
54.425 9.061572
54.430 9.18633
54.435 9.064438
54.440 8.699384
54.445 8.546677
54.450 8.515662
54.455 8.695315
54.460 8.82727
54.465 8.886292
54.470 9.359294
54.475 9.954271
54.480 10.071813
54.485 10.298478
54.490 10.108161
54.495 9.962211
54.500 9.919171
54.505 9.466364
54.510 9.113129
54.515 9.287941
54.520 9.863679
54.525 10.032485
54.530 10.031026
54.535 9.86596
54.540 10.091188
54.545 10.369133
54.550 9.876356
54.555 9.13388
54.560 9.079783
54.565 9.459692
54.570 9.682144
54.575 9.795685
54.580 9.16524
54.585 9.508617
54.590 10.03476
54.595 10.182376
54.600 10.387376
54.605 10.971439
54.610 11.07493
54.615 11.440318
54.620 11.143603
54.625 10.960517
54.630 10.870466
54.635 10.66372
54.640 10.175943
54.645 10.326096
54.650 10.350819
54.655 10.790611
54.660 10.750247
54.665 10.369055
54.670 10.018622
54.675 9.393142
54.680 9.313264
54.685 9.768724
54.690 9.816538
54.695 10.189713
54.700 10.950637
54.705 11.322556
54.710 11.909575
54.715 11.549751
54.720 10.937177
54.725 10.74365
54.730 10.07053
54.735 9.606942
54.740 9.663816
54.745 9.732668
54.750 10.301364
54.755 10.410336
54.760 10.026077
54.765 9.857578
54.770 9.606844
54.775 9.448171
54.780 9.322414
54.785 8.814317
54.790 9.016994
54.795 9.801837
54.800 10.614896
54.805 11.028163
54.810 10.926465
54.815 11.370783
54.820 11.598154
54.825 11.506896
54.830 11.372782
54.835 11.037921
54.840 11.003448
54.845 10.590006
54.850 10.163568
54.855 9.665774
54.860 9.338592
54.865 9.068764
54.870 9.08763
54.875 9.223056
54.880 9.673099
54.885 9.778911
54.890 9.876042
54.895 9.636331
54.900 9.499439
54.905 9.518441
54.910 9.751587
54.915 9.925367
54.920 10.321128
54.925 10.263558
54.930 10.216327
54.935 9.885349
54.940 9.651988
54.945 9.878413
54.950 9.917326
54.955 9.832415
54.960 10.160677
54.965 10.506752
54.970 10.719642
54.975 10.694819
54.980 10.27907
54.985 10.344959
54.990 10.650601
54.995 10.445127
55.000 10.428992
55.005 10.666344
55.010 11.052987
55.015 11.19307
55.020 10.967575
55.025 11.438807
55.030 11.393747
55.035 11.487489
55.040 11.332708
55.045 10.765222
55.050 10.365933
55.055 10.042641
55.060 9.833083
55.065 10.091564
55.070 10.128345
55.075 10.159674
55.080 10.56521
55.085 10.598191
55.090 10.398307
55.095 10.177475
55.100 9.985678
55.105 10.295516
55.110 10.572274
55.115 10.12867
55.120 10.125227
55.125 10.238679
55.130 10.620247
55.135 10.318626
55.140 9.654138
55.145 9.558625
55.150 10.20985
55.155 10.231739
55.160 9.943214
55.165 9.936229
55.170 10.652316
55.175 10.75701
55.180 10.606717
55.185 10.29705
55.190 10.382121
55.195 10.067216
55.200 9.716049
55.205 9.570928
55.210 9.381331
55.215 9.338136
55.220 9.196136
55.225 9.466775
55.230 9.500057
55.235 9.357756
55.240 9.342307
55.245 9.507802
55.250 9.525989
55.255 9.012447
55.260 8.883575
55.265 9.24062
55.270 9.491661
55.275 9.440097
55.280 9.449201
55.285 9.891108
55.290 10.318756
55.295 10.423136
55.300 10.118335
55.305 9.86634
55.310 9.97801
55.315 9.918435
55.320 9.7508
55.325 9.909323
55.330 9.681965
55.335 9.740783
55.340 9.921549
55.345 9.875925
55.350 10.245756
55.355 10.418019
55.360 10.767458
55.365 11.037214
55.370 11.349579
55.375 11.345267
55.380 11.467299
55.385 11.229381
55.390 10.727057
55.395 10.470273
55.400 10.142178
55.405 9.93826
55.410 9.78182
55.415 9.524316
55.420 9.483681
55.425 9.933776
55.430 9.979346
55.435 10.386899
55.440 10.16985
55.445 10.21921
55.450 10.346725
55.455 10.097501
55.460 9.915811
55.465 9.658154
55.470 9.72871
55.475 10.234763
55.480 10.447791
55.485 10.578457
55.490 11.075119
55.495 11.100151
55.500 11.220008
55.505 10.988453
55.510 10.423918
55.515 10.013848
55.520 10.121675
55.525 10.310839
55.530 9.884499
55.535 9.882585
55.540 10.025241
55.545 10.586468
55.550 10.860002
55.555 10.618531
55.560 10.256016
55.565 10.582311
55.570 10.643875
55.575 10.699761
55.580 10.61844
55.585 10.419612
55.590 10.249026
55.595 10.013392
55.600 9.964268
55.605 9.81446
55.610 9.962047
55.615 9.823956
55.620 9.723246
55.625 9.965108
55.630 9.915807
55.635 10.395444
55.640 11.034951
55.645 10.793112
55.650 11.205
55.655 11.469193
55.660 11.394743
55.665 11.675106
55.670 11.596802
55.675 11.050362
55.680 10.793978
55.685 10.544933
55.690 10.326825
55.695 10.194643
55.700 9.946624
55.705 9.390203
55.710 9.430573
55.715 9.238199
55.720 9.230374
55.725 9.866853
55.730 10.020763
55.735 10.08889
55.740 10.058888
55.745 9.675779
55.750 10.361864
55.755 10.231755
55.760 10.355809
55.765 11.084002
55.770 11.298474
55.775 11.311009
55.780 11.53408
55.785 11.120029
55.790 10.739142
55.795 10.00081
55.800 9.484591
55.805 9.633806
55.810 9.859857
55.815 9.748152
55.820 9.92963
55.825 10.223443
55.830 10.16785
55.835 10.288727
55.840 10.420133
55.845 10.857136
55.850 11.667775
55.855 11.694527
55.860 11.771615
55.865 12.038419
55.870 11.594565
55.875 11.244335
55.880 10.786391
55.885 10.577236
55.890 10.506265
55.895 10.664963
55.900 10.28545
55.905 10.541606
55.910 10.127409
55.915 9.927938
55.920 9.299266
55.925 9.011503
55.930 8.847449
55.935 9.225964
55.940 9.486912
55.945 10.344813
55.950 11.163794
55.955 11.652092
55.960 11.45325
55.965 11.313501
55.970 11.064564
55.975 10.614302
55.980 9.900319
55.985 9.250113
55.990 8.935847
55.995 9.052388
56.000 9.28149
56.005 9.788929
56.010 9.863987
56.015 10.034851
56.020 10.612162
56.025 11.114869
56.030 11.236631
56.035 11.022947
56.040 10.799176
56.045 10.920279
56.050 11.178348
56.055 10.645686
56.060 10.386372
56.065 10.46798
56.070 10.290522
56.075 10.394958
56.080 10.305738
56.085 9.988931
56.090 9.963099
56.095 10.238464
56.100 10.190701
56.105 10.06311
56.110 9.895598
56.115 9.911831
56.120 10.042856
56.125 10.420249
56.130 10.135653
56.135 10.100732
56.140 10.311717
56.145 10.395933
56.150 10.231541
56.155 10.000044
56.160 9.549748
56.165 9.77587
56.170 10.241476
56.175 9.909611
56.180 10.060338
56.185 10.13905
56.190 10.457508
56.195 10.708194
56.200 10.50749
56.205 10.085392
56.210 9.914564
56.215 9.742604
56.220 9.407625
56.225 9.646469
56.230 10.018848
56.235 10.183904
56.240 10.37699
56.245 10.581211
56.250 10.383192
56.255 10.855522
56.260 10.722858
56.265 10.31111
56.270 10.214583
56.275 10.180961
56.280 10.337521
56.285 10.97164
56.290 10.876676
56.295 10.978159
56.300 11.085726
56.305 11.193352
56.310 11.392194
56.315 11.130371
56.320 10.716771
56.325 10.517264
56.330 10.814632
56.335 11.419994
56.340 11.753125
56.345 11.835381
56.350 12.023955
56.355 12.024212
56.360 11.748695
56.365 11.276537
56.370 10.814594
56.375 10.6083
56.380 10.329897
56.385 9.816339
56.390 9.553684
56.395 9.890138
56.400 9.725469
56.405 9.695915
56.410 9.698956
56.415 9.737144
56.420 10.21535
56.425 10.472932
56.430 10.445926
56.435 10.842055
56.440 11.068425
56.445 11.116851
56.450 11.262466
56.455 11.808309
56.460 12.119321
56.465 12.039634
56.470 12.03652
56.475 12.069933
56.480 12.002674
56.485 12.170637
56.490 12.046478
56.495 11.788498
56.500 12.121824
56.505 12.203153
56.510 12.257531
56.515 12.35201
56.520 12.415306
56.525 12.761975
56.530 12.891158
56.535 12.657037
56.540 12.524134
56.545 12.409546
56.550 12.503967
56.555 12.370187
56.560 12.273988
56.565 12.30553
56.570 11.520258
56.575 11.36632
56.580 11.520105
56.585 11.835514
56.590 12.054472
56.595 11.620792
56.600 11.686639
56.605 12.713404
56.610 12.835521
56.615 12.405247
56.620 11.870803
56.625 11.619161
56.630 11.633309
56.635 11.495466
56.640 11.073952
56.645 11.051927
56.650 11.203522
56.655 11.024161
56.660 11.176956
56.665 10.999079
56.670 11.188248
56.675 11.05908
56.680 10.942727
56.685 11.033736
56.690 11.09286
56.695 10.420665
56.700 10.439305
56.705 10.432734
56.710 10.558816
56.715 10.572509
56.720 10.874113
56.725 11.359278
56.730 12.151381
56.735 12.708836
56.740 12.7501
56.745 12.996453
56.750 12.59495
56.755 12.410974
56.760 12.543393
56.765 11.913094
56.770 11.010736
56.775 10.691054
56.780 10.538888
56.785 11.289385
56.790 11.503204
56.795 11.195868
56.800 11.491472
56.805 11.892701
56.810 12.073876
56.815 11.87678
56.820 11.741825
56.825 11.123728
56.830 10.94253
56.835 10.764658
56.840 10.577219
56.845 10.513216
56.850 10.201111
56.855 9.748773
56.860 9.776519
56.865 9.787553
56.870 10.200397
56.875 10.171165
56.880 10.228268
56.885 10.493114
56.890 10.49006
56.895 10.540992
56.900 10.618991
56.905 10.622441
56.910 10.859703
56.915 10.74472
56.920 10.625413
56.925 10.779783
56.930 10.702936
56.935 10.306567
56.940 9.908175
56.945 10.091394
56.950 10.504756
56.955 10.732741
56.960 10.847381
56.965 10.98696
56.970 11.307316
56.975 11.669871
56.980 11.115805
56.985 10.673982
56.990 10.724095
56.995 10.751692
57.000 10.594175
57.005 10.291762
57.010 9.822202
57.015 9.738386
57.020 10.046638
57.025 9.929479
57.030 10.061033
57.035 10.185316
57.040 10.512852
57.045 10.698657
57.050 10.92573
57.055 10.645106
57.060 10.342997
57.065 10.121493
57.070 9.971489
57.075 9.543095
57.080 9.837538
57.085 10.074375
57.090 10.4042
57.095 10.694
57.100 10.958283
57.105 11.121444
57.110 11.659063
57.115 11.718261
57.120 11.328777
57.125 10.989644
57.130 11.034845
57.135 10.70098
57.140 10.5048
57.145 10.216394
57.150 9.528095
57.155 9.337111
57.160 9.452612
57.165 9.280133
57.170 9.784435
57.175 9.950233
57.180 9.988933
57.185 10.257891
57.190 10.822462
57.195 10.906321
57.200 10.932707
57.205 10.856401
57.210 10.503343
57.215 10.49614
57.220 10.623627
57.225 10.54543
57.230 10.587608
57.235 10.436101
57.240 10.541987
57.245 10.614733
57.250 10.996453
57.255 11.208507
57.260 10.897469
57.265 10.586253
57.270 10.225183
57.275 10.234878
57.280 10.824224
57.285 10.626986
57.290 10.308746
57.295 10.436977
57.300 10.831921
57.305 11.719312
57.310 11.817125
57.315 11.16108
57.320 10.695478
57.325 10.588638
57.330 10.425691
57.335 10.258184
57.340 9.900817
57.345 9.931297
57.350 10.531439
57.355 10.92294
57.360 11.150886
57.365 11.743916
57.370 11.970243
57.375 12.026515
57.380 12.009078
57.385 11.694551
57.390 11.75975
57.395 11.826335
57.400 11.164462
57.405 10.778253
57.410 10.399107
57.415 9.849962
57.420 9.472782
57.425 9.229681
57.430 8.890936
57.435 9.385149
57.440 9.590205
57.445 9.849742
57.450 10.55272
57.455 10.622935
57.460 10.552157
57.465 10.587641
57.470 9.942805
57.475 9.436316
57.480 9.136744
57.485 8.592156
57.490 8.74934
57.495 9.04213
57.500 8.996017
57.505 9.3325
57.510 9.615872
57.515 9.886064
57.520 10.467546
57.525 10.437122
57.530 10.810512
57.535 10.982309
57.540 11.07058
57.545 11.295546
57.550 11.128596
57.555 11.020601
57.560 11.5674
57.565 11.648643
57.570 11.746053
57.575 12.095306
57.580 11.438884
57.585 11.421772
57.590 10.902551
57.595 10.24579
57.600 10.420072
57.605 10.60988
57.610 10.486923
57.615 11.031395
57.620 10.919724
57.625 11.245985
57.630 11.187805
57.635 10.777849
57.640 10.856938
57.645 10.84936
57.650 11.086119
57.655 11.328528
57.660 11.001759
57.665 10.887413
57.670 10.604273
57.675 10.118899
57.680 9.772974
57.685 9.445896
57.690 9.53878
57.695 9.470398
57.700 9.429128
57.705 9.731317
57.710 9.660318
57.715 9.778684
57.720 9.822953
57.725 9.803583
57.730 10.332823
57.735 10.70939
57.740 10.806625
57.745 11.235954
57.750 11.953202
57.755 11.874497
57.760 11.707705
57.765 11.481129
57.770 11.262616
57.775 11.349336
57.780 11.033667
57.785 10.644508
57.790 10.928861
57.795 11.105495
57.800 11.021077
57.805 10.960884
57.810 11.027162
57.815 11.363976
57.820 11.67958
57.825 11.648917
57.830 11.313623
57.835 11.4536
57.840 11.139899
57.845 10.996789
57.850 10.855281
57.855 10.541596
57.860 10.731956
57.865 10.794817
57.870 10.84337
57.875 10.841169
57.880 10.718182
57.885 10.637921
57.890 10.583611
57.895 10.312728
57.900 10.330372
57.905 10.444958
57.910 10.614427
57.915 10.610966
57.920 10.889479
57.925 10.975826
57.930 10.977306
57.935 10.983322
57.940 10.964442
57.945 11.086214
57.950 11.3199
57.955 11.534989
57.960 11.589035
57.965 11.674915
57.970 12.322536
57.975 12.695151
57.980 12.962199
57.985 12.749661
57.990 12.671888
57.995 12.681173
58.000 12.455512
58.005 11.748322
58.010 11.568655
58.015 11.768728
58.020 11.511154
58.025 11.120848
58.030 11.203254
58.035 11.080005
58.040 11.234495
58.045 10.927065
58.050 10.946464
58.055 11.085187
58.060 11.460591
58.065 12.07602
58.070 12.557773
58.075 12.656147
58.080 12.542952
58.085 12.315664
58.090 11.973444
58.095 11.638412
58.100 11.63613
58.105 11.788458
58.110 12.260815
58.115 12.524618
58.120 12.634449
58.125 12.991862
58.130 12.977754
58.135 12.145549
58.140 11.793025
58.145 11.24472
58.150 11.434644
58.155 11.626284
58.160 11.256631
58.165 11.233373
58.170 11.79914
58.175 11.507058
58.180 11.254629
58.185 10.641397
58.190 10.554612
58.195 10.980857
58.200 10.946778
58.205 11.007883
58.210 11.363816
58.215 12.045029
58.220 12.274308
58.225 12.214527
58.230 11.839891
58.235 11.35255
58.240 11.300912
58.245 11.244669
58.250 11.088315
58.255 11.135275
58.260 11.28721
58.265 11.765868
58.270 12.36229
58.275 12.390465
58.280 12.563062
58.285 12.793238
58.290 12.897208
58.295 12.400907
58.300 12.34873
58.305 12.3529
58.310 12.231021
58.315 12.287756
58.320 12.195377
58.325 12.275357
58.330 13.161427
58.335 13.231594
58.340 13.508733
58.345 13.841046
58.350 13.638652
58.355 13.580792
58.360 13.526784
58.365 13.385261
58.370 13.407148
58.375 13.202251
58.380 12.908053
58.385 12.969757
58.390 13.373113
58.395 13.083774
58.400 12.952699
58.405 13.069775
58.410 13.057641
58.415 12.899054
58.420 12.218141
58.425 12.386092
58.430 12.806562
58.435 13.120524
58.440 12.797828
58.445 13.034419
58.450 13.078678
58.455 13.277827
58.460 13.023661
58.465 13.186584
58.470 13.324559
58.475 13.070494
58.480 13.008129
58.485 13.241075
58.490 13.840245
58.495 14.065234
58.500 14.001211
58.505 14.154999
58.510 14.929324
58.515 15.616488
58.520 15.593865
58.525 14.988005
58.530 14.474289
58.535 14.385893
58.540 13.989285
58.545 13.559023
58.550 12.785598
58.555 13.288269
58.560 13.874888
58.565 14.038878
58.570 14.077435
58.575 13.819557
58.580 13.764508
58.585 13.59016
58.590 13.250569
58.595 12.710175
58.600 12.642718
58.605 12.359914
58.610 12.485405
58.615 12.894211
58.620 13.548254
58.625 13.758387
58.630 13.980558
58.635 14.212859
58.640 14.511158
58.645 14.69123
58.650 14.799211
58.655 14.322413
58.660 14.545529
58.665 14.313964
58.670 13.717734
58.675 13.711061
58.680 13.876706
58.685 13.512027
58.690 13.418429
58.695 13.474875
58.700 13.988744
58.705 14.310892
58.710 13.920631
58.715 13.151916
58.720 12.953495
58.725 13.030705
58.730 12.450416
58.735 11.930176
58.740 11.722731
58.745 12.048485
58.750 12.615107
58.755 12.943097
58.760 12.971718
58.765 12.781521
58.770 12.983491
58.775 13.185416
58.780 13.182426
58.785 13.160168
58.790 12.83451
58.795 13.17895
58.800 13.789709
58.805 13.486773
58.810 13.212511
58.815 13.016181
58.820 13.246606
58.825 13.393838
58.830 12.727798
58.835 12.12358
58.840 12.662353
58.845 12.675372
58.850 12.415691
58.855 12.071427
58.860 11.680363
58.865 11.775026
58.870 11.890141
58.875 11.373667
58.880 11.425418
58.885 11.6822
58.890 12.146434
58.895 12.22134
58.900 12.198064
58.905 12.449406
58.910 13.041761
58.915 13.143267
58.920 13.130694
58.925 12.990537
58.930 13.584485
58.935 13.853391
58.940 13.581013
58.945 13.308654
58.950 13.137269
58.955 12.720958
58.960 12.761971
58.965 12.848765
58.970 12.793554
58.975 13.037447
58.980 13.404794
58.985 13.353829
58.990 13.654588
58.995 13.66163
59.000 12.842805
59.005 13.058165
59.010 13.01053
59.015 12.42019
59.020 12.260459
59.025 12.183329
59.030 11.928712
59.035 12.240801
59.040 11.887299
59.045 11.711386
59.050 11.616002
59.055 11.586082
59.060 11.187582
59.065 11.468823
59.070 11.5109
59.075 11.222475
59.080 11.039974
59.085 11.303864
59.090 11.67463
59.095 12.25691
59.100 12.275808
59.105 12.637009
59.110 12.805994
59.115 12.817131
59.120 12.745123
59.125 12.497623
59.130 12.1924
59.135 11.932511
59.140 11.683721
59.145 11.861553
59.150 11.89055
59.155 12.178043
59.160 12.556972
59.165 12.541021
59.170 12.729702
59.175 12.817577
59.180 12.517457
59.185 12.164387
59.190 11.655642
59.195 11.335522
59.200 11.376277
59.205 11.339705
59.210 11.601879
59.215 11.420985
59.220 11.594823
59.225 11.740066
59.230 11.532961
59.235 11.376027
59.240 11.096601
59.245 10.698814
59.250 10.816771
59.255 10.659663
59.260 10.799404
59.265 10.932999
59.270 10.837376
59.275 10.778202
59.280 11.15172
59.285 11.369471
59.290 11.088763
59.295 11.076076
59.300 11.10832
59.305 11.138573
59.310 11.27518
59.315 11.067646
59.320 11.108898
59.325 12.02977
59.330 11.787849
59.335 11.593892
59.340 11.788584
59.345 11.888962
59.350 12.289153
59.355 12.273457
59.360 11.714952
59.365 12.222896
59.370 12.573404
59.375 12.219329
59.380 11.999696
59.385 11.759237
59.390 11.766176
59.395 12.014849
59.400 11.755798
59.405 11.489901
59.410 11.49547
59.415 11.104842
59.420 11.113824
59.425 11.15603
59.430 10.868217
59.435 10.901957
59.440 11.256128
59.445 11.848482
59.450 11.818014
59.455 11.873325
59.460 11.541342
59.465 11.428985
59.470 11.073197
59.475 10.88483
59.480 10.968102
59.485 11.096987
59.490 11.342392
59.495 11.255701
59.500 11.231151
59.505 11.361361
59.510 11.433567
59.515 11.350948
59.520 11.342978
59.525 11.072267
59.530 11.430472
59.535 11.407659
59.540 11.545775
59.545 11.836493
59.550 11.625869
59.555 11.762672
59.560 11.86459
59.565 11.737808
59.570 11.799782
59.575 11.654384
59.580 11.290343
59.585 11.268593
59.590 10.96342
59.595 10.651709
59.600 11.167581
59.605 11.34308
59.610 11.291154
59.615 11.139083
59.620 11.100255
59.625 11.922857
59.630 12.102224
59.635 11.641372
59.640 11.513332
59.645 11.089648
59.650 10.957594
59.655 10.583673
59.660 9.938487
59.665 9.746425
59.670 9.275147
59.675 9.153268
59.680 9.486959
59.685 9.785769
59.690 10.273684
59.695 10.663935
59.700 11.531603
59.705 11.935045
59.710 12.233542
59.715 11.740589
59.720 11.505772
59.725 11.080958
59.730 10.841863
59.735 10.316537
59.740 10.281973
59.745 10.509917
59.750 11.045011
59.755 10.857885
59.760 10.957127
59.765 10.63223
59.770 10.418234
59.775 10.646708
59.780 10.983567
59.785 10.830774
59.790 11.409593
59.795 12.046079
59.800 12.310075
59.805 12.772652
59.810 12.616724
59.815 11.996234
59.820 12.005754
59.825 11.699205
59.830 11.120226
59.835 11.379498
59.840 11.043924
59.845 10.913501
59.850 11.064253
59.855 11.014719
59.860 11.218939
59.865 11.19364
59.870 11.117084
59.875 11.418406
59.880 11.393822
59.885 11.086728
59.890 11.259508
59.895 11.097437
59.900 11.180876
59.905 11.111913
59.910 11.039658
59.915 11.036603
59.920 11.414225
59.925 11.528256
59.930 11.646405
59.935 11.755056
59.940 11.612015
59.945 11.176716
59.950 10.921926
59.955 10.641009
59.960 10.561077
59.965 10.360644
59.970 10.35212
59.975 10.018858
59.980 10.182175
59.985 10.194995
59.990 10.65176
59.995 10.512183
60.000 10.720972
60.005 10.676361
60.010 11.131557
60.015 10.797029
60.020 11.15661
60.025 11.025878
60.030 10.909547
60.035 10.935951
60.040 10.859772
60.045 10.946335
60.050 11.439368
60.055 11.404569
60.060 11.50004
60.065 11.78128
60.070 11.527864
60.075 11.691861
60.080 11.687845
60.085 11.689638
60.090 12.021081
60.095 11.988281
60.100 12.201037
60.105 11.976328
60.110 11.77094
60.115 11.82082
60.120 11.789355
60.125 11.507577
60.130 11.111868
60.135 10.746519
60.140 10.950529
60.145 11.003878
60.150 10.869964
60.155 10.674677
60.160 10.305889
60.165 10.433587
60.170 10.8113
60.175 10.62713
60.180 10.294317
60.185 10.511522
60.190 10.642733
60.195 11.050799
60.200 11.248061
60.205 10.966983
60.210 10.917428
60.215 11.176647
60.220 11.141734
60.225 11.028643
60.230 10.513327
60.235 9.958606
60.240 9.837326
60.245 10.16097
60.250 9.685428
60.255 9.504266
60.260 9.941923
60.265 10.168012
60.270 10.270809
60.275 10.075825
60.280 9.848868
60.285 10.072371
60.290 10.038978
60.295 9.935724
60.300 10.199409
60.305 10.451888
60.310 10.648941
60.315 11.065618
60.320 11.270085
60.325 11.367366
60.330 11.116635
60.335 11.008608
60.340 10.726085
60.345 10.854174
60.350 10.493634
60.355 10.291946
60.360 10.185549
60.365 9.797169
60.370 10.267487
60.375 10.815122
60.380 11.009458
60.385 11.14282
60.390 11.08676
60.395 11.956719
60.400 12.344221
60.405 12.055378
60.410 12.313905
60.415 12.337599
60.420 12.577763
60.425 12.936158
60.430 12.167663
60.435 12.074889
60.440 11.840504
60.445 11.16884
60.450 10.957529
60.455 10.614658
60.460 9.999328
60.465 10.15738
60.470 10.464118
60.475 10.872838
60.480 11.116035
60.485 11.25398
60.490 11.189315
60.495 11.391584
60.500 11.457003
60.505 11.520041
60.510 11.10028
60.515 11.285138
60.520 11.277838
60.525 11.839432
60.530 12.151381
60.535 12.094772
60.540 11.933466
60.545 12.049948
60.550 12.084592
60.555 11.892116
60.560 11.607807
60.565 11.159668
60.570 10.683595
60.575 10.728571
60.580 10.522061
60.585 9.905103
60.590 10.123377
60.595 10.356977
60.600 10.635338
60.605 10.804598
60.610 10.9033
60.615 11.034577
60.620 11.658236
60.625 11.396545
60.630 10.935528
60.635 10.555003
60.640 10.505123
60.645 10.806223
60.650 10.84197
60.655 10.438897
60.660 10.437989
60.665 10.500056
60.670 10.98367
60.675 10.881739
60.680 10.252507
60.685 9.743902
60.690 9.7634
60.695 10.373927
60.700 10.657127
60.705 10.841199
60.710 11.115965
60.715 10.801066
60.720 11.181046
60.725 11.517778
60.730 10.9848
60.735 10.796268
60.740 10.711658
60.745 10.836455
60.750 11.428265
60.755 11.250516
60.760 11.227613
60.765 11.435672
60.770 11.615574
60.775 11.440797
60.780 11.635246
60.785 11.569216
60.790 11.754203
60.795 11.772107
60.800 11.738851
60.805 11.690019
60.810 11.372469
60.815 10.669147
60.820 10.47115
60.825 10.249555
60.830 9.90405
60.835 10.11012
60.840 10.16434
60.845 10.368973
60.850 10.887314
60.855 10.914716
60.860 10.973742
60.865 10.912969
60.870 10.811667
60.875 10.971292
60.880 11.477019
60.885 11.903724
60.890 11.843832
60.895 12.049087
60.900 12.233047
60.905 12.020683
60.910 11.749644
60.915 11.00334
60.920 10.499033
60.925 10.510969
60.930 10.68703
60.935 10.961989
60.940 11.391927
60.945 11.064544
60.950 11.127267
60.955 11.10881
60.960 11.442268
60.965 11.086841
60.970 10.813813
60.975 10.889312
60.980 11.467267
60.985 11.722694
60.990 11.67882
60.995 11.109764
61.000 10.641962
61.005 10.30573
61.010 10.001807
61.015 9.88725
61.020 9.884406
61.025 10.297284
61.030 10.550689
61.035 10.999242
61.040 11.398872
61.045 11.55912
61.050 11.466153
61.055 11.544316
61.060 11.318629
61.065 11.458868
61.070 11.500151
61.075 11.175465
61.080 10.959249
61.085 10.795341
61.090 10.756203
61.095 11.019658
61.100 10.952546
61.105 11.004309
61.110 10.857261
61.115 11.07163
61.120 11.234379
61.125 10.74439
61.130 10.454068
61.135 10.475612
61.140 10.517254
61.145 10.920485
61.150 10.981829
61.155 11.328892
61.160 12.453579
61.165 12.933157
61.170 13.069633
61.175 13.389248
61.180 13.33841
61.185 13.07112
61.190 12.88983
61.195 12.388167
61.200 11.937769
61.205 12.080985
61.210 11.578585
61.215 11.788504
61.220 11.931611
61.225 11.828816
61.230 11.877818
61.235 12.270494
61.240 11.950824
61.245 11.687793
61.250 11.33799
61.255 11.116681
61.260 11.126266
61.265 11.589524
61.270 11.460361
61.275 11.949207
61.280 12.544291
61.285 12.655375
61.290 12.660216
61.295 12.575486
61.300 11.941143
61.305 12.089373
61.310 11.785968
61.315 11.515103
61.320 11.82771
61.325 12.140765
61.330 12.113303
61.335 12.38166
61.340 12.08408
61.345 11.861434
61.350 11.699697
61.355 11.904857
61.360 11.889838
61.365 11.803597
61.370 11.526126
61.375 11.337425
61.380 11.461253
61.385 11.409107
61.390 10.994878
61.395 10.896275
61.400 10.662045
61.405 10.478789
61.410 10.610778
61.415 10.610023
61.420 10.652336
61.425 10.63843
61.430 10.715231
61.435 10.984153
61.440 11.366092
61.445 11.1777
61.450 11.374496
61.455 11.613384
61.460 11.241529
61.465 10.79454
61.470 10.471427
61.475 10.522713
61.480 10.711991
61.485 10.604563
61.490 10.378091
61.495 10.763731
61.500 11.259245
61.505 11.144685
61.510 11.130256
61.515 11.403479
61.520 11.832741
61.525 11.918287
61.530 11.472855
61.535 11.140865
61.540 11.527157
61.545 11.695308
61.550 11.522765
61.555 10.809612
61.560 10.626043
61.565 11.071503
61.570 11.535439
61.575 11.758024
61.580 11.646371
61.585 11.810385
61.590 12.182045
61.595 12.339028
61.600 12.210692
61.605 11.873152
61.610 11.239975
61.615 10.914508
61.620 10.582962
61.625 10.52183
61.630 10.228004
61.635 9.940915
61.640 9.905274
61.645 9.630005
61.650 9.216317
61.655 8.959689
61.660 8.999262
61.665 9.274368
61.670 9.395965
61.675 9.406701
61.680 9.858616
61.685 10.07058
61.690 10.5412
61.695 10.027151
61.700 10.305689
61.705 10.95805
61.710 11.465597
61.715 11.210689
61.720 11.416573
61.725 11.353828
61.730 11.529861
61.735 11.199151
61.740 10.286191
61.745 9.894517
61.750 9.7115
61.755 10.009962
61.760 10.36281
61.765 10.944283
61.770 10.931429
61.775 11.39265
61.780 11.476163
61.785 11.515912
61.790 11.091422
61.795 10.927537
61.800 10.533182
61.805 10.93066
61.810 10.56716
61.815 10.777201
61.820 11.327855
61.825 11.938807
61.830 11.606637
61.835 12.291422
61.840 12.008511
61.845 12.436776
61.850 12.974958
61.855 12.68084
61.860 12.175614
61.865 12.27813
61.870 11.649846
61.875 11.612707
61.880 11.406228
61.885 10.802255
61.890 10.794075
61.895 10.627636
61.900 10.60902
61.905 10.781329
61.910 10.928201
61.915 10.751566
61.920 11.084942
61.925 11.151668
61.930 11.1151
61.935 11.002968
61.940 10.740765
61.945 10.752679
61.950 10.72602
61.955 10.291608
61.960 10.589103
61.965 10.813215
61.970 10.995234
61.975 11.376016
61.980 11.751001
61.985 11.969719
61.990 12.345462
61.995 12.078568
62.000 12.120996
62.005 11.840482
62.010 11.423706
62.015 10.979951
62.020 10.61817
62.025 10.405745
62.030 10.621564
62.035 10.579659
62.040 10.580504
62.045 10.406131
62.050 10.578575
62.055 11.135695
62.060 10.908477
62.065 10.508669
62.070 10.923014
62.075 11.325993
62.080 11.75271
62.085 11.790206
62.090 11.349796
62.095 11.411926
62.100 11.649359
62.105 11.574946
62.110 11.601337
62.115 11.81661
62.120 12.120817
62.125 12.499824
62.130 12.696674
62.135 13.324121
62.140 13.090729
62.145 13.229513
62.150 12.990433
62.155 12.661026
62.160 12.437107
62.165 12.800248
62.170 12.165873
62.175 12.165598
62.180 12.014235
62.185 12.048135
62.190 12.122355
62.195 12.016718
62.200 11.904906
62.205 12.233593
62.210 12.130165
62.215 11.816388
62.220 11.688859
62.225 11.133078
62.230 11.173183
62.235 10.942256
62.240 10.958057
62.245 10.877248
62.250 11.05903
62.255 11.208535
62.260 11.702541
62.265 12.118875
62.270 12.132715
62.275 12.236202
62.280 12.731124
62.285 12.917949
62.290 12.843987
62.295 12.880596
62.300 12.531457
62.305 12.433235
62.310 12.221387
62.315 12.418191
62.320 12.615136
62.325 12.875263
62.330 13.043808
62.335 13.221706
62.340 13.059368
62.345 12.589725
62.350 11.915579
62.355 11.657152
62.360 11.854963
62.365 11.565933
62.370 11.218181
62.375 11.158025
62.380 11.617339
62.385 11.913518
62.390 11.567467
62.395 11.341578
62.400 11.800016
62.405 12.025873
62.410 12.32425
62.415 12.126025
62.420 11.970541
62.425 11.804486
62.430 11.708121
62.435 11.705665
62.440 11.403515
62.445 11.303144
62.450 11.51104
62.455 11.455254
62.460 11.679648
62.465 11.491937
62.470 11.479073
62.475 12.228801
62.480 12.093487
62.485 12.046812
62.490 12.278212
62.495 12.610988
62.500 13.096647
62.505 12.8793
62.510 12.718798
62.515 13.011843
62.520 12.763949
62.525 12.663682
62.530 12.294406
62.535 12.056296
62.540 11.952921
62.545 11.523807
62.550 11.367906
62.555 11.358536
62.560 11.524508
62.565 11.423421
62.570 11.239839
62.575 11.474119
62.580 11.392506
62.585 11.070225
62.590 11.132586
62.595 11.085724
62.600 10.799182
62.605 10.696456
62.610 10.642476
62.615 10.934477
62.620 11.6177
62.625 11.613457
62.630 11.609936
62.635 12.57076
62.640 12.987712
62.645 13.09187
62.650 12.865258
62.655 12.807429
62.660 13.05177
62.665 13.135853
62.670 12.619277
62.675 12.30765
62.680 12.319146
62.685 12.577736
62.690 12.500718
62.695 12.30567
62.700 12.337471
62.705 12.155628
62.710 12.371559
62.715 12.54339
62.720 12.627692
62.725 12.491529
62.730 12.312324
62.735 12.422595
62.740 12.646502
62.745 13.016161
62.750 12.791928
62.755 12.729947
62.760 13.170126
62.765 13.503625
62.770 13.496775
62.775 13.520972
62.780 12.857246
62.785 13.023497
62.790 13.509618
62.795 13.196707
62.800 13.086917
62.805 12.916651
62.810 12.415906
62.815 12.544024
62.820 12.10082
62.825 11.773895
62.830 11.633686
62.835 11.384938
62.840 11.517869
62.845 12.005211
62.850 12.434489
62.855 12.554599
62.860 12.628607
62.865 12.526404
62.870 12.316005
62.875 12.117167
62.880 11.835733
62.885 11.480075
62.890 11.431419
62.895 11.236542
62.900 11.644931
62.905 11.96239
62.910 12.227556
62.915 12.510167
62.920 12.847182
62.925 13.038303
62.930 12.261151
62.935 11.653604
62.940 11.456194
62.945 11.079501
62.950 10.88017
62.955 10.727815
62.960 10.67728
62.965 11.071104
62.970 11.469019
62.975 11.881923
62.980 11.979483
62.985 11.965423
62.990 12.229257
62.995 12.358043
63.000 12.363267
63.005 12.863205
63.010 12.573963
63.015 12.643224
63.020 12.685524
63.025 12.400149
63.030 12.436663
63.035 13.17487
63.040 13.141523
63.045 13.306575
63.050 13.391594
63.055 12.729654
63.060 12.626919
63.065 12.769975
63.070 12.003389
63.075 12.039269
63.080 11.984067
63.085 11.760412
63.090 12.199272
63.095 12.040687
63.100 11.460231
63.105 11.628715
63.110 11.098657
63.115 10.817752
63.120 10.776746
63.125 11.369684
63.130 11.831919
63.135 12.291125
63.140 12.302557
63.145 12.112176
63.150 12.421494
63.155 12.655183
63.160 12.279718
63.165 12.164502
63.170 11.887201
63.175 12.178657
63.180 12.416669
63.185 12.465192
63.190 12.159015
63.195 11.678349
63.200 11.523849
63.205 11.42933
63.210 11.017304
63.215 10.77614
63.220 10.565856
63.225 10.28744
63.230 10.624762
63.235 10.587544
63.240 10.798542
63.245 10.460207
63.250 10.826933
63.255 10.862319
63.260 11.209312
63.265 10.932049
63.270 10.965007
63.275 10.931333
63.280 11.442666
63.285 11.226537
63.290 11.210751
63.295 11.427166
63.300 11.31378
63.305 11.589095
63.310 11.55664
63.315 11.380916
63.320 12.064226
63.325 12.183443
63.330 12.100164
63.335 12.06386
63.340 11.943707
63.345 12.235541
63.350 12.056474
63.355 11.289613
63.360 11.086094
63.365 11.051323
63.370 11.427279
63.375 11.835004
63.380 12.044953
63.385 12.349709
63.390 12.908569
63.395 12.904354
63.400 12.959778
63.405 12.816446
63.410 12.400974
63.415 12.202435
63.420 12.171827
63.425 12.218081
63.430 12.857341
63.435 13.157047
63.440 13.069718
63.445 12.811025
63.450 13.306504
63.455 13.732196
63.460 13.888784
63.465 13.532048
63.470 13.352017
63.475 13.610675
63.480 13.799541
63.485 13.228615
63.490 12.680906
63.495 12.220143
63.500 12.246899
63.505 12.267419
63.510 11.945578
63.515 11.643473
63.520 11.233594
63.525 11.073627
63.530 10.851737
63.535 10.333357
63.540 10.210435
63.545 10.275329
63.550 10.363424
63.555 10.233232
63.560 10.034714
63.565 9.896384
63.570 10.279202
63.575 10.354669
63.580 10.243148
63.585 10.177864
63.590 10.541468
63.595 11.619208
63.600 12.031986
63.605 11.749206
63.610 11.682938
63.615 11.606405
63.620 11.427971
63.625 11.447195
63.630 10.976395
63.635 10.586367
63.640 10.91788
63.645 11.111738
63.650 11.318709
63.655 11.710048
63.660 11.934221
63.665 12.096118
63.670 12.9182
63.675 12.596859
63.680 12.404613
63.685 12.035505
63.690 11.775784
63.695 11.910176
63.700 11.564207
63.705 11.141177
63.710 11.430892
63.715 11.656928
63.720 12.454934
63.725 12.356126
63.730 12.054451
63.735 11.914254
63.740 12.110147
63.745 12.256555
63.750 11.633614
63.755 11.313453
63.760 11.359461
63.765 11.165008
63.770 11.076345
63.775 10.824741
63.780 10.981387
63.785 11.520436
63.790 11.054275
63.795 10.882596
63.800 11.244306
63.805 11.398122
63.810 11.408942
63.815 11.328594
63.820 11.504801
63.825 12.206306
63.830 12.733309
63.835 12.955526
63.840 13.220481
63.845 13.473059
63.850 13.561234
63.855 13.176948
63.860 12.997791
63.865 12.887735
63.870 12.775069
63.875 13.188048
63.880 13.249647
63.885 13.572646
63.890 13.628481
63.895 13.491298
63.900 13.239419
63.905 12.713294
63.910 12.11846
63.915 11.82127
63.920 11.549435
63.925 11.886327
63.930 12.405795
63.935 13.011614
63.940 13.725965
63.945 14.242842
63.950 14.56954
63.955 14.243411
63.960 14.452713
63.965 14.193509
63.970 14.102261
63.975 14.197153
63.980 14.703465
63.985 14.865784
63.990 15.227113
63.995 15.287226
64.000 15.235088
64.005 15.142706
64.010 14.698417
64.015 13.944708
64.020 13.689606
64.025 13.249739
64.030 13.303378
64.035 13.909405
64.040 14.177205
64.045 14.783506
64.050 14.977649
64.055 15.203872
64.060 15.423944
64.065 15.102809
64.070 14.210353
64.075 13.946454
64.080 13.573315
64.085 13.751084
64.090 13.539008
64.095 13.333773
64.100 13.482414
64.105 13.891913
64.110 13.913907
64.115 13.466688
64.120 12.88239
64.125 12.764414
64.130 12.537331
64.135 12.070445
64.140 12.087451
64.145 12.185763
64.150 12.437995
64.155 13.266809
64.160 13.907626
64.165 14.476998
64.170 14.645146
64.175 14.128143
64.180 13.941768
64.185 14.182066
64.190 13.774275
64.195 13.732698
64.200 13.346278
64.205 13.192726
64.210 13.420865
64.215 13.415984
64.220 13.480301
64.225 13.496275
64.230 13.313492
64.235 13.780423
64.240 14.255339
64.245 14.847285
64.250 15.003595
64.255 14.579547
64.260 14.670431
64.265 14.927978
64.270 15.284041
64.275 15.257066
64.280 14.916839
64.285 14.824924
64.290 15.322387
64.295 14.817975
64.300 14.655497
64.305 14.456421
64.310 14.439759
64.315 14.027485
64.320 13.718896
64.325 13.550911
64.330 14.014441
64.335 14.481221
64.340 14.785548
64.345 15.086738
64.350 15.505409
64.355 15.563758
64.360 15.300572
64.365 14.996942
64.370 14.216986
64.375 13.468756
64.380 13.207151
64.385 12.925475
64.390 13.034501
64.395 13.891984
64.400 13.778273
64.405 14.070714
64.410 14.770989
64.415 14.753812
64.420 14.753492
64.425 14.77527
64.430 13.679178
64.435 13.91118
64.440 13.971691
64.445 13.974268
64.450 14.096751
64.455 14.73901
64.460 14.976873
64.465 16.037733
64.470 15.931067
64.475 15.567486
64.480 15.350622
64.485 15.779764
64.490 15.724657
64.495 15.391485
64.500 15.475574
64.505 15.401736
64.510 15.348646
64.515 15.449628
64.520 14.797889
64.525 14.449258
64.530 14.735851
64.535 14.765424
64.540 15.187095
64.545 15.196719
64.550 14.998177
64.555 15.597874
64.560 15.998432
64.565 16.024637
64.570 15.525775
64.575 15.047363
64.580 15.012732
64.585 14.982857
64.590 14.407026
64.595 13.946492
64.600 14.164838
64.605 14.419675
64.610 15.191526
64.615 15.5639
64.620 15.930518
64.625 16.014952
64.630 16.338356
64.635 16.349308
64.640 16.092628
64.645 15.674313
64.650 15.670926
64.655 15.299619
64.660 15.082189
64.665 14.727066
64.670 14.34166
64.675 14.349705
64.680 14.452951
64.685 14.423853
64.690 14.351769
64.695 14.514425
64.700 14.494709
64.705 14.199085
64.710 14.10774
64.715 13.519533
64.720 13.401112
64.725 13.872108
64.730 14.221539
64.735 14.068244
64.740 14.515656
64.745 14.715793
64.750 15.197903
64.755 14.975294
64.760 15.2954
64.765 15.261081
64.770 15.529529
64.775 15.034888
64.780 15.175308
64.785 15.522361
64.790 15.328391
64.795 14.840699
64.800 14.899778
64.805 15.079395
64.810 15.511824
64.815 14.97938
64.820 14.554477
64.825 14.923201
64.830 14.980816
64.835 15.460011
64.840 15.480103
64.845 15.996462
64.850 16.755362
64.855 16.987209
64.860 17.107685
64.865 16.617622
64.870 15.976109
64.875 15.566087
64.880 14.974298
64.885 14.339054
64.890 14.61562
64.895 14.39144
64.900 14.611419
64.905 14.89367
64.910 14.854445
64.915 15.149952
64.920 15.907939
64.925 15.729042
64.930 16.38686
64.935 16.823391
64.940 16.887238
64.945 17.362871
64.950 17.124504
64.955 16.761251
64.960 16.54121
64.965 16.387577
64.970 16.143427
64.975 15.809406
64.980 15.564439
64.985 15.74887
64.990 15.578336
64.995 15.606522
65.000 15.835147
65.005 15.542337
65.010 15.959931
65.015 16.793715
65.020 18.0923
65.025 19.082134
65.030 19.396809
65.035 19.732885
65.040 20.115591
65.045 20.056629
65.050 19.857622
65.055 18.954636
65.060 18.244041
65.065 18.151033
65.070 17.975454
65.075 18.11866
65.080 17.612286
65.085 17.645975
65.090 18.501326
65.095 18.357197
65.100 18.425125
65.105 18.665987
65.110 18.871809
65.115 19.082685
65.120 18.857662
65.125 18.868708
65.130 19.437122
65.135 19.474146
65.140 19.85891
65.145 19.798748
65.150 19.47043
65.155 19.139215
65.160 18.560436
65.165 18.570135
65.170 18.250364
65.175 17.869686
65.180 17.88847
65.185 18.335161
65.190 18.654737
65.195 18.824152
65.200 18.852985
65.205 19.578936
65.210 19.24188
65.215 19.062374
65.220 18.560455
65.225 18.400595
65.230 17.443899
65.235 17.140709
65.240 16.403614
65.245 16.11828
65.250 16.413355
65.255 16.592978
65.260 16.751841
65.265 17.316841
65.270 17.235418
65.275 17.433271
65.280 17.790779
65.285 17.604712
65.290 16.982403
65.295 17.056644
65.300 16.751984
65.305 15.912457
65.310 15.990333
65.315 15.749975
65.320 15.947366
65.325 15.877364
65.330 15.234573
65.335 15.170844
65.340 15.206067
65.345 14.775074
65.350 15.17129
65.355 15.034669
65.360 15.383501
65.365 15.841331
65.370 16.153097
65.375 16.318041
65.380 16.549658
65.385 16.403811
65.390 16.09568
65.395 15.747478
65.400 15.475321
65.405 15.302591
65.410 15.468625
65.415 15.046449
65.420 14.868318
65.425 15.057526
65.430 14.768587
65.435 14.529643
65.440 13.709447
65.445 13.395898
65.450 13.141648
65.455 12.999227
65.460 12.719037
65.465 12.622943
65.470 12.786577
65.475 13.150611
65.480 13.013122
65.485 12.82303
65.490 12.674861
65.495 13.237145
65.500 13.531348
65.505 13.473438
65.510 13.455165
65.515 13.710063
65.520 13.581141
65.525 13.269386
65.530 12.970664
65.535 12.878289
65.540 12.752538
65.545 12.338612
65.550 12.475337
65.555 13.019403
65.560 13.051412
65.565 12.872825
65.570 13.212368
65.575 13.453485
65.580 13.784858
65.585 13.344151
65.590 12.926033
65.595 13.120503
65.600 13.445378
65.605 13.234234
65.610 13.181684
65.615 13.371745
65.620 13.814716
65.625 14.136737
65.630 13.954173
65.635 13.308438
65.640 12.966352
65.645 13.2444
65.650 12.879679
65.655 12.594906
65.660 12.491387
65.665 12.477091
65.670 13.128258
65.675 13.432668
65.680 13.666576
65.685 13.797295
65.690 14.068723
65.695 14.977084
65.700 15.204729
65.705 14.792006
65.710 14.592973
65.715 14.105161
65.720 14.276307
65.725 14.090281
65.730 13.199488
65.735 13.07949
65.740 12.940724
65.745 12.862094
65.750 13.197034
65.755 13.050401
65.760 13.197055
65.765 13.357089
65.770 13.463943
65.775 13.530901
65.780 13.415141
65.785 13.935795
65.790 13.843491
65.795 13.640531
65.800 13.92922
65.805 14.161091
65.810 14.374873
65.815 14.144063
65.820 13.793027
65.825 13.752759
65.830 13.964274
65.835 13.585409
65.840 13.381382
65.845 13.665181
65.850 13.605106
65.855 12.734699
65.860 12.693963
65.865 12.815902
65.870 13.284578
65.875 13.288296
65.880 13.65
65.885 13.966063
65.890 13.967803
65.895 13.934009
65.900 13.712645
65.905 13.892064
65.910 13.689043
65.915 13.388871
65.920 13.399283
65.925 13.98902
65.930 14.366088
65.935 14.203041
65.940 14.034412
65.945 13.996461
65.950 14.12812
65.955 14.558218
65.960 14.736956
65.965 14.956611
65.970 15.782564
65.975 15.938232
65.980 15.914054
65.985 16.023767
65.990 16.374746
65.995 16.52957
66.000 17.250023
66.005 16.63525
66.010 16.469288
66.015 16.583282
66.020 16.563387
66.025 16.196692
66.030 15.865644
66.035 15.058034
66.040 15.499651
66.045 16.272614
66.050 16.344614
66.055 16.251532
66.060 16.506899
66.065 17.196245
66.070 17.598831
66.075 17.125042
66.080 16.972963
66.085 17.538141
66.090 17.745163
66.095 17.526009
66.100 16.87331
66.105 16.595028
66.110 17.011484
66.115 17.373203
66.120 16.935091
66.125 17.335262
66.130 17.327505
66.135 17.417856
66.140 17.492744
66.145 17.286449
66.150 17.028099
66.155 17.334892
66.160 17.033495
66.165 17.375113
66.170 17.669582
66.175 17.714308
66.180 17.874653
66.185 17.444902
66.190 17.075802
66.195 17.041096
66.200 17.07412
66.205 16.597507
66.210 16.603439
66.215 16.724932
66.220 17.308971
66.225 18.237762
66.230 18.570663
66.235 18.921417
66.240 19.87793
66.245 20.458479
66.250 20.818104
66.255 20.796331
66.260 20.517548
66.265 20.382229
66.270 20.317286
66.275 19.584112
66.280 18.824677
66.285 18.456396
66.290 17.72777
66.295 17.91046
66.300 18.5179
66.305 18.466728
66.310 18.823854
66.315 18.622871
66.320 18.525841
66.325 19.162304
66.330 18.764437
66.335 18.166597
66.340 17.813225
66.345 17.40242
66.350 17.503222
66.355 17.731977
66.360 17.770918
66.365 17.729805
66.370 17.586088
66.375 18.301287
66.380 18.373304
66.385 18.704262
66.390 18.703587
66.395 18.188696
66.400 18.281298
66.405 19.060089
66.410 18.145004
66.415 17.962118
66.420 17.895674
66.425 17.6889
66.430 17.324381
66.435 16.567839
66.440 15.376678
66.445 15.767859
66.450 16.005161
66.455 15.829275
66.460 15.628664
66.465 15.851933
66.470 16.514669
66.475 16.860895
66.480 16.670773
66.485 16.444885
66.490 16.253624
66.495 16.141159
66.500 16.370855
66.505 15.993758
66.510 16.002026
66.515 16.098318
66.520 15.783119
66.525 15.474241
66.530 15.218166
66.535 14.713757
66.540 14.826724
66.545 14.450155
66.550 14.145585
66.555 13.982752
66.560 14.03357
66.565 14.175123
66.570 14.259355
66.575 14.427743
66.580 14.021736
66.585 14.291022
66.590 14.407968
66.595 14.702965
66.600 14.424388
66.605 14.399243
66.610 14.443748
66.615 14.416752
66.620 14.237174
66.625 14.075439
66.630 13.556052
66.635 13.584391
66.640 13.313742
66.645 13.116887
66.650 13.276567
66.655 13.519536
66.660 13.344361
66.665 13.641274
66.670 13.527586
66.675 13.354598
66.680 13.029215
66.685 12.764074
66.690 12.307224
66.695 12.202404
66.700 12.110115
66.705 12.267767
66.710 12.408305
66.715 12.600517
66.720 12.419169
66.725 12.394779
66.730 12.698693
66.735 13.031009
66.740 12.643493
66.745 12.860021
66.750 12.780226
66.755 13.264256
66.760 13.592213
66.765 13.100782
66.770 12.766372
66.775 13.133636
66.780 13.08352
66.785 13.415721
66.790 13.099211
66.795 12.90283
66.800 13.072096
66.805 12.717773
66.810 12.52162
66.815 12.235003
66.820 11.729726
66.825 11.42029
66.830 11.113087
66.835 11.40116
66.840 11.997228
66.845 11.966492
66.850 11.904357
66.855 11.784083
66.860 12.046601
66.865 12.531693
66.870 12.51229
66.875 12.165277
66.880 11.950135
66.885 12.165334
66.890 12.113391
66.895 12.191814
66.900 12.103736
66.905 12.457512
66.910 12.75549
66.915 13.03669
66.920 13.144301
66.925 13.462207
66.930 12.955256
66.935 12.843469
66.940 12.327025
66.945 12.095564
66.950 12.019127
66.955 11.982805
66.960 11.940794
66.965 11.799037
66.970 11.669081
66.975 12.290627
66.980 12.698195
66.985 12.720774
66.990 12.720815
66.995 12.440719
67.000 11.885752
67.005 11.862728
67.010 11.028208
67.015 10.667442
67.020 10.700466
67.025 10.554729
67.030 10.843798
67.035 11.417037
67.040 11.283747
67.045 11.57686
67.050 11.279421
67.055 11.176252
67.060 11.592922
67.065 12.037947
67.070 12.492025
67.075 12.53535
67.080 12.619771
67.085 12.855248
67.090 13.01198
67.095 12.670817
67.100 12.486922
67.105 12.361296
67.110 12.319654
67.115 12.195381
67.120 12.190637
67.125 12.067501
67.130 12.376873
67.135 12.445858
67.140 12.575508
67.145 12.948577
67.150 13.106474
67.155 13.030421
67.160 12.67502
67.165 12.463531
67.170 12.367421
67.175 12.313018
67.180 11.897967
67.185 12.04069
67.190 12.103456
67.195 12.362187
67.200 12.555423
67.205 12.510041
67.210 11.978941
67.215 11.868457
67.220 11.694135
67.225 11.675185
67.230 11.724965
67.235 11.882843
67.240 11.575613
67.245 11.909717
67.250 12.358293
67.255 12.588983
67.260 12.862573
67.265 12.365421
67.270 12.279846
67.275 12.723372
67.280 12.344313
67.285 12.422746
67.290 11.971645
67.295 11.900456
67.300 12.289927
67.305 11.948684
67.310 11.791986
67.315 12.106463
67.320 11.923179
67.325 12.053727
67.330 12.163339
67.335 12.503967
67.340 12.606829
67.345 12.689246
67.350 11.819122
67.355 11.565133
67.360 11.667467
67.365 11.417523
67.370 11.508465
67.375 11.542195
67.380 11.787626
67.385 12.069269
67.390 12.079845
67.395 12.28524
67.400 12.17016
67.405 11.871775
67.410 11.474379
67.415 11.692296
67.420 12.377012
67.425 12.255756
67.430 12.221212
67.435 12.899937
67.440 13.534706
67.445 13.837598
67.450 13.784794
67.455 13.42789
67.460 13.404399
67.465 13.448932
67.470 12.873134
67.475 12.5076
67.480 12.93776
67.485 13.388917
67.490 13.3576
67.495 13.624958
67.500 13.237035
67.505 12.994374
67.510 12.733467
67.515 12.20178
67.520 11.969158
67.525 12.136795
67.530 12.432481
67.535 12.755772
67.540 12.762516
67.545 12.942144
67.550 13.275343
67.555 13.095338
67.560 13.165752
67.565 12.851702
67.570 12.713469
67.575 12.547831
67.580 12.252536
67.585 11.951729
67.590 11.427132
67.595 11.175294
67.600 10.966106
67.605 10.759044
67.610 11.047443
67.615 10.880564
67.620 11.162064
67.625 11.582163
67.630 11.453529
67.635 11.141429
67.640 11.41515
67.645 11.271571
67.650 11.355865
67.655 11.105606
67.660 11.181508
67.665 11.992683
67.670 12.604957
67.675 12.654342
67.680 12.5615
67.685 13.057108
67.690 13.531232
67.695 13.641049
67.700 13.139883
67.705 12.669774
67.710 12.826648
67.715 12.82648
67.720 12.634999
67.725 12.751539
67.730 12.745604
67.735 12.708091
67.740 12.759925
67.745 12.45547
67.750 12.617559
67.755 12.468896
67.760 11.841536
67.765 12.243326
67.770 12.452079
67.775 12.855588
67.780 12.992222
67.785 12.25119
67.790 12.450546
67.795 12.491544
67.800 12.14484
67.805 12.35524
67.810 12.021892
67.815 12.304503
67.820 13.050852
67.825 12.749555
67.830 12.621434
67.835 12.240609
67.840 12.134356
67.845 11.980416
67.850 11.879843
67.855 11.674017
67.860 11.663355
67.865 11.441581
67.870 11.722492
67.875 11.758305
67.880 11.610065
67.885 12.189808
67.890 12.404253
67.895 12.554648
67.900 12.939496
67.905 13.087584
67.910 13.163991
67.915 13.470965
67.920 13.213025
67.925 13.490817
67.930 14.063188
67.935 14.262825
67.940 14.371216
67.945 14.396409
67.950 14.268421
67.955 14.035335
67.960 13.618729
67.965 13.037723
67.970 12.651864
67.975 12.563858
67.980 12.523404
67.985 12.199538
67.990 12.5889
67.995 13.001742
68.000 12.879698
68.005 12.573009
68.010 12.353996
68.015 12.603765
68.020 12.860663
68.025 12.355362
68.030 11.601328
68.035 12.338528
68.040 12.447289
68.045 12.677861
68.050 12.57043
68.055 12.987428
68.060 13.174658
68.065 13.322324
68.070 13.350042
68.075 13.880255
68.080 14.073217
68.085 13.889868
68.090 13.526275
68.095 13.75159
68.100 13.787118
68.105 13.5431
68.110 13.431652
68.115 13.026629
68.120 13.264151
68.125 13.179141
68.130 12.844792
68.135 12.850348
68.140 12.646388
68.145 12.627444
68.150 12.694696
68.155 12.750871
68.160 13.031443
68.165 13.384475
68.170 13.454062
68.175 13.494071
68.180 13.088333
68.185 13.244163
68.190 13.374985
68.195 13.1293
68.200 12.809367
68.205 12.324648
68.210 11.888404
68.215 11.927053
68.220 11.864372
68.225 11.628906
68.230 11.56652
68.235 11.648629
68.240 11.967123
68.245 12.240428
68.250 12.132725
68.255 11.680203
68.260 11.523544
68.265 11.738581
68.270 11.731229
68.275 11.530665
68.280 11.685788
68.285 11.680315
68.290 12.167528
68.295 12.282967
68.300 11.939741
68.305 12.189763
68.310 12.367446
68.315 12.464658
68.320 12.825667
68.325 12.563992
68.330 12.143855
68.335 12.542666
68.340 12.496799
68.345 12.19993
68.350 12.050776
68.355 11.794873
68.360 11.608483
68.365 11.513065
68.370 11.258388
68.375 11.088289
68.380 11.400321
68.385 11.129051
68.390 11.243662
68.395 11.674316
68.400 12.045371
68.405 12.105271
68.410 12.529722
68.415 12.578313
68.420 12.728491
68.425 12.895978
68.430 12.675339
68.435 12.726194
68.440 12.886492
68.445 12.210835
68.450 12.385057
68.455 12.526492
68.460 12.254683
68.465 12.365827
68.470 12.278757
68.475 12.30604
68.480 12.41418
68.485 12.366644
68.490 12.612641
68.495 12.327203
68.500 12.089758
68.505 11.587494
68.510 11.64007
68.515 11.921855
68.520 11.521779
68.525 11.530049
68.530 11.88992
68.535 12.210631
68.540 12.408632
68.545 12.23347
68.550 12.5532
68.555 12.416288
68.560 12.24194
68.565 12.125776
68.570 12.270277
68.575 12.292803
68.580 12.438433
68.585 12.399613
68.590 12.470237
68.595 12.189885
68.600 11.817726
68.605 11.730495
68.610 11.719645
68.615 11.481574
68.620 11.256485
68.625 11.452657
68.630 11.370615
68.635 11.284378
68.640 11.198161
68.645 11.426613
68.650 11.403846
68.655 11.436365
68.660 11.483527
68.665 12.043603
68.670 12.445467
68.675 12.979615
68.680 12.988986
68.685 12.883571
68.690 13.106731
68.695 13.385147
68.700 13.379873
68.705 13.145239
68.710 12.423176
68.715 12.413363
68.720 12.297078
68.725 11.950186
68.730 12.002965
68.735 12.311269
68.740 12.794842
68.745 13.104022
68.750 12.744355
68.755 13.160319
68.760 13.424733
68.765 13.071264
68.770 13.090554
68.775 13.576215
68.780 13.503155
68.785 13.997445
68.790 13.768785
68.795 13.338675
68.800 13.191533
68.805 12.563099
68.810 12.480817
68.815 12.624136
68.820 12.251363
68.825 12.605527
68.830 12.99139
68.835 13.159106
68.840 13.191092
68.845 12.820989
68.850 12.941723
68.855 12.862169
68.860 12.584315
68.865 12.34897
68.870 12.301217
68.875 12.303166
68.880 12.063481
68.885 12.099897
68.890 12.174579
68.895 12.2606
68.900 12.752612
68.905 13.411634
68.910 13.317759
68.915 13.240774
68.920 13.396234
68.925 13.910779
68.930 13.95979
68.935 13.686481
68.940 13.359211
68.945 13.300287
68.950 13.319242
68.955 13.100018
68.960 12.660616
68.965 12.647264
68.970 12.732144
68.975 13.088711
68.980 13.084606
68.985 13.302876
68.990 13.190558
68.995 13.490994
69.000 13.732634
69.005 13.343346
69.010 13.251756
69.015 13.308537
69.020 13.228866
69.025 13.044064
69.030 13.606014
69.035 13.766944
69.040 14.028246
69.045 13.967422
69.050 14.301531
69.055 14.767469
69.060 14.645168
69.065 14.60773
69.070 14.777347
69.075 15.059279
69.080 15.278534
69.085 15.535927
69.090 15.718278
69.095 15.985642
69.100 15.927659
69.105 15.816061
69.110 15.69152
69.115 15.782334
69.120 15.506696
69.125 15.682527
69.130 15.396999
69.135 15.242469
69.140 14.859548
69.145 14.680568
69.150 14.90227
69.155 14.966939
69.160 14.853683
69.165 15.174292
69.170 15.09641
69.175 15.372031
69.180 15.647573
69.185 15.836744
69.190 16.153042
69.195 15.849062
69.200 15.533797
69.205 15.780893
69.210 16.204927
69.215 17.111727
69.220 16.765697
69.225 17.05093
69.230 17.504599
69.235 17.943848
69.240 18.154701
69.245 17.83424
69.250 17.317677
69.255 17.642103
69.260 17.653616
69.265 17.97438
69.270 17.442963
69.275 17.29594
69.280 17.127636
69.285 16.734827
69.290 16.480043
69.295 15.979111
69.300 15.796145
69.305 16.334309
69.310 16.262613
69.315 15.88749
69.320 15.920477
69.325 15.610444
69.330 16.140253
69.335 16.732132
69.340 16.941504
69.345 17.388632
69.350 18.282167
69.355 18.788771
69.360 18.865402
69.365 18.164537
69.370 17.088182
69.375 16.742373
69.380 15.964869
69.385 15.02858
69.390 15.482462
69.395 15.855683
69.400 16.653898
69.405 17.137526
69.410 17.843809
69.415 18.266857
69.420 18.067608
69.425 17.535505
69.430 17.55406
69.435 17.49391
69.440 17.299658
69.445 17.332428
69.450 17.587509
69.455 17.913324
69.460 17.160158
69.465 16.84247
69.470 16.586535
69.475 16.407249
69.480 15.701951
69.485 15.217073
69.490 15.640108
69.495 16.200712
69.500 16.326815
69.505 16.127325
69.510 16.508797
69.515 17.146715
69.520 17.493652
69.525 16.832193
69.530 16.630356
69.535 16.993284
69.540 17.635675
69.545 17.879831
69.550 17.668016
69.555 17.987865
69.560 18.788776
69.565 18.980986
69.570 18.79281
69.575 18.535282
69.580 18.587856
69.585 18.316534
69.590 18.389906
69.595 18.076241
69.600 17.396263
69.605 16.860964
69.610 16.275482
69.615 15.777055
69.620 15.591366
69.625 14.802896
69.630 14.513996
69.635 14.75607
69.640 15.235397
69.645 15.111815
69.650 15.090689
69.655 15.314877
69.660 16.461058
69.665 16.967636
69.670 17.215342
69.675 17.258799
69.680 17.613558
69.685 17.834801
69.690 17.5243
69.695 16.827515
69.700 17.317852
69.705 16.970072
69.710 16.725893
69.715 16.677668
69.720 16.736643
69.725 17.046135
69.730 16.437639
69.735 15.226169
69.740 15.192614
69.745 14.967468
69.750 14.384333
69.755 14.391963
69.760 13.936078
69.765 14.039729
69.770 14.621143
69.775 14.327866
69.780 14.602727
69.785 14.78624
69.790 14.688819
69.795 14.764271
69.800 14.214993
69.805 14.173751
69.810 14.26337
69.815 14.160078
69.820 14.454354
69.825 14.202282
69.830 14.308991
69.835 14.869801
69.840 14.542667
69.845 14.655231
69.850 14.544861
69.855 14.256356
69.860 13.981779
69.865 13.936131
69.870 13.250016
69.875 13.251242
69.880 12.976015
69.885 13.351809
69.890 13.383321
69.895 13.820944
69.900 13.594224
69.905 13.57219
69.910 13.53839
69.915 13.127803
69.920 12.276266
69.925 12.057275
69.930 12.046453
69.935 12.180116
69.940 12.176362
69.945 11.956827
69.950 12.342067
69.955 12.720725
69.960 12.772229
69.965 12.643997
69.970 12.621182
69.975 12.992594
69.980 13.149659
69.985 13.573019
69.990 13.625619
69.995 13.537062
70.000 13.314494
70.005 13.459218
70.010 13.198297
70.015 12.764966
70.020 12.374155
70.025 12.515018
70.030 12.659101
70.035 12.564727
70.040 12.563107
70.045 13.077507
70.050 13.156124
70.055 12.908669
70.060 12.601137
70.065 12.816896
70.070 13.134193
70.075 13.061692
70.080 12.77863
70.085 12.901823
70.090 12.91649
70.095 13.247416
70.100 12.839088
70.105 12.531129
70.110 12.321753
70.115 12.56779
70.120 12.781846
70.125 12.979674
70.130 12.97832
70.135 13.417496
70.140 14.113981
70.145 14.179916
70.150 14.249125
70.155 14.019792
70.160 13.678888
70.165 13.482059
70.170 12.773861
70.175 12.562485
70.180 12.710694
70.185 12.760657
70.190 12.689393
70.195 12.709031
70.200 12.786675
70.205 12.995393
70.210 12.362844
70.215 12.189288
70.220 12.060406
70.225 12.255289
70.230 12.53225
70.235 12.533672
70.240 13.06545
70.245 13.045256
70.250 13.332479
70.255 13.392348
70.260 13.364438
70.265 13.064307
70.270 12.722498
70.275 12.513911
70.280 12.336305
70.285 11.857101
70.290 11.754942
70.295 11.819211
70.300 12.190907
70.305 12.269279
70.310 11.981765
70.315 12.212182
70.320 12.514574
70.325 12.167634
70.330 12.280321
70.335 12.535501
70.340 12.518123
70.345 12.696115
70.350 12.366891
70.355 11.796842
70.360 11.672631
70.365 11.260571
70.370 11.105397
70.375 11.201578
70.380 11.832994
70.385 12.285084
70.390 12.616614
70.395 12.946372
70.400 13.076673
70.405 12.737204
70.410 12.075246
70.415 11.376766
70.420 11.504546
70.425 12.011341
70.430 11.911534
70.435 11.670369
70.440 11.838146
70.445 11.954669
70.450 12.542919
70.455 12.650891
70.460 12.131055
70.465 12.219787
70.470 11.823056
70.475 12.038368
70.480 11.841829
70.485 11.447184
70.490 11.138997
70.495 11.24739
70.500 11.307261
70.505 11.835298
70.510 11.86011
70.515 11.926349
70.520 11.855618
70.525 12.277225
70.530 12.401073
70.535 12.22972
70.540 11.895997
70.545 11.560475
70.550 11.797644
70.555 11.938851
70.560 11.158765
70.565 11.243046
70.570 11.456794
70.575 11.839088
70.580 12.060113
70.585 12.162549
70.590 12.235785
70.595 12.84254
70.600 13.132916
70.605 12.933928
70.610 12.71613
70.615 12.654971
70.620 12.703685
70.625 12.926229
70.630 12.501748
70.635 12.183846
70.640 12.486346
70.645 12.646932
70.650 12.913848
70.655 12.481009
70.660 12.414318
70.665 12.327748
70.670 12.794075
70.675 13.219824
70.680 13.262875
70.685 12.706493
70.690 12.931645
70.695 12.902288
70.700 12.837851
70.705 11.970656
70.710 11.334972
70.715 11.197598
70.720 11.44352
70.725 11.614841
70.730 11.304796
70.735 11.24863
70.740 11.638292
70.745 11.71309
70.750 11.842158
70.755 12.085939
70.760 12.279721
70.765 12.579506
70.770 12.763505
70.775 13.062499
70.780 12.836422
70.785 12.559516
70.790 11.882274
70.795 11.572793
70.800 11.658141
70.805 11.792868
70.810 11.825115
70.815 11.982471
70.820 12.582743
70.825 12.805946
70.830 12.859061
70.835 12.786916
70.840 12.483507
70.845 12.193157
70.850 12.377066
70.855 11.733917
70.860 11.652282
70.865 11.549113
70.870 11.597804
70.875 11.61627
70.880 11.609736
70.885 11.640392
70.890 11.169111
70.895 10.994594
70.900 10.797266
70.905 10.468436
70.910 10.243398
70.915 10.063881
70.920 10.012283
70.925 11.023839
70.930 11.547826
70.935 11.877637
70.940 12.129287
70.945 12.073501
70.950 12.384522
70.955 12.638757
70.960 12.251425
70.965 12.100813
70.970 11.470276
70.975 11.471794
70.980 11.703271
70.985 11.631451
70.990 11.146576
70.995 10.690104
71.000 10.451241
71.005 10.973298
71.010 11.114443
71.015 10.711373
71.020 10.629468
71.025 10.385497
71.030 10.93292
71.035 10.845557
71.040 10.799904
71.045 10.617293
71.050 11.06808
71.055 11.329754
71.060 12.071724
71.065 12.102969
71.070 12.451218
71.075 12.482934
71.080 12.576413
71.085 12.458315
71.090 12.878924
71.095 12.129945
71.100 11.7363
71.105 11.740491
71.110 11.337999
71.115 11.340497
71.120 11.349678
71.125 10.692768
71.130 10.839534
71.135 10.44575
71.140 10.431369
71.145 10.971903
71.150 10.905468
71.155 11.103233
71.160 11.783322
71.165 12.256043
71.170 12.353272
71.175 12.016881
71.180 11.792268
71.185 11.796954
71.190 11.787566
71.195 11.719441
71.200 11.874335
71.205 11.861779
71.210 12.033129
71.215 11.976183
71.220 11.664536
71.225 11.30299
71.230 10.744843
71.235 10.798035
71.240 10.777136
71.245 10.863694
71.250 10.763353
71.255 10.749006
71.260 10.664618
71.265 11.315296
71.270 11.465077
71.275 11.847875
71.280 12.043553
71.285 12.719723
71.290 13.088413
71.295 13.273756
71.300 12.683384
71.305 12.735889
71.310 12.415551
71.315 11.838418
71.320 11.275244
71.325 11.013906
71.330 10.545379
71.335 10.765862
71.340 10.929411
71.345 11.040759
71.350 10.945412
71.355 11.048159
71.360 11.043556
71.365 11.667931
71.370 11.425018
71.375 11.770365
71.380 11.998542
71.385 11.76714
71.390 11.645484
71.395 11.89869
71.400 11.963149
71.405 11.925187
71.410 11.816181
71.415 12.032559
71.420 12.591226
71.425 12.830111
71.430 12.202882
71.435 11.774531
71.440 11.845505
71.445 11.681519
71.450 11.707255
71.455 11.734017
71.460 11.597021
71.465 12.221856
71.470 12.432072
71.475 12.361428
71.480 12.147096
71.485 11.985179
71.490 12.272727
71.495 12.081326
71.500 12.802463
71.505 12.908789
71.510 12.378617
71.515 12.445371
71.520 12.679419
71.525 12.78967
71.530 12.800679
71.535 11.784923
71.540 11.648158
71.545 11.924518
71.550 11.823448
71.555 11.656713
71.560 11.554078
71.565 11.465778
71.570 10.956165
71.575 11.271136
71.580 11.468186
71.585 11.396701
71.590 11.089973
71.595 11.146836
71.600 11.912965
71.605 12.365574
71.610 12.187954
71.615 12.053948
71.620 12.035817
71.625 12.027995
71.630 11.919104
71.635 11.546153
71.640 11.317233
71.645 11.415244
71.650 11.748576
71.655 11.787675
71.660 11.754382
71.665 11.538347
71.670 11.971793
71.675 12.777236
71.680 13.009233
71.685 13.027368
71.690 13.584543
71.695 13.529796
71.700 13.665894
71.705 13.319273
71.710 12.570019
71.715 12.104482
71.720 12.129058
71.725 12.543676
71.730 12.415614
71.735 12.329389
71.740 12.487889
71.745 12.619356
71.750 12.806184
71.755 12.299975
71.760 11.917736
71.765 11.677145
71.770 11.664347
71.775 12.238832
71.780 12.423513
71.785 12.177468
71.790 12.381316
71.795 12.459461
71.800 12.558817
71.805 12.598357
71.810 12.570229
71.815 12.842401
71.820 12.501675
71.825 12.544816
71.830 12.982285
71.835 12.922855
71.840 12.076486
71.845 11.545667
71.850 11.559167
71.855 11.909425
71.860 11.924171
71.865 11.941504
71.870 12.104312
71.875 12.868979
71.880 13.174594
71.885 13.380151
71.890 12.927386
71.895 12.624927
71.900 12.279778
71.905 12.214444
71.910 12.04044
71.915 11.384254
71.920 10.950495
71.925 11.200787
71.930 11.371963
71.935 11.410151
71.940 10.936028
71.945 10.601653
71.950 10.915832
71.955 11.195866
71.960 11.077298
71.965 11.019973
71.970 11.608168
71.975 11.656753
71.980 12.374426
71.985 12.406983
71.990 12.222734
71.995 12.212409
72.000 11.712244
72.005 11.697111
72.010 12.144423
72.015 11.901966
72.020 11.886763
72.025 12.058622
72.030 11.884058
72.035 11.564981
72.040 11.140346
72.045 10.644213
72.050 10.575494
72.055 10.642464
72.060 11.106855
72.065 11.735658
72.070 12.407528
72.075 12.540146
72.080 12.287852
72.085 12.345356
72.090 11.96939
72.095 11.54902
72.100 11.215085
72.105 11.055524
72.110 11.676412
72.115 11.65296
72.120 11.20536
72.125 11.50781
72.130 11.374216
72.135 10.957015
72.140 10.731583
72.145 10.353967
72.150 10.45067
72.155 10.513485
72.160 10.883881
72.165 11.253699
72.170 11.39482
72.175 11.647391
72.180 11.433404
72.185 11.278653
72.190 10.981016
72.195 10.759419
72.200 11.21058
72.205 11.269894
72.210 11.058198
72.215 11.381263
72.220 11.871046
72.225 11.954463
72.230 11.718217
72.235 11.779193
72.240 11.543304
72.245 11.697618
72.250 11.961363
72.255 12.263335
72.260 12.531306
72.265 12.499963
72.270 12.418046
72.275 12.826999
72.280 12.663536
72.285 12.287786
72.290 12.184678
72.295 12.130246
72.300 11.933667
72.305 11.989108
72.310 11.756919
72.315 12.10447
72.320 11.751772
72.325 11.528003
72.330 11.513776
72.335 11.607212
72.340 11.816612
72.345 11.79953
72.350 11.550507
72.355 11.593697
72.360 11.027925
72.365 10.757461
72.370 10.60026
72.375 10.652248
72.380 11.440236
72.385 11.617355
72.390 11.77324
72.395 12.272444
72.400 12.046576
72.405 12.126687
72.410 11.79744
72.415 11.288319
72.420 11.577566
72.425 11.882676
72.430 12.160269
72.435 12.432178
72.440 12.16919
72.445 12.013213
72.450 11.899378
72.455 11.751156
72.460 11.412266
72.465 11.127173
72.470 10.926584
72.475 11.027497
72.480 11.422388
72.485 11.379576
72.490 11.484085
72.495 11.504359
72.500 11.566439
72.505 11.821654
72.510 11.324682
72.515 11.149453
72.520 10.784118
72.525 10.605991
72.530 11.178646
72.535 11.195
72.540 11.297545
72.545 11.684755
72.550 11.985519
72.555 12.830624
72.560 12.484357
72.565 11.805201
72.570 11.784778
72.575 11.435336
72.580 11.144963
72.585 10.814795
72.590 10.710345
72.595 10.947697
72.600 11.330398
72.605 11.797278
72.610 12.358854
72.615 12.07837
72.620 11.825627
72.625 11.95673
72.630 11.686619
72.635 11.64318
72.640 10.667403
72.645 10.465168
72.650 10.68854
72.655 11.066196
72.660 10.901354
72.665 10.425748
72.670 10.466979
72.675 10.656901
72.680 10.452921
72.685 10.690354
72.690 10.279037
72.695 11.275698
72.700 11.700286
72.705 11.714645
72.710 12.430047
72.715 12.524095
72.720 12.315459
72.725 12.260283
72.730 12.196109
72.735 12.552784
72.740 12.89661
72.745 12.369955
72.750 12.270228
72.755 12.411514
72.760 12.456476
72.765 11.877823
72.770 11.329849
72.775 10.845917
72.780 10.944237
72.785 10.793841
72.790 10.881906
72.795 10.409863
72.800 10.543845
72.805 10.621604
72.810 10.497543
72.815 10.867059
72.820 10.572211
72.825 10.541628
72.830 10.536897
72.835 10.924092
72.840 11.043082
72.845 11.320549
72.850 11.459215
72.855 11.404236
72.860 11.106024
72.865 11.993518
72.870 12.074145
72.875 12.24858
72.880 12.10941
72.885 12.112149
72.890 12.297197
72.895 11.946234
72.900 11.023971
72.905 11.040948
72.910 11.183043
72.915 11.15671
72.920 11.038239
72.925 11.00929
72.930 10.815917
72.935 10.992756
72.940 10.640326
72.945 10.576496
72.950 10.595324
72.955 10.507158
72.960 10.932549
72.965 11.59047
72.970 11.806868
72.975 11.618716
72.980 11.160779
72.985 11.352613
72.990 11.464241
72.995 11.535279
73.000 11.233286
